SpectraSmart Spectrum 2.9.0.0
--------- Device Information -----------
Spectrum Name :  反射率_0
Saving Time :  2024/04/26 01:35:48
Spectro-Module Model Name : SE2030-DUVN
Spectro-Module Serial Number : OS361AC55029948
Wavelength Start : 200
Wavelength End : 1025
Wavelength Unit : Wavelength(nm)
Spectrum Unit : Reflectance(%)
-----------Spectrum Setting ------------
Integration Time : 20ms
Average : 10
Boxcar : 0
Background removal :  enabled
linearity correction :  enabled
SC :  disabled
Intensity correction :  disabled
DWT denoise :  enabled
savitzky-golay :  disabled
FFT :  disabled
Running average :  disabled
Kalman :  disabled
High pass :  disabled
---------------BEGIN--------------------
Wavelength(nm)             Reflectance(%)
200.29               0
200.75        106.8622
201.21        97.45983
201.67        87.28487
202.13        82.10024
202.58        82.50559
203.04        87.19746
203.50         93.5145
203.96        96.74735
204.42        95.83384
204.88        92.67754
205.34        89.63257
205.80        89.13833
206.26        92.16138
206.72        100.4193
207.18        117.1691
207.64         131.833
208.10        121.8289
208.55        101.5522
209.01        88.92387
209.47        84.74971
209.93        85.44027
210.39        89.24295
210.85        93.64481
211.31         93.5143
211.77        87.50542
212.23        77.75309
212.69        68.50936
213.14         66.2989
213.60        72.01483
214.06        83.60818
214.52        96.76791
214.98        104.8687
215.44        106.0815
215.90        102.5811
216.36        96.78531
216.81         91.9572
217.27        89.55929
217.73         88.6328
218.19        88.04731
218.65        86.30752
219.11        82.76831
219.57        77.00311
220.02        70.44064
220.48        69.17583
220.94        75.42733
221.40        86.58202
221.86        95.12112
222.32        93.96799
222.77         84.7552
223.23        72.49049
223.69        62.00061
224.15        58.20184
224.61        60.58755
225.06        66.71473
225.52        73.45448
225.98        76.85252
226.44        76.13948
226.90        72.96526
227.36        69.26728
227.81        67.61398
228.27        68.80753
228.73        71.54589
229.19        74.74847
229.65        76.89444
230.10        77.56791
230.56         77.6084
231.02        77.33601
231.48        77.07961
231.93        76.95068
232.39        76.86897
232.85        77.04157
233.31        77.93407
233.77        79.58314
234.22        81.93801
234.68        84.43942
235.14        85.91267
235.60        85.99268
236.05        85.01441
236.51        83.69692
236.97        83.11685
237.43        83.59951
237.88        85.05331
238.34         87.1981
238.80        89.55124
239.26        91.59899
239.71        93.75228
240.17        95.26276
240.63        95.63884
241.08        95.08508
241.54        93.59898
242.00        92.62041
242.46        94.51487
242.91        101.6656
243.37        119.6722
243.83        170.8917
244.28        308.8744
244.74        411.7568
245.20        288.5475
245.66        207.8376
246.11        186.9272
246.57        197.8584
247.03        252.5485
247.48         428.953
247.94        375.6147
248.40        195.3495
248.85        136.1976
249.31        117.0835
249.77        112.6689
250.22        115.6446
250.68        124.6937
251.14        139.4189
251.59        150.6931
252.05        148.6559
252.51        137.4556
252.96        124.9053
253.42        119.0676
253.88        119.7726
254.33        123.9664
254.79         130.992
255.25        139.1574
255.70        146.5982
256.16        153.6413
256.62        158.6939
257.07        160.0827
257.53        159.0009
257.99        155.7569
258.44        151.3052
258.90        148.3628
259.35         145.933
259.81        143.9153
260.27        141.1823
260.72         136.578
261.18        131.1166
261.63        124.9523
262.09        119.1842
262.55        113.9798
263.00        109.3436
263.46        105.5152
263.91        102.1887
264.37        99.74158
264.83        97.69492
265.28        95.76639
265.74         93.7157
266.19        90.77946
266.65        87.42767
267.11        84.01906
267.56        80.92162
268.02        78.60822
268.47        76.86329
268.93        75.52814
269.38        74.41455
269.84        73.43166
270.30        72.51725
270.75        71.71785
271.21        70.94549
271.66        70.03341
272.12        68.96433
272.57        67.74021
273.03        66.54538
273.48        65.54639
273.94        64.82965
274.39        64.25469
274.85        63.74571
275.31        63.10852
275.76        62.26929
276.22        61.35229
276.67        60.33773
277.13         59.3793
277.58        58.43531
278.04        57.55935
278.49        56.68726
278.95         55.8875
279.40        55.08308
279.86        54.35442
280.31        53.61623
280.77        52.92673
281.22        52.22836
281.68        51.58979
282.13        50.99282
282.59         50.5204
283.04        50.14054
283.50        49.89393
283.95        49.69277
284.41        49.47768
284.86        49.20583
285.32        48.91571
285.77        48.67786
286.22        48.70081
286.68        48.97534
287.13        49.36608
287.59        49.67796
288.04        49.56787
288.50        49.03776
288.95        48.18339
289.41        47.25159
289.86        46.44902
290.32        45.93725
290.77        45.63631
291.22        45.57217
291.68        45.72772
292.13        46.07985
292.59        46.65612
293.04        47.42075
293.50        48.32239
293.95        49.30777
294.40        50.33934
294.86        51.39879
295.31        52.47288
295.77        53.57016
296.22        54.69455
296.68        55.81913
297.13        56.87059
297.58        57.85688
298.04        58.82008
298.49        59.86904
298.95        61.23803
299.40        62.94016
299.85        64.89649
300.31        66.91973
300.76        68.69636
301.21        70.12559
301.67         71.3467
302.12        72.40159
302.58        73.50626
303.03        74.67287
303.48        75.86764
303.94        77.18979
304.39        78.70808
304.84        80.43349
305.30        82.35287
305.75        84.20001
306.20        85.60607
306.66        86.54678
307.11          87.078
307.57        87.56653
308.02        88.40734
308.47        89.74313
308.93        91.44712
309.38        93.22318
309.83        94.67275
310.29        95.68502
310.74        96.34412
311.19         96.8765
311.65        97.62108
312.10        98.64211
312.55        99.85136
313.00        101.0052
313.46        101.7245
313.91        101.9157
314.36        101.7266
314.82        101.4995
315.27         101.683
315.72        102.4144
316.18        103.5487
316.63         104.796
317.08        105.6357
317.53        105.9209
317.99        105.7908
318.44        105.5572
318.89        105.7263
319.35        106.3928
319.80        107.4349
320.25        108.4823
320.70        108.9289
321.16        108.6434
321.61        107.8357
322.06        106.9209
322.51        106.5434
322.97        106.8284
323.42        107.6171
323.87         108.564
324.32        109.0799
324.78        108.9837
325.23        108.5159
325.68         107.911
326.13        107.5811
326.59        107.6295
327.04        107.9486
327.49        108.4291
327.94        108.9357
328.39        109.3927
328.85        109.8244
329.30        110.2327
329.75         110.415
330.20        110.3732
330.66        110.1543
331.11        109.9908
331.56        110.1807
332.01        110.8168
332.46        111.7928
332.92        112.9694
333.37        114.3021
333.82        115.5923
334.27        116.8523
334.72        117.8638
335.17        118.2874
335.63        118.0887
336.08        117.4276
336.53         116.665
336.98        116.4458
337.43        116.9391
337.88        117.9636
338.34        119.2671
338.79         120.517
339.24        121.5143
339.69        122.3795
340.14        123.0101
340.59        123.2358
341.05        123.0841
341.50        122.5809
341.95        122.0476
342.40        122.0024
342.85        122.5449
343.30        123.5429
343.75        124.6868
344.20        125.4081
344.66        125.5554
345.11        125.2874
345.56        124.8281
346.01        124.5204
346.46        124.4752
346.91        124.5762
347.36        124.7682
347.81        124.9786
348.26         125.172
348.72        125.3999
349.17        125.6062
349.62        125.7308
350.07        125.7512
350.52        125.6551
350.97        125.4884
351.42        125.3377
351.87        125.2185
352.32        125.1147
352.77        124.9541
353.22        124.6209
353.67        124.1064
354.13        123.4757
354.58        122.8153
355.03         122.322
355.48         122.029
355.93        121.8674
356.38        121.7188
356.83        121.3959
357.28        120.8442
357.73        120.1218
358.18         119.291
358.63        118.4517
359.08        117.6486
359.53        116.8637
359.98        116.0897
360.43        115.3158
360.88        114.5304
361.33        113.7296
361.78        112.9394
362.23        112.1969
362.68          111.51
363.13        110.8843
363.58        110.2296
364.03        109.3999
364.48        108.3819
364.93        107.2209
365.38        106.0887
365.83        105.2676
366.28        104.7995
366.73        104.5701
367.18        104.3827
367.63        103.9174
368.08        103.0998
368.53        102.0669
368.98        100.9196
369.43        99.79762
369.88         98.7692
370.33        97.79217
370.78          96.958
371.23        96.42644
371.68        96.20818
372.13        96.25403
372.58        96.38638
373.03        96.29073
373.48        95.88146
373.93        95.25033
374.38        94.51073
374.83        93.84531
375.28        93.31078
375.72        92.83055
376.17        92.42416
376.62        92.10644
377.07        91.85353
377.52        91.65169
377.97        91.41122
378.42         90.9819
378.87        90.34869
379.32        89.58468
379.77         88.7611
380.22         87.9743
380.67        87.25188
381.11         86.5625
381.56        85.94628
382.01        85.47605
382.46        85.16871
382.91        85.03147
383.36        84.93693
383.81        84.67634
384.26        84.21197
384.71        83.58369
385.15        82.96042
385.60        82.68162
386.05        82.73948
386.50        83.01538
386.95        83.24645
387.40        83.00103
387.85        82.24349
388.29         81.1576
388.74        80.12167
389.19        79.35127
389.64        78.88315
390.09        78.57266
390.54        78.44489
390.98        78.54263
391.43        78.82109
391.88        79.25961
392.33        79.59245
392.78        79.30546
393.23        78.37702
393.67        77.20261
394.12        76.31908
394.57        75.19538
395.02        75.41148
395.47        76.10021
395.91        76.62925
396.36        77.21513
396.81        77.44169
397.26        77.38906
397.71        77.11733
398.15        76.68624
398.60        76.24911
399.05        75.88581
399.50        75.54513
399.95        74.78185
400.39        74.05898
400.84        73.50163
401.29        73.27777
401.74        73.50497
402.18        73.99123
402.63        73.88483
403.08        73.35679
403.53        73.42556
403.97        74.11755
404.42        74.80328
404.87        75.18918
405.32        75.07648
405.76        74.39944
406.21         73.3186
406.66         72.1852
407.11        71.53146
407.55        71.49339
408.00         71.8443
408.45        72.38382
408.90        72.85706
409.34        73.00177
409.79         72.5311
410.24        71.69988
410.68        71.23875
411.13        71.24986
411.58        71.33923
412.03        71.47047
412.47        71.74657
412.92        72.07778
413.37        72.47079
413.81        72.78611
414.26        72.84783
414.71        72.61377
415.15        72.12488
415.60        71.56033
416.05          71.235
416.49        71.23237
416.94        71.48421
417.39        71.78418
417.83        71.75775
418.28        71.34632
418.73        70.69852
419.17        70.07841
419.62        69.90421
420.07         70.2136
420.51         70.8442
420.96        71.56731
421.41        71.92335
421.85        71.75853
422.30        71.54172
422.74        71.27023
423.19        70.54623
423.64         69.6329
424.08        69.69608
424.53        70.60464
424.98        71.05308
425.42        70.91351
425.87        71.11138
426.31        71.60011
426.76        71.49609
427.21        71.01926
427.65         71.2484
428.10        72.10584
428.54        72.89649
428.99         73.5772
429.44        73.85461
429.88        73.78078
430.33        74.82878
430.77        76.16851
431.22        74.63438
431.66         71.3331
432.11        69.57592
432.56        69.81939
433.00        70.79099
433.45        72.34275
433.89        74.32772
434.34        75.19309
434.78         77.1888
435.23        72.78034
435.67        69.92361
436.12        72.87915
436.57        74.29422
437.01        74.68813
437.46        75.12888
437.90        75.66183
438.35        74.35349
438.79        75.37191
439.24        75.13408
439.68        74.91597
440.13         74.5756
440.57        74.44074
441.02        75.34431
441.46        76.83968
441.91        77.70298
442.35        77.65889
442.80        76.65915
443.24        75.24313
443.69        75.90776
444.13        78.18092
444.58        78.26537
445.02        76.36514
445.47        76.01757
445.91        77.18021
446.36        77.47617
446.80        76.82424
447.24        76.91168
447.69        76.91508
448.13        77.16622
448.58        77.40398
449.02        77.69096
449.47        77.97516
449.91        78.20663
450.36        78.37195
450.80        78.45188
451.25        78.43124
451.69         78.2588
452.13        77.96724
452.58        77.58813
453.02        77.22977
453.47        77.10249
453.91        77.21245
454.36        77.50374
454.80        77.85244
455.24        77.86617
455.69        77.48055
456.13        77.13387
456.58        76.98939
457.02         76.0349
457.46        75.60522
457.91        75.97832
458.35        76.98265
458.79        77.43364
459.24        77.19888
459.68        76.91144
460.13        76.63154
460.57        76.28419
461.01        76.00196
461.46        75.45135
461.90        74.59512
462.34        75.35675
462.79        74.81683
463.23         74.8889
463.68        75.43845
464.12        75.77635
464.56        76.03492
465.01        76.14666
465.45        76.02232
465.89        75.90905
466.34        75.66309
466.78        74.53261
467.22        73.17014
467.67        72.22351
468.11        73.91404
468.55        74.65747
468.99        74.72696
469.44        74.33935
469.88        73.70771
470.32        73.54718
470.77        73.82671
471.21         73.7821
471.65        73.39517
472.10        73.31305
472.54         73.5158
472.98        73.63029
473.42        73.61777
473.87        73.70528
474.31        73.81184
474.75        73.61481
475.20        73.25397
475.64          73.169
476.08        73.49368
476.52        73.48228
476.97        73.15697
477.41        72.94825
477.85        72.97761
478.29        72.62382
478.74        73.24489
479.18        73.24928
479.62        72.22131
480.06        72.77599
480.50        73.08862
480.95        73.49725
481.39        73.59352
481.83        72.38673
482.27        72.88474
482.72        72.63943
483.16        71.55985
483.60        71.70837
484.04        73.26022
484.48        73.59506
484.93        73.34003
485.37        74.59386
485.81         75.4086
486.25        73.59187
486.69        101.7528
487.14        82.30097
487.58        50.86021
488.02        62.75912
488.46        70.49321
488.90        69.64301
489.34        71.46178
489.79        70.33655
490.23        72.68008
490.67         73.3129
491.11        71.95605
491.55        71.81508
491.99        72.44818
492.43        72.29139
492.88        71.42489
493.32        71.36877
493.76        71.62711
494.20        71.96391
494.64         72.1081
495.08        72.39522
495.52        72.80018
495.96        72.66965
496.41        72.05798
496.85        72.50732
497.29        73.59509
497.73        72.28316
498.17        69.66982
498.61        69.90717
499.05        72.91008
499.49        73.38847
499.93        72.93581
500.37        72.50141
500.82        72.03807
501.26        72.21579
501.70        72.72109
502.14        72.91959
502.58        72.67909
503.02        72.50613
503.46        72.40662
503.90        72.04522
504.34        71.53684
504.78        71.25794
505.22        71.26254
505.66        71.39632
506.10        71.60455
506.54         71.8298
506.98        71.92799
507.42        71.85513
507.86        71.70002
508.30        71.07665
508.74        71.61688
509.18        71.78839
509.62        71.95813
510.06        72.00677
510.50        71.91234
510.94        71.69419
511.38        71.44717
511.82        71.35709
512.26        71.46001
512.70        71.70352
513.14        71.98707
513.58        72.14475
514.02        72.12607
514.46        71.97685
514.90         71.7832
515.34        71.66453
515.78        71.64459
516.22         71.7462
516.66        71.89889
517.10        71.82796
517.54        71.50877
517.98        71.57407
518.42        71.28531
518.86        71.34978
519.30        71.53763
519.74        71.86375
520.18        72.22474
520.62        72.44898
521.06        72.49937
521.50        72.42564
521.93        72.27451
522.37        72.12157
522.81        72.00916
523.25        71.92017
523.69        71.88111
524.13        71.93372
524.57        72.07681
525.01        72.29716
525.45         72.5428
525.89        72.72455
526.32        72.80425
526.76          72.796
527.20        72.71931
527.64         72.6303
528.08        72.56596
528.52        72.45734
528.96         72.2737
529.40        72.17066
529.83        72.19184
530.27        71.57017
530.71         71.7635
531.15        71.69843
531.59        71.80555
532.03        72.01121
532.46        72.30293
532.90        72.62164
533.34        72.91323
533.78        73.19355
534.22        73.39224
534.66        73.39248
535.09        73.17311
535.53        72.89095
535.97          72.468
536.41        72.22923
536.85        72.17213
537.28        72.26282
537.72        72.40079
538.16        72.43406
538.60        72.32884
539.04        72.07943
539.47         71.7794
539.91         71.7702
540.35        72.00175
540.79        72.09978
541.22        72.01608
541.66        72.07641
542.10        72.08999
542.54        72.03143
542.97        71.90054
543.41         71.8925
543.85         72.0125
544.29        72.22281
544.72        72.39684
545.16        72.36517
545.60         72.0959
546.04        71.65482
546.47        71.22555
546.91        71.11574
547.35        71.38078
547.79        71.92339
548.22        72.48602
548.66        72.74238
549.10        72.55577
549.53        71.84388
549.97        70.94538
550.41        70.51252
550.84        70.66416
551.28        71.12516
551.72        71.68861
552.15         72.0683
552.59          72.161
553.03        72.05991
553.46        71.85908
553.90        71.77232
554.34        71.84464
554.77        71.92676
555.21        71.95658
555.65         72.0691
556.08        72.28022
556.52        71.69737
556.96        72.01528
557.39        71.85022
557.83        71.75996
558.27        71.76807
558.70        71.88567
559.14        72.06861
559.57        72.27547
560.01        72.45465
560.45        72.56606
560.88        72.75584
561.32        72.91879
561.75        72.55701
562.19        71.87311
562.63        71.39458
563.06        71.25199
563.50        71.46268
563.93        71.86617
564.37        72.09216
564.80        72.04647
565.24        71.93992
565.68        71.81155
566.11        71.70493
566.55        71.69803
566.98        71.65374
567.42        71.61462
567.85        71.89977
568.29        72.46361
568.72        72.54389
569.16        72.31408
569.60        72.94548
570.03        73.41034
570.47        73.39377
570.90        72.99698
571.34        71.40188
571.77        72.41084
572.21        72.34061
572.64        71.93556
573.08        71.03049
573.51        67.65697
573.95        70.62606
574.38        75.73022
574.82        73.73454
575.25        73.13938
575.69        70.53563
576.12        69.05502
576.56        68.30252
576.99        69.57807
577.42        73.29445
577.86        73.48525
578.29        72.51852
578.73        76.93555
579.16        70.72673
579.60        64.43797
580.03        67.16348
580.47        71.44897
580.90        73.56057
581.33        71.89277
581.77        71.32198
582.20        78.53137
582.64        78.32277
583.07        66.75633
583.51        65.31232
583.94        63.88667
584.37         66.7237
584.81        70.40121
585.24        74.19144
585.68         75.6257
586.11        74.88976
586.54        69.46452
586.98        67.23367
587.41        67.44356
587.85        71.39514
588.28        74.09926
588.71        70.35461
589.15        68.00046
589.58        69.58407
590.01        69.92052
590.45        70.65881
590.88        71.55257
591.31        70.84361
591.75        70.27537
592.18         70.2991
592.61        71.93329
593.05        72.00662
593.48        75.56319
593.91        76.47123
594.35        70.05405
594.78        68.57869
595.21        68.11359
595.65         71.1936
596.08        74.04628
596.51        70.97639
596.94        69.22338
597.38        69.81452
597.81        72.36076
598.24        74.25477
598.68         72.3519
599.11         71.2109
599.54        74.16161
599.97        75.93825
600.41        70.65441
600.84        70.88519
601.27        72.46581
601.70        71.12408
602.14        71.07832
602.57        70.02757
603.00        70.70699
603.43        72.65738
603.87        73.75092
604.30         73.4495
604.73        71.57701
605.16        69.84098
605.60        70.83981
606.03         71.9133
606.46        73.05302
606.89        72.76279
607.32         70.6987
607.76        70.06227
608.19        72.73874
608.62        71.72976
609.05        70.41507
609.48        70.85294
609.92        70.72102
610.35        70.26706
610.78        72.58677
611.21        73.25738
611.64        70.01752
612.07        70.73592
612.50        71.18703
612.94        71.62074
613.37        70.93139
613.80         71.3959
614.23        71.92525
614.66        71.55813
615.09        71.74408
615.52        71.69401
615.96        71.73011
616.39        71.80546
616.82        70.71657
617.25        70.42858
617.68        71.15237
618.11        71.76147
618.54        72.10807
618.97        71.58562
619.40        70.63832
619.84        70.41988
620.27        71.27546
620.70        72.13989
621.13        72.89406
621.56        71.60057
621.99        70.55697
622.42        71.21935
622.85        73.52266
623.28        73.00283
623.71        72.34026
624.14        72.06921
624.57        72.10339
625.00        71.18183
625.43         71.9407
625.86        71.33497
626.29        71.51639
626.72         72.1787
627.15        71.80967
627.58        72.00089
628.01        72.14941
628.44        72.11153
628.87        71.95208
629.30        72.16296
629.73        72.64671
630.16        72.75888
630.59        72.45173
631.02        72.08666
631.45        71.77403
631.88        71.49772
632.31        71.29077
632.74        71.35052
633.17         71.2936
633.60        71.33729
634.03        71.35499
634.46        71.37626
634.89        71.39737
635.32        71.41894
635.75        71.44426
636.18        71.45564
636.61        71.46661
637.04        71.50915
637.47        71.58388
637.89        71.68864
638.32        71.77001
638.75         71.7889
639.18        71.73511
639.61        71.63142
640.04        71.50089
640.47        71.37667
640.90        71.27536
641.33        71.19736
641.76        71.13988
642.18        71.15984
642.61        71.24612
643.04        71.37404
643.47        71.19411
643.90         71.7459
644.33        71.45233
644.76         71.5249
645.18        71.51913
645.61        71.45897
646.04        71.33868
646.47        71.14574
646.90        70.97445
647.33        70.93224
647.75        71.06378
648.18        71.36018
648.61        71.61976
649.04        71.61221
649.47         71.2703
649.89        70.36117
650.32          69.366
650.75        69.39243
651.18        70.36454
651.61        71.29533
652.03        71.77142
652.46        71.66434
652.89        71.33778
653.32        70.81958
653.74        70.43055
654.17        71.59505
654.60        71.79815
655.03        69.70918
655.46         70.2653
655.88        74.80724
656.31        80.14533
656.74        185.6911
657.16        121.3177
657.59        42.46444
658.02        31.32086
658.45        54.10774
658.87        68.77913
659.30        71.69284
659.73         71.0377
660.15        68.71352
660.58        71.06618
661.01        72.76606
661.44        70.36905
661.86        69.69609
662.29        69.87344
662.72        70.68008
663.14         71.8445
663.57        71.68328
664.00        70.50191
664.42        70.25723
664.85        71.02656
665.27        71.52208
665.70        71.51455
666.13        71.38283
666.55        71.10247
666.98        70.55429
667.41        69.94963
667.83        69.69687
668.26        69.88088
668.69        70.34429
669.11        70.83288
669.54        71.27597
669.96        70.91875
670.39          70.449
670.82        69.90004
671.24        69.61162
671.67        69.72935
672.09        70.23745
672.52        70.81921
672.94         71.3649
673.37         70.6324
673.80        70.36816
674.22        70.30241
674.65        70.18958
675.07        70.03555
675.50        69.85999
675.92        69.72995
676.35         69.7794
676.77        70.01275
677.20        70.32867
677.62         70.6602
678.05        70.84335
678.47        70.81866
678.90         70.8669
679.32        70.65066
679.75        70.48848
680.17        70.56351
680.60        70.64988
681.02        70.74773
681.45        70.65456
681.87        70.35699
682.30        70.11299
682.72        69.71868
683.15        69.67137
683.57        69.92345
684.00        70.31894
684.42        70.84903
684.85        71.11877
685.27        71.09967
685.70        70.88197
686.12        70.56678
686.54        70.36301
686.97        70.31551
687.39        70.37524
687.82        70.47645
688.24        70.56852
688.66        70.60408
689.09        70.60872
689.51        70.61406
689.94        70.63503
690.36        70.68668
690.78         70.7564
691.21        70.81108
691.63        70.80805
692.06        70.74749
692.48        70.65387
692.90        70.58883
693.33        70.63194
693.75        70.79351
694.17        71.04917
694.60         71.3279
695.02        71.48053
695.44        71.43417
695.87        71.43703
696.29        71.50861
696.71         71.1031
697.14        70.51093
697.56        71.01693
697.98        72.23394
698.41        72.57066
698.83        71.39573
699.25        70.83627
699.68        70.83293
700.10        70.73031
700.52         70.5605
700.94         70.7155
701.37        71.11484
701.79        71.48415
702.21        71.72478
702.64        71.91277
703.06        72.00199
703.48        71.91254
703.90        71.66138
704.33        71.27454
704.75        70.85036
705.17        70.64065
705.59        70.71364
706.01        70.89158
706.44        71.07629
706.86         71.7195
707.28         71.8138
707.70        72.11422
708.12        72.30619
708.55        72.35994
708.97        72.25463
709.39        72.00809
709.81         71.7263
710.23        71.58341
710.66        71.63066
711.08        71.85664
711.50        72.11759
711.92        72.19353
712.34        72.03631
712.76        71.70357
713.19         71.3661
713.61        71.30273
714.03        71.55257
714.45        72.07019
714.87        72.64493
715.29        72.68034
715.71        72.52535
716.13        71.96181
716.56        71.32639
716.98        70.97803
717.40        71.01453
717.82         71.3222
718.24        71.74763
718.66        72.04131
719.08        72.11971
719.50        72.06069
719.92        71.93011
720.34        71.85054
720.76        71.86369
721.19        71.80396
721.61        71.88337
722.03        71.95016
722.45        72.05578
722.87        72.19724
723.29        72.34943
723.71        72.45685
724.13        72.50266
724.55        72.50096
724.97        72.46509
725.39        72.42352
725.81        72.38855
726.23        72.35178
726.65         72.3269
727.07        72.33314
727.49        72.37527
727.91        72.45879
728.33        72.55157
728.75        72.59713
729.17        72.57995
729.59        72.50583
730.01        72.43688
730.43        72.46468
730.85        72.61123
731.27        72.87783
731.69        73.15556
732.10        73.24511
732.52        73.10698
732.94        72.84266
733.36        72.62993
733.78        72.61255
734.20        72.82904
734.62        73.54023
735.04        74.47776
735.46         74.4606
735.88        73.71753
736.30        73.94093
736.72        75.09926
737.13        75.51243
737.55        74.94599
737.97        74.88837
738.39        75.33012
738.81        74.50129
739.23        72.95774
739.65        73.88678
740.06        76.67744
740.48        77.05204
740.90        75.05392
741.32        73.97188
741.74         74.1714
742.16        74.25347
742.57         74.3137
742.99        75.13506
743.41        76.40131
743.83        77.14054
744.25        77.16733
744.67        76.73133
745.08        76.14214
745.50        75.90699
745.92        76.17928
746.34        76.77708
746.75        77.46613
747.17        77.86414
747.59        77.88585
748.01        77.65692
748.42        77.40256
748.84        77.45589
749.26        77.90178
749.68        78.60266
750.09        79.35031
750.51        79.80996
750.93        79.90319
751.35        79.67656
751.76        79.27953
752.18        79.13656
752.60        79.23334
753.01        79.14114
753.43        78.91994
753.85        79.00713
754.27        79.42449
754.68         80.1076
755.10        80.79959
755.52        81.17899
755.93        81.76529
756.35        81.99237
756.77        82.07629
757.18        82.15025
757.60        82.26466
758.02        82.35139
758.43        82.12056
758.85        82.41201
759.26        80.24544
759.68        80.48016
760.10        81.82459
760.51         82.2225
760.93        81.49038
761.34        80.04094
761.76        79.92307
762.18        79.57816
762.59        79.60836
763.01        79.88577
763.42        80.42154
763.84        81.02131
764.26        81.60323
764.67        82.03109
765.09        82.17595
765.50        82.10448
765.92        81.74758
766.33        80.46954
766.75        78.79997
767.16        78.28639
767.58        79.10118
768.00        80.48246
768.41        82.06958
768.83        83.54829
769.24        84.30264
769.66         83.4614
770.07        81.66283
770.49        80.28063
770.90        79.64389
771.32        80.55849
771.73        82.37731
772.15        81.75774
772.56        79.20428
772.97        78.81261
773.39        80.46391
773.80        81.02774
774.22        80.28322
774.63        80.17701
775.05        80.68059
775.46        80.91846
775.88        80.79594
776.29        80.56564
776.70        80.32156
777.12         80.2404
777.53        80.37559
777.95        80.61556
778.36        80.81268
778.77        80.71141
779.19        80.31647
779.60        79.72421
780.02        79.16608
780.43         79.1103
780.84        79.69569
781.26        80.24742
781.67        80.70362
782.09        82.09488
782.50        83.74533
782.91        82.75166
783.33        79.90936
783.74        78.92728
784.15        80.00391
784.57         80.8427
784.98        81.04488
785.39        80.97652
785.81        80.61762
786.22        80.07722
786.63        79.66142
787.04        79.63335
787.46        80.05738
787.87        80.95026
788.28        81.99436
788.70        82.53977
789.11        82.44292
789.52        81.92242
789.93        81.26313
790.35        80.85399
790.76        80.80907
791.17        81.05742
791.58        81.43764
792.00        81.61156
792.41        81.48019
792.82        81.23216
793.23         81.0806
793.65        80.79791
794.06        80.63977
794.47        81.86438
794.88        83.66262
795.29        83.24813
795.71        80.85355
796.12        78.62713
796.53        77.28284
796.94        76.95791
797.35        77.71268
797.76        79.02734
798.18        80.28903
798.59        81.15527
799.00        81.28202
799.41        80.42288
799.82         79.0629
800.23         78.2952
800.64        78.34298
801.06        78.79536
801.47        79.46934
801.88        79.95644
802.29        80.09775
802.70        80.05983
803.11        79.91488
803.52        79.74397
803.93        79.61131
804.34        79.45863
804.75        79.33965
805.17        79.43977
805.58        79.82037
805.99        80.15804
806.40         80.3493
806.81        80.89986
807.22         81.4253
807.63        80.43034
808.04        78.44698
808.45        77.63297
808.86        78.18382
809.27        79.03216
809.68        79.80253
810.09        80.25616
810.50        80.20574
810.91        79.76051
811.32        79.14167
811.73         78.7049
812.14        78.55746
812.55        78.54597
812.96        78.68962
813.37         79.0126
813.78        79.46631
814.19        80.09394
814.60        80.58289
815.01        80.44312
815.42        79.61849
815.83        78.20558
816.24        76.75188
816.65        76.22652
817.05        76.91133
817.46        78.50902
817.87        80.31808
818.28        81.08056
818.69        80.45935
819.10        78.78186
819.51        76.84512
819.92        75.99727
820.33        76.58498
820.74        78.18302
821.14        80.03416
821.55        80.80731
821.96        80.20273
822.37        78.69228
822.78        76.92818
823.19        75.86205
823.60        75.76366
824.00         76.3824
824.41        77.32946
824.82        78.06097
825.23        78.31951
825.64        78.29214
826.04        78.12486
826.45        78.01443
826.86        78.02357
827.27        78.04601
827.68        78.02334
828.08        77.92627
828.49        77.68646
828.90        77.39373
829.31        77.10932
829.72        76.91947
830.12        76.87937
830.53        76.93674
830.94        77.08848
831.35        77.30479
831.75        77.61271
832.16        77.96008
832.57        78.32922
832.97         78.6415
833.38        78.80642
833.79        78.82813
834.20        78.80052
834.60         78.8756
835.01         79.1031
835.42        79.43169
835.82        79.70358
836.23        79.56621
836.64        79.00545
837.04        78.16757
837.45        77.31949
837.86        76.88907
838.26        76.98726
838.67        77.44262
839.08        78.09503
839.48        78.63304
839.89        78.89153
840.29        78.97889
840.70        78.87376
841.11        78.52664
841.51        77.98596
841.92        77.24648
842.33        76.54017
842.73        76.27161
843.14        76.48954
843.54        77.12358
843.95        77.86553
844.35         78.2496
844.76        78.12598
845.17        77.64283
845.57        77.01149
845.98        76.57047
846.38        76.41599
846.79        76.41862
847.19        76.51022
847.60        76.49053
848.00        76.34604
848.41        76.13806
848.81        75.95221
849.22        75.82135
849.62        75.81405
850.03        75.91357
850.43        76.14864
850.84          76.485
851.24        76.93913
851.65        77.33063
852.05        77.79449
852.46        78.37714
852.86        79.06281
853.27        79.85033
853.67        80.26315
854.07          79.703
854.48        78.21215
854.88        76.00771
855.29        73.89791
855.69        73.04634
856.10        73.66949
856.50        75.63288
856.90        78.18748
857.31        79.60617
857.71        79.36845
858.12        77.92701
858.52        76.11658
858.92        75.02806
859.33        74.90062
859.73        75.44183
860.13        76.43119
860.54        77.39505
860.94        78.16767
861.34         78.8392
861.75        79.38647
862.15        79.87108
862.55        80.26471
862.96        80.48138
863.36        80.53144
863.76        80.43295
864.17        80.21938
864.57        79.98476
864.97         79.7916
865.38        79.70331
865.78        79.78366
866.18        79.94019
866.58        80.18748
866.99        80.52838
867.39        80.99544
867.79        81.61819
868.19        82.12643
868.60        82.01566
869.00        81.21814
869.40        79.88717
869.80        78.73504
870.21        78.87449
870.61        80.60419
871.01        83.55676
871.41        86.82783
871.81        88.86321
872.22        89.20417
872.62        88.28469
873.02         86.8542
873.42        86.23658
873.82        86.63162
874.22        87.39851
874.63        88.20074
875.03        88.45051
875.43        87.86077
875.83         87.4561
876.23        86.10452
876.63        85.71466
877.03        86.28993
877.44        88.09444
877.84        102.6192
878.24        94.99463
878.64        94.88755
879.04        93.98528
879.44        90.21426
879.84        88.31463
880.24        91.63368
880.64        93.68849
881.04        95.05714
881.44        95.70693
881.84        94.89522
882.24        93.00892
882.65        91.18586
883.05        90.59693
883.45        91.43814
883.85        93.59107
884.25        96.18934
884.65        97.47604
885.05        96.94685
885.45        95.22794
885.85        93.31304
886.25        92.56058
886.65        93.24194
887.05        94.87901
887.45        96.88821
887.85        98.23138
888.25        98.51025
888.65        98.08453
889.04        97.21087
889.44        96.32494
889.84        95.60503
890.24         94.9032
890.64        94.33696
891.04        94.11108
891.44        94.23209
891.84        94.70436
892.24        95.29153
892.64        95.50858
893.04        95.27647
893.44        94.79151
893.83        94.32236
894.23        94.29728
894.63        94.77815
895.03        95.54815
895.43        96.55939
895.83        97.70515
896.23        98.83368
896.63         99.9764
897.02        100.6909
897.42        100.2718
897.82        98.71747
898.22        96.33803
898.62        93.98778
899.01        92.91505
899.41        93.36725
899.81        94.88802
900.21        96.83025
900.61        98.12174
901.00        98.41533
901.40        98.05971
901.80        97.29321
902.20        96.48813
902.59        95.81916
902.99        95.14309
903.39        94.57377
903.79        94.33794
904.18        94.47565
904.58        95.00225
904.98         95.7241
905.38        96.30152
905.77        96.61043
906.17        96.70097
906.57        96.66785
906.96        96.72633
907.36         96.8585
907.76        97.00208
908.15         97.0323
908.55        96.64494
908.95        95.85951
909.34        94.78187
909.74        93.72484
910.14        92.97516
910.53        92.65482
910.93        92.73435
911.33        93.14497
911.72        93.76517
912.12        94.40057
912.52         94.9612
912.91        95.46032
913.31         95.9556
913.70        96.50556
914.10        97.11242
914.49        97.45512
914.89        96.76463
915.29        95.01238
915.68        92.56912
916.08        90.54977
916.47         89.9525
916.87        90.82117
917.26        92.82368
917.66        95.04134
918.05          95.959
918.45        95.17838
918.84        93.22404
919.24        91.03755
919.64        90.00178
920.03        90.49676
920.42        92.09196
920.82        94.17238
921.21        95.79549
921.61        96.42661
922.00        96.38841
922.40        95.87737
922.79        95.16019
923.19        94.41119
923.58        93.46605
923.98        92.31604
924.37        91.31855
924.77        90.84416
925.16        88.99208
925.55        89.58892
925.95        90.06374
926.34        91.52754
926.74         93.5093
927.13        95.54243
927.52        96.57781
927.92         96.4599
928.31        95.51633
928.70         94.0649
929.10        92.68685
929.49        91.56743
929.89        90.57605
930.28        90.03558
930.67        90.49184
931.07        91.85725
931.46        94.04887
931.85        96.16729
932.24        96.85051
932.64        95.84529
933.03        93.38609
933.42         90.2223
933.82        88.06261
934.21        87.43545
934.60        87.91353
934.99        88.74769
935.39        89.11818
935.78        88.89366
936.17        88.00516
936.56        86.36967
936.96        87.03208
937.35        86.22424
937.74         86.8672
938.13        87.59805
938.53        88.60134
938.92        89.91187
939.31        91.63605
939.70        93.36655
940.09        93.87946
940.49        92.82243
940.88        90.74185
941.27        88.51235
941.66        87.13976
942.05        86.77397
942.44        87.10065
942.84        87.90915
943.23         88.9246
943.62        89.87064
944.01        90.77956
944.40        91.46562
944.79         91.6489
945.18        91.25011
945.57        90.23796
945.97        88.68941
946.36        87.07079
946.75        85.85139
947.14        85.11226
947.53        84.85126
947.92        84.95598
948.31        85.35828
948.70        86.12004
949.09         87.1643
949.48        88.20072
949.87        88.99967
950.26        89.46887
950.65        89.70171
951.04        89.94537
951.43        90.25751
951.82        90.57626
952.21        90.62406
952.60        90.00043
952.99        88.68642
953.38        86.84624
953.77        85.05539
954.16          84.116
954.55        84.16582
954.94        85.05971
955.33        86.06844
955.72        85.94027
956.11        84.41165
956.50        81.82112
956.89        79.23855
957.28        78.64154
957.66        80.62276
958.05        84.27665
958.44        88.32811
958.83        90.89335
959.22        91.45618
959.61        90.52488
960.00        88.70979
960.39        87.01646
960.78        85.84195
961.16        84.94698
961.55        84.15028
961.94        83.21507
962.33        82.14799
962.72        81.19798
963.11        80.60438
963.49        80.59892
963.88        81.16725
964.27        82.21104
964.66        83.40732
965.04        84.09048
965.43        83.90807
965.82        83.13088
966.21        82.14484
966.60        81.46564
966.98        81.21639
967.37        81.16504
967.76        81.27007
968.15        81.43443
968.53        81.56514
968.92        81.66671
969.31        81.60006
969.69        81.09704
970.08        80.16602
970.47        78.92402
970.86        77.57115
971.24        76.50528
971.63        75.90542
972.02        75.69183
972.40        75.95933
972.79        76.79424
973.17        78.23695
973.56        80.15869
973.95        82.11123
974.33        83.19366
974.72        83.05258
975.11        81.87992
975.49        80.42006
975.88        79.80357
976.26        80.19265
976.65        81.37551
977.04        82.60626
977.42        82.11298
977.81        79.44384
978.19        75.49308
978.58        72.09295
978.96        70.98552
979.35        72.41778
979.74         76.0207
980.12        81.13527
980.51        85.02636
980.89        86.63816
981.28        86.40927
981.66        85.20776
982.05        84.25466
982.43        83.84057
982.82        83.61806
983.20        83.54128
983.59        83.63696
983.97        83.93784
984.35        84.50192
984.74        85.09145
985.12        85.49006
985.51        85.36325
985.89        84.74793
986.28        83.65649
986.66         81.9554
987.04         80.0405
987.43        78.19702
987.81        76.63219
988.20        75.47293
988.58        74.60972
988.96        73.81888
989.35         73.3898
989.73        74.34919
990.12        76.73435
990.50        79.95566
990.88        82.21052
991.27        82.37355
991.65        80.87244
992.03        78.00307
992.42        74.97179
992.80        73.80302
993.18        75.08561
993.56        77.57484
993.95        80.19855
994.33        82.20074
994.71        83.29186
995.10        84.03204
995.48         84.1367
995.86        82.96043
996.24        80.40637
996.63        76.23084
997.01        71.61859
997.39        70.09382
997.77        73.07134
998.15         79.6779
998.54        86.43813
998.92        88.63482
999.30        84.94756
999.68        76.61388
1000.06        65.93864
1000.45        58.57383
1000.83        56.84649
1001.21         58.8577
1001.59        62.85179
1001.97        67.09503
1002.35        71.17621
1002.73        76.20998
1003.12        81.05907
1003.50        81.85898
1003.88        77.08559
1004.26        68.71593
1004.64        60.64556
1005.02        56.10224
1005.40        55.17565
1005.78         57.3837
1006.16        63.79661
1006.54        72.72427
1006.92        79.15388
1007.30        82.31654
1007.69        83.26177
1008.07        83.51192
1008.45        83.53757
1008.83        82.45376
1009.21        78.37581
1009.59        65.79948
1009.97        34.18614
1010.35       -3.571552
1010.73        7.109051
1011.11        29.39936
1011.49        43.54562
1011.86        54.29447
1012.24         60.7291
1012.62        64.46249
1013.00        67.06479
1013.38        69.09711
1013.76        72.55286
1014.14        82.04552
1014.52        100.5706
1014.90        128.7932
1015.28        159.4224
1015.66        174.7898
1016.04         163.897
1016.41        128.8327
1016.79        87.71469
1017.17        61.35707
1017.55        51.66981
1017.93        50.23973
1018.31        52.22454
1018.69        55.13374
1019.06        58.70138
1019.44        63.66117
1019.82        71.58949
1020.20        83.22872
1020.58        99.20152
1020.95        122.2804
1021.33        158.1917
1021.71        -260.661
1022.09        82.38743
1022.46        104.7648
1022.84        113.5308
1023.22        119.2542
1023.60        127.1226
1023.97         184.507
1024.35        92.72195
1024.73        107.4602
