SpectraSmart Spectrum 2.9.0.0
--------- Device Information -----------
Spectrum Name :  反射率_0
Saving Time :  2024/04/26 01:25:19
Spectro-Module Model Name : SE2030-DUVN
Spectro-Module Serial Number : OS361AC55029948
Wavelength Start : 200
Wavelength End : 1025
Wavelength Unit : Wavelength(nm)
Spectrum Unit : Reflectance(%)
-----------Spectrum Setting ------------
Integration Time : 20ms
Average : 10
Boxcar : 0
Background removal :  enabled
linearity correction :  enabled
SC :  disabled
Intensity correction :  disabled
DWT denoise :  enabled
savitzky-golay :  disabled
FFT :  disabled
Running average :  disabled
Kalman :  disabled
High pass :  disabled
---------------BEGIN--------------------
Wavelength(nm)             Reflectance(%)
200.29               0
200.75         91.2324
201.21        86.76791
201.67        81.18514
202.13         77.8961
202.58        77.31504
203.04        78.83038
203.50        80.60658
203.96        79.75676
204.42        76.18962
204.88        71.48923
205.34        67.42956
205.80        65.50509
206.26        66.02029
206.72        69.75946
207.18        78.78944
207.64         88.5824
208.10        86.05938
208.55        76.51427
209.01        70.05585
209.47        68.32357
209.93        69.55315
210.39        72.86948
210.85        76.10431
211.31        74.83913
211.77        68.12727
212.23        57.79619
212.69        48.40597
213.14        46.90373
213.60        54.22075
214.06        68.44881
214.52        84.11803
214.98        92.76287
215.44        92.38786
215.90        85.70238
216.36        76.96053
216.81         72.1523
217.27        72.64654
217.73        76.13762
218.19        79.49196
218.65        78.65206
219.11        72.24474
219.57        59.87733
220.02        43.25208
220.48        32.49047
220.94        33.85424
221.40        44.76592
221.86        56.22551
222.32        58.69796
222.77        52.76755
223.23        43.37083
223.69         35.1539
224.15        32.76655
224.61        35.74957
225.06        41.77653
225.52        47.59138
225.98        49.20954
226.44        46.03925
226.90        39.96421
227.36        33.47809
227.81        29.87123
228.27         30.1049
228.73        32.80532
229.19        36.57143
229.65        39.35151
230.10        40.52485
230.56        40.75573
231.02        40.62143
231.48        40.72739
231.93        41.17194
232.39        41.73193
232.85        42.10489
233.31        41.91879
233.77        41.11236
234.22        39.81552
234.68        38.50542
235.14        37.99338
235.60        38.54283
236.05        39.95559
236.51        41.62592
236.97        42.66747
237.43        42.93145
237.88          42.664
238.34        42.38149
238.80        43.49457
239.26        46.54397
239.71        51.10032
240.17        55.99549
240.63        59.71452
241.08        61.79786
241.54        62.57401
242.00        62.65477
242.46        63.00031
242.91        64.42084
243.37        67.52892
243.83        78.41125
244.28        122.7788
244.74        190.0822
245.20        174.4313
245.66        149.9151
246.11        143.2661
246.57        148.5604
247.03        170.1158
247.48        228.2772
247.94        176.9619
248.40        109.3773
248.85        91.12342
249.31        86.59892
249.77        86.68273
250.22        89.31901
250.68        94.85622
251.14        102.7479
251.59        106.5675
252.05        101.0562
252.51        89.76385
252.96        78.80039
253.42        73.79819
253.88        74.03609
254.33        77.22027
254.79        82.49254
255.25        87.99986
255.70        92.36716
256.16        95.98949
256.62        97.58028
257.07        95.77039
257.53        91.55038
257.99        85.48062
258.44        79.20277
258.90        75.63358
259.35        74.02247
259.81        73.48962
260.27        72.37585
260.72        69.05846
261.18        64.21633
261.63         58.4905
262.09        53.31048
262.55        49.65619
263.00        47.47612
263.46        46.35206
263.91        45.45389
264.37        44.16769
264.83        42.29808
265.28        39.96531
265.74        37.72172
266.19        36.17105
266.65        35.52519
267.11        35.43895
267.56        35.36688
268.02        34.64156
268.47        33.14462
268.93        31.10738
269.38        28.92246
269.84         27.5077
270.30        27.10895
270.75        27.46129
271.21        28.06294
271.66         28.1615
272.12        27.55903
272.57         26.4996
273.03        25.35667
273.48        24.61203
273.94        24.40097
274.39        24.49951
274.85        24.66157
275.31        24.53761
275.76        24.04021
276.22        23.32792
276.67         22.5518
277.13        22.00293
277.58         21.6955
278.04        21.54991
278.49        21.40268
278.95        21.07535
279.40        20.51848
279.86        19.86411
280.31          19.189
280.77        18.70001
281.22         18.4106
281.68        18.27634
282.13        18.24297
282.59        18.25867
283.04        18.29394
283.50        18.38491
283.95        18.48324
284.41        18.52542
284.86        18.49614
285.32        18.41245
285.77        18.35337
286.22        18.49921
286.68        18.84692
287.13        19.31389
287.59        19.73627
288.04        19.86981
288.50        19.69598
288.95        19.28947
289.41        18.82791
289.86        18.47752
290.32        18.34418
290.77        18.37202
291.22        18.54506
291.68        18.79807
292.13        19.12051
292.59        19.54247
293.04        20.09579
293.50         20.8222
293.95        21.70503
294.40        22.69151
294.86        23.71188
295.31        24.67722
295.77        25.57973
296.22        26.46175
296.68        27.35808
297.13        28.29143
297.58        29.29476
298.04        30.37074
298.49        31.57991
298.95        33.06419
299.40         34.8224
299.85        36.80228
300.31        38.84237
300.76        40.68193
301.21        42.22742
301.67        43.57166
302.12        44.78061
302.58        46.05371
303.03        47.42442
303.48        48.86499
303.94        50.41093
304.39        52.05899
304.84        53.80405
305.30        55.63819
305.75        57.43909
306.20        59.03816
306.66        60.41709
307.11         61.5756
307.57        62.64152
308.02        63.70132
308.47        64.84303
308.93        66.04926
309.38        67.28429
309.83        68.53912
310.29        69.78377
310.74        70.98306
311.19        72.12864
311.65        73.20711
312.10        74.20127
312.55        75.12604
313.00        75.91263
313.46        76.46039
313.91        76.75369
314.36        76.84976
314.82        76.93364
315.27        77.24271
315.72        77.85925
316.18        78.71453
316.63        79.66185
317.08        80.41124
317.53        80.86936
317.99        81.09712
318.44        81.24326
318.89        81.55945
319.35        82.08711
319.80        82.77535
320.25        83.41783
320.70        83.68208
321.16        83.50832
321.61        83.01641
322.06        82.47314
322.51        82.29286
322.97         82.5489
323.42        83.14841
323.87        83.84859
324.32        84.23244
324.78        84.17211
325.23        83.83052
325.68        83.38071
326.13         83.1319
326.59        83.15987
327.04        83.39579
327.49        83.74678
327.94        84.08694
328.39        84.36493
328.85        84.61406
329.30        84.87712
329.75        85.07143
330.20        85.20452
330.66        85.26407
331.11        85.39258
331.56        85.75545
332.01        86.39625
332.46        87.25803
332.92        88.17749
333.37         89.0239
333.82        89.64371
334.27        90.07075
334.72        90.31838
335.17         90.4344
335.63        90.46131
336.08        90.43776
336.53        90.41353
336.98         90.5078
337.43        90.75546
337.88         91.1289
338.34        91.60483
338.79        92.22414
339.24        92.92577
339.69        93.70975
340.14        94.41769
340.59        94.77985
341.05        94.75406
341.50        94.41516
341.95        94.01712
342.40        93.95866
342.85        94.32417
343.30        94.99836
343.75        95.76732
344.20        96.25021
344.66        96.34239
345.11        96.14996
345.56        95.82064
346.01        95.57246
346.46        95.48122
346.91        95.48119
347.36        95.53627
347.81        95.59772
348.26        95.65253
348.72        95.74918
349.17        95.86795
349.62        96.02063
350.07         96.1932
350.52        96.34671
350.97        96.47076
351.42        96.56467
351.87        96.61549
352.32         96.6237
352.77        96.53271
353.22        96.25468
353.67        95.79684
354.13        95.22151
354.58        94.62269
355.03        94.20223
355.48        93.99835
355.93        93.94116
356.38        93.93196
356.83        93.81023
357.28        93.51527
357.73        93.08862
358.18         92.5373
358.63        91.87516
359.08        91.13407
359.53        90.32877
359.98        89.51407
360.43         88.7762
360.88        88.13621
361.33        87.57058
361.78        87.07623
362.23        86.63857
362.68        86.24097
363.13         85.8912
363.58        85.51418
364.03        84.99014
364.48        84.30431
364.93        83.48775
365.38        82.66375
365.83        82.03424
366.28        81.62526
366.73        81.39528
367.18        81.23523
367.63         80.8456
368.08        80.15556
368.53        79.73305
368.98        78.80292
369.43        78.08553
369.88        77.37208
370.33         76.6546
370.78        76.00688
371.23        75.57592
371.68        75.38489
372.13        75.38775
372.58        75.43391
373.03        75.25819
373.48        74.80327
373.93        74.16099
374.38         73.4725
374.83        72.95631
375.28        72.66291
375.72        72.49525
376.17        72.41552
376.62        72.33634
377.07        72.20773
377.52        72.05042
377.97        71.80688
378.42        71.38421
378.87        70.79469
379.32        70.09254
379.77        69.37885
380.22         68.7979
380.67        68.37296
381.11        68.05324
381.56        67.80537
382.01        67.57507
382.46         67.3429
382.91        67.14763
383.36        66.92171
383.81        66.55991
384.26        66.06002
384.71        65.43816
385.15         64.8453
385.60        64.57106
386.05        64.60806
386.50        64.86191
386.95        65.08864
387.40        64.88055
387.85        64.20009
388.29        63.22119
388.74         62.2802
389.19        61.60474
389.64        61.23088
390.09        61.02523
390.54        60.98384
390.98        61.10077
391.43        61.33275
391.88         61.6708
392.33        61.89938
392.78        61.69056
393.23        61.05349
393.67        60.10984
394.12        59.24553
394.57        58.79701
395.02        58.84681
395.47         59.3082
395.91        60.00876
396.36        60.49799
396.81        60.63715
397.26        60.53236
397.71        60.25959
398.15        59.84652
398.60        59.41581
399.05        59.04511
399.50        58.71566
399.95        58.06324
400.39        57.44049
400.84        57.08218
401.29        57.07692
401.74        57.10646
402.18        57.14984
402.63        57.30131
403.08        57.54603
403.53        57.80011
403.97        58.02547
404.42        58.19225
404.87        58.23472
405.32         58.0441
405.76        57.61191
406.21        57.10975
406.66        56.64957
407.11        56.21217
407.55        55.94866
408.00        56.22361
408.45        56.88151
408.90        57.22627
409.34        57.07756
409.79        56.61783
410.24        56.06701
410.68        55.79086
411.13        55.86818
411.58        56.09398
412.03         56.3945
412.47        56.72131
412.92        56.97527
413.37        57.18863
413.81         57.3105
414.26        57.30209
414.71        57.15323
415.15        56.86903
415.60        56.53797
416.05        56.32793
416.49        56.28827
416.94        56.39779
417.39        56.54467
417.83        56.52283
418.28        56.29807
418.73        55.93033
419.17        55.59253
419.62        55.56529
420.07         55.8742
420.51          56.428
420.96        56.99771
421.41        57.20044
421.85        56.94087
422.30        56.43705
422.74        55.87291
423.19        55.58879
423.64        55.63002
424.08        55.96292
424.53        56.45527
424.98        56.86778
425.42        57.11872
425.87        57.38444
426.31        57.65202
426.76        57.61748
427.21        57.43714
427.65        57.68223
428.10        58.30458
428.54        58.92223
428.99        59.50185
429.44        59.82257
429.88         59.8807
430.33        60.60121
430.77        61.40435
431.22        60.30281
431.66        57.88465
432.11        56.67566
432.56        56.94298
433.00        57.84848
433.45        59.14165
433.89        60.65741
434.34        61.23804
434.78        62.44151
435.23        58.75056
435.67        57.91531
436.12        59.64864
436.57        60.76775
437.01        61.25674
437.46        61.50793
437.90         61.6506
438.35        61.56968
438.79        61.85393
439.24        61.86543
439.68        61.81588
440.13        61.57361
440.57        61.41505
441.02        62.29906
441.46        63.81652
441.91        64.42603
442.35        64.02252
442.80        63.21831
443.24        62.38569
443.69        62.98754
444.13        64.62831
444.58        64.60954
445.02         63.1229
445.47        62.83095
445.91        63.70768
446.36        64.00784
446.80        63.68898
447.24        63.68126
447.69        64.00782
448.13        64.30304
448.58        64.55556
449.02        64.82025
449.47        65.07573
449.91        65.29922
450.36        65.48159
450.80        65.60142
451.25         65.6487
451.69        65.58659
452.13          65.438
452.58        65.22621
453.02         65.0172
453.47        64.94624
453.91         65.0208
454.36        65.20652
454.80        65.41972
455.24        65.44363
455.69        65.25369
456.13        65.02386
456.58        64.85402
457.02        64.50567
457.46        64.17775
457.91        64.46079
458.35        65.15843
458.79        65.44218
459.24         65.2635
459.68        65.01782
460.13        64.77245
460.57        64.46545
461.01        64.18464
461.46        63.77644
461.90        63.24551
462.34        63.64249
462.79        63.25444
463.23        63.66515
463.68        64.19696
464.12        64.56046
464.56        64.67174
465.01        64.54393
465.45        64.18758
465.89        64.27389
466.34        64.58406
466.78        63.58894
467.22        61.83738
467.67        61.61607
468.11        62.87593
468.55        63.70138
468.99        63.73222
469.44         63.4614
469.88        63.06423
470.32        63.07453
470.77        63.44193
471.21        63.44157
471.65        63.04538
472.10        62.83363
472.54        62.85996
472.98        62.89481
473.42        62.92353
473.87        63.17858
474.31        63.50544
474.75        63.33537
475.20        62.80909
475.64        62.75178
476.08        63.16412
476.52        63.20668
476.97        62.82067
477.41        63.06712
477.85         63.2038
478.29        62.91809
478.74         63.3459
479.18        63.54587
479.62          62.481
480.06        63.02442
480.50        63.37589
480.95        63.89377
481.39        64.16061
481.83        63.13103
482.27        63.42017
482.72         63.2761
483.16        61.92258
483.60         62.1489
484.04        63.50952
484.48        63.89108
484.93        63.63198
485.37        65.16846
485.81        65.62232
486.25        64.29047
486.69        87.28518
487.14        70.97709
487.58        44.27948
488.02        54.39624
488.46        62.02349
488.90        61.07594
489.34        62.74327
489.79         62.6238
490.23         63.9777
490.67        64.68092
491.11         63.6779
491.55        63.72217
491.99        64.36725
492.43        64.28617
492.88        63.56607
493.32        63.51434
493.76        63.69191
494.20        63.92688
494.64        64.00003
495.08        64.12222
495.52        64.33092
495.96        64.36076
496.41        64.18277
496.85          64.609
497.29        65.38519
497.73        64.28452
498.17        62.26662
498.61        62.61454
499.05        65.24345
499.49        65.59393
499.93        65.14679
500.37        64.86932
500.82        64.68378
501.26        64.84245
501.70        65.26649
502.14        65.43285
502.58        65.27759
503.02        65.12029
503.46        64.96663
503.90        64.56428
504.34        64.07304
504.78        63.89172
505.22        64.07636
505.66        64.50993
506.10        65.01063
506.54         65.2728
506.98        65.20816
507.42         64.9201
507.86        64.55766
508.30        64.38802
508.74        64.47137
509.18        64.72939
509.62        65.03544
510.06        65.18817
510.50        65.13745
510.94        64.95716
511.38        64.76043
511.82        64.71638
512.26        64.86259
512.70        65.13164
513.14        65.42616
513.58        65.59396
514.02        65.58561
514.46         65.4502
514.90        65.25137
515.34        65.06792
515.78        64.92281
516.22        64.87047
516.66        64.89928
517.10        64.78923
517.54        64.53088
517.98        64.86116
518.42        64.77464
518.86          65.009
519.30        65.24748
519.74        65.55439
520.18        65.84792
520.62        65.99036
521.06        65.96627
521.50        65.81375
521.93        65.60078
522.37        65.43763
522.81        65.36861
523.25        65.37152
523.69        65.42935
524.13        65.51087
524.57        65.60159
525.01         65.7104
525.45        65.82839
525.89        65.93852
526.32        66.02269
526.76        66.07122
527.20        66.07397
527.64        66.03931
528.08        65.98675
528.52        65.86643
528.96        65.66106
529.40        65.52814
529.83        65.51281
530.27        64.91254
530.71        65.04714
531.15        64.93906
531.59        64.98074
532.03        65.11385
532.46        65.33097
532.90        65.58646
533.34          65.835
533.78        66.07692
534.22        66.25477
534.66        66.29487
535.09        66.18051
535.53        65.95875
535.97        65.68573
536.41        65.47419
536.85        65.36244
537.28        65.32948
537.72        65.34372
538.16        65.36026
538.60        65.36317
539.04         65.3184
539.47        65.23875
539.91        65.31637
540.35        65.48203
540.79        65.45054
541.22        65.25111
541.66        65.19579
542.10        65.29219
542.54        65.36524
542.97        65.40364
543.41        65.49094
543.85        65.61192
544.29         65.7641
544.72        65.88167
545.16        65.87521
545.60         65.7215
546.04         65.4866
546.47        65.29102
546.91         65.2234
547.35        65.35992
547.79        65.93186
548.22        66.64836
548.66        66.77894
549.10        66.26691
549.53        65.51228
549.97        64.83409
550.41        64.49292
550.84        64.58255
551.28        65.07591
551.72        65.77639
552.15        66.11739
552.59        66.20231
553.03        66.18782
553.46        65.80977
553.90        65.66753
554.34        65.72243
554.77        65.78205
555.21        65.79836
555.65        65.91532
556.08        66.14962
556.52        65.68123
556.96        66.04485
557.39        65.93373
557.83        65.85424
558.27        65.85727
558.70        65.96457
559.14        66.11259
559.57         66.2662
560.01        66.45152
560.45        66.60563
560.88        66.69115
561.32        66.67604
561.75        66.38437
562.19         65.9722
562.63         65.6765
563.06        65.58341
563.50        65.78551
563.93        66.15397
564.37        66.36668
564.80        66.34894
565.24        66.29627
565.68        66.23582
566.11        66.14992
566.55        66.09895
566.98         66.0686
567.42        66.07948
567.85        66.15802
568.29        66.34512
568.72        66.44969
569.16        66.60071
569.60        67.04826
570.03        67.43581
570.47        67.36632
570.90        67.17811
571.34        65.49162
571.77         66.1484
572.21        66.72176
572.64        65.95066
573.08        64.94883
573.51        62.29459
573.95        64.79493
574.38        69.03503
574.82        66.72404
575.25        66.23558
575.69        64.30681
576.12        63.30546
576.56        62.57809
576.99        64.14324
577.42        67.01678
577.86        66.96821
578.29        66.28001
578.73        69.71123
579.16        64.46792
579.60        58.75465
580.03        61.41536
580.47        65.39319
580.90        66.61932
581.33        65.49223
581.77        64.47274
582.20         71.2533
582.64        70.96175
583.07        60.61292
583.51        59.36108
583.94        58.18525
584.37        61.09139
584.81        63.95572
585.24        67.42057
585.68        69.04615
586.11        67.82471
586.54        63.07078
586.98        61.10605
587.41        61.90487
587.85        65.13973
588.28        67.25881
588.71        64.27385
589.15        62.04754
589.58        63.25879
590.01        63.91058
590.45        64.41562
590.88        65.34478
591.31        64.68723
591.75        64.37857
592.18        64.44046
592.61        65.84355
593.05        65.92179
593.48        69.15755
593.91        69.89436
594.35         64.1753
594.78        62.81628
595.21        62.35429
595.65        65.19194
596.08        67.82853
596.51        65.24237
596.94        63.27817
597.38        63.86438
597.81        66.44624
598.24        68.13046
598.68        66.89381
599.11        65.46921
599.54        68.39005
599.97         69.6209
600.41        64.65213
600.84        64.80331
601.27        66.40743
601.70        65.29305
602.14        65.68159
602.57        64.74371
603.00        65.15508
603.43        66.78419
603.87        68.07029
604.30         67.6851
604.73         65.8008
605.16        64.59854
605.60        65.34129
606.03        66.50902
606.46        67.77544
606.89        67.26849
607.32        65.19809
607.76        65.29947
608.19        67.35798
608.62        66.62452
609.05        65.57349
609.48        66.04575
609.92        65.83607
610.35        65.50758
610.78        67.63884
611.21        68.12719
611.64        65.15106
612.07        65.74899
612.50        66.06219
612.94        66.46744
613.37        65.99507
613.80        66.02011
614.23        66.58293
614.66        66.55137
615.09        66.86148
615.52        66.93957
615.96        66.89666
616.39        66.98659
616.82        66.06936
617.25        65.80486
617.68        66.41845
618.11        66.92597
618.54         67.2309
618.97        66.82683
619.40         66.0842
619.84        65.88937
620.27        66.85336
620.70        67.47017
621.13        67.76851
621.56        67.00169
621.99        66.25227
622.42         66.9828
622.85        68.87379
623.28        68.72331
623.71        67.95864
624.14        67.66904
624.57        67.61922
625.00        67.14829
625.43        67.51038
625.86        66.98291
626.29        67.22035
626.72        67.76884
627.15        67.45602
627.58        67.54636
628.01        67.58674
628.44        67.62852
628.87        67.69917
629.30         67.8426
629.73        68.05061
630.16        68.25047
630.59        67.82424
631.02        67.45812
631.45        67.10987
631.88        66.86803
632.31        66.75462
632.74        67.09854
633.17        67.17612
633.60        67.32511
634.03        67.30785
634.46         67.1945
634.89        67.03233
635.32        66.91309
635.75        66.87304
636.18        66.86733
636.61        66.88997
637.04        66.93836
637.47        67.00076
637.89        67.09081
638.32        67.15395
638.75        67.14191
639.18        67.04424
639.61        66.87817
640.04        66.68414
640.47        66.52813
640.90        66.43433
641.33        66.38546
641.76        66.34414
642.18        66.34271
642.61        66.36967
643.04         66.2681
643.47        66.02051
643.90        66.45411
644.33        66.20306
644.76        66.36646
645.18        66.48563
645.61        66.50044
646.04        66.38075
646.47        66.13854
646.90        65.91379
647.33        65.88319
647.75        66.10155
648.18        66.55646
648.61        66.99639
649.04        67.03822
649.47        66.63393
649.89        65.75545
650.32        64.85976
650.75        64.88498
651.18        65.78012
651.61          66.607
652.03        66.95902
652.46        67.00244
652.89        67.02968
653.32        66.24639
653.74        65.06064
654.17        66.73156
654.60         67.3685
655.03        65.18092
655.46        66.00449
655.88        69.92446
656.31        74.24385
656.74         166.456
657.16        108.3322
657.59        38.02107
658.02        28.74815
658.45         50.1101
658.87        64.29104
659.30        67.68918
659.73        66.78367
660.15         63.9957
660.58        66.51804
661.01        68.12598
661.44        66.02276
661.86        65.34182
662.29        65.34864
662.72        66.18528
663.14        67.57835
663.57        67.62011
664.00        66.53905
664.42        66.33231
664.85         67.0714
665.27        67.46997
665.70        67.34066
666.13        67.11849
666.55        66.79762
666.98        66.25315
667.41        65.67798
667.83         65.4371
668.26        65.60538
668.69        66.04853
669.11        66.51075
669.54        66.90459
669.96        66.52355
670.39        65.97958
670.82        65.34327
671.24        65.09773
671.67        65.36129
672.09         65.8345
672.52        66.38242
672.94        66.90858
673.37        66.29627
673.80        66.08582
674.22         66.0423
674.65        66.00763
675.07        65.98666
675.50        65.96988
675.92        65.97861
676.35        66.07936
676.77        66.26579
677.20        66.45459
677.62        66.61893
678.05        66.69086
678.47        66.64217
678.90        66.61901
679.32        66.46056
679.75        66.28844
680.17        66.32343
680.60        66.34745
681.02        66.37331
681.45        66.27686
681.87        66.05563
682.30        65.74028
682.72        65.45282
683.15        65.40871
683.57        65.65588
684.00        66.02148
684.42        66.52314
684.85        66.76097
685.27        66.71548
685.70        66.47527
686.12        66.15331
686.54        65.97208
686.97        65.97752
687.39         66.1181
687.82        66.30721
688.24        66.45352
688.66        66.50179
689.09        66.48772
689.51        66.46758
689.94         66.5019
690.36        66.61185
690.78        66.76263
691.21        66.89754
691.63        66.93681
692.06        66.86841
692.48        66.73352
692.90        66.59291
693.33        66.52424
693.75        66.55053
694.17        66.65282
694.60        66.79895
695.02        66.91469
695.44        66.94154
695.87        67.06792
696.29        67.28941
696.71        67.05017
697.14        66.54648
697.56        66.98496
697.98        68.10354
698.41         67.9332
698.83         67.1718
699.25        66.67971
699.68         66.7404
700.10        66.69814
700.52         66.5733
700.94        66.72501
701.37        67.07905
701.79        67.41371
702.21        67.64085
702.64        67.82714
703.06        67.91124
703.48        67.78989
703.90        67.47681
704.33        67.00668
704.75         66.5106
705.17        66.28506
705.59        66.40424
706.01        66.68339
706.44        66.97373
706.86        67.60769
707.28        67.61401
707.70        67.73439
708.12        67.73495
708.55        67.67931
708.97        67.57017
709.39        67.40118
709.81        67.22499
710.23        67.12463
710.66        67.12711
711.08        67.24761
711.50        67.40341
711.92        67.46989
712.34        67.41759
712.76        67.26617
713.19        67.11262
713.61        67.14273
714.03         67.3741
714.45        67.74751
714.87        68.09719
715.29        68.16301
715.71        67.89877
716.13        67.39571
716.56        66.83878
716.98        66.55388
717.40        66.61838
717.82        66.93661
718.24        67.35946
718.66        67.62935
719.08         67.6668
719.50        67.55127
719.92        67.35585
720.34        67.21635
720.76          67.179
721.19        67.08284
721.61        67.13363
722.03        67.19967
722.45        67.32906
722.87        67.52084
723.29        67.72394
723.71        67.84031
724.13        67.84517
724.55        67.75968
724.97        67.64216
725.39        67.59599
725.81        67.64555
726.23        67.75762
726.65          67.883
727.07        67.94138
727.49        67.91666
727.91        67.84708
728.33        67.76314
728.75        67.71333
729.17        67.71521
729.59        67.74443
730.01        67.81608
730.43        67.94817
730.85        68.13571
731.27        68.39298
731.69        68.63903
732.10        68.72039
732.52        68.60819
732.94        68.38632
733.36        68.18624
733.78        68.09322
734.20        68.13776
734.62        68.57954
735.04        69.23754
735.46        69.12598
735.88        68.48958
736.30        68.87469
736.72        70.16433
737.13        70.68882
737.55        70.19816
737.97        69.93232
738.39         70.0145
738.81        69.45734
739.23         68.6132
739.65        69.37844
740.06        71.27621
740.48        71.41175
740.90        69.88731
741.32        69.15446
741.74        69.46681
742.16        69.63872
742.57        69.72764
742.99        70.43176
743.41        71.51825
743.83        72.18552
744.25        72.28728
744.67        72.03004
745.08        71.64993
745.50        71.53056
745.92        71.78787
746.34        72.27927
746.75        72.82491
747.17         73.1262
747.59        73.12711
748.01         72.9323
748.42        72.71689
748.84        72.76186
749.26         73.1424
749.68        73.66898
750.09        74.21004
750.51        74.73557
750.93        75.09955
751.35        74.90319
751.76        74.31189
752.18        74.11632
752.60        74.31506
753.01        74.26208
753.43        74.00012
753.85        74.08718
754.27        74.55645
754.68        75.17004
755.10        75.77298
755.52        76.25937
755.93        76.55099
756.35        76.62983
756.77        76.61833
757.18        76.61076
757.60        76.63641
758.02        76.95531
758.43        77.33512
758.85        76.78218
759.26        75.57387
759.68        75.41605
760.10        76.44884
760.51        76.68793
760.93        76.14429
761.34        74.92754
761.76        74.99795
762.18        74.77264
762.59        74.82587
763.01        75.05612
763.42        75.48903
763.84        75.98615
764.26        76.49552
764.67        76.82088
765.09        76.86666
765.50        76.87834
765.92        76.71796
766.33         75.4561
766.75        73.64916
767.16        73.11068
767.58        74.00255
768.00        75.45965
768.41         77.1071
768.83        78.41858
769.24         78.7838
769.66        78.27661
770.07        76.49239
770.49        74.90679
770.90        73.72602
771.32        74.57545
771.73        76.78983
772.15        76.42313
772.56        73.89819
772.97        73.49746
773.39        75.13785
773.80        75.73124
774.22        75.06512
774.63        74.98834
775.05        75.47733
775.46         75.7229
775.88        75.63933
776.29        75.46531
776.70         75.2606
777.12        75.14567
777.53        75.17337
777.95        75.25964
778.36        75.33509
778.77        75.27383
779.19         75.0815
779.60        74.79172
780.02        74.54256
780.43        74.58857
780.84        75.01103
781.26        75.43993
781.67        75.81226
782.09        76.56967
782.50        77.36385
782.91        76.65163
783.33        74.95734
783.74        74.44368
784.15        75.21521
784.57        75.77195
784.98        75.85763
785.39        75.84489
785.81         75.6738
786.22        75.09566
786.63        74.45599
787.04        74.41246
787.46        75.03221
787.87        76.09773
788.28        77.23519
788.70        77.80878
789.11        77.65836
789.52        77.00314
789.93        76.16605
790.35        75.59932
790.76        75.43546
791.17        75.58627
791.58        75.90015
792.00        76.04702
792.41        75.92544
792.82        75.74917
793.23        75.68635
793.65        75.41047
794.06        75.18073
794.47        76.30998
794.88        78.05238
795.29        77.71745
795.71        75.52425
796.12        73.52873
796.53        72.37851
796.94        72.16376
797.35        72.91409
797.76        74.08368
798.18        75.14706
798.59        75.94437
799.00        76.17692
799.41        75.53705
799.82        74.41808
800.23        73.77743
800.64        73.80274
801.06        74.12976
801.47        74.62904
801.88        74.98588
802.29        75.08113
802.70        75.06168
803.11        74.97301
803.52        74.85482
803.93        74.75226
804.34        74.60875
804.75         74.5089
805.17         74.6842
805.58        75.19386
805.99        75.70696
806.40        76.02642
806.81        76.48788
807.22         76.6992
807.63        75.27044
808.04        72.87504
808.45        71.83816
808.86        72.40306
809.27        73.48013
809.68          74.579
810.09          75.232
810.50        75.17255
810.91        74.55811
811.32        73.72501
811.73        73.21681
812.14        73.18879
812.55        73.43865
812.96        73.84464
813.37        74.18797
813.78        74.36992
814.19        74.52715
814.60        74.55672
815.01         74.2738
815.42        73.68338
815.83        72.78953
816.24         71.9486
816.65        71.79607
817.05        72.50403
817.46        73.86546
817.87        75.33223
818.28        75.91354
818.69        75.35467
819.10        73.90075
819.51        72.23198
819.92        71.50475
820.33        72.01811
820.74        73.42965
821.14        75.07452
821.55        75.76846
821.96        75.24403
822.37        73.89251
822.78        72.32421
823.19         71.4393
823.60        71.47744
824.00        72.21529
824.41        73.18731
824.82         73.6953
825.23        73.48431
825.64        72.81378
826.04        72.04174
826.45        71.67768
826.86        71.84137
827.27        72.33029
827.68        72.91628
828.08        73.26285
828.49        73.19508
828.90        72.88303
829.31        72.42558
829.72        71.99639
830.12         71.7161
830.53        71.50327
830.94        71.44083
831.35        71.63206
831.75         72.1135
832.16        72.81647
832.57        73.60145
832.97        74.13525
833.38        74.25156
833.79        74.02631
834.20        73.67216
834.60        73.52866
835.01        73.69831
835.42        74.06841
835.82        74.44546
836.23        74.42417
836.64        73.95348
837.04        73.19563
837.45        72.39439
837.86         71.9308
838.26         71.9127
838.67        72.18992
839.08        72.62531
839.48        72.96265
839.89        73.06915
840.29        73.03452
840.70        72.87535
841.11        72.59794
841.51        72.23917
841.92        71.77293
842.33         71.3103
842.73         71.0556
843.14         71.0221
843.54        71.20143
843.95        71.44085
844.35         71.5334
844.76        71.41273
845.17        71.16486
845.57        70.88624
845.98        70.73604
846.38        70.75363
846.79        70.84103
847.19        70.99939
847.60        71.15336
848.00        71.29499
848.41        71.42335
848.81        71.47798
849.22         71.2846
849.62        70.88034
850.03        70.31909
850.43        69.81109
850.84        69.67402
851.24        70.04002
851.65        70.65853
852.05        71.49445
852.46        72.30077
852.86        72.96828
853.27         73.5877
853.67        73.78505
854.07        73.10902
854.48        71.64231
854.88        69.54974
855.29        67.58567
855.69        66.85182
856.10        67.55309
856.50        69.56988
856.90        72.20498
857.31        73.80776
857.71        73.84357
858.12        72.70573
858.52        71.14368
858.92        70.15084
859.33        69.95662
859.73         70.2867
860.13        70.96569
860.54        71.63242
860.94        72.17296
861.34        72.67775
861.75        73.11044
862.15        73.48743
862.55        73.77409
862.96        73.92462
863.36        73.96252
863.76        73.92707
864.17        73.84875
864.57        73.78845
864.97        73.80544
865.38        73.97215
865.78        74.33793
866.18         74.7954
866.58        75.29246
866.99        75.72769
867.39        76.10162
867.79        76.46359
868.19        76.62641
868.60        76.25393
869.00        75.32869
869.40        73.97463
869.80        72.83278
870.21        72.88169
870.61        74.39227
871.01        77.07248
871.41        80.07042
871.81        81.91402
872.22        82.18874
872.62        81.27248
873.02        79.92736
873.42        79.58105
873.82        80.33679
874.22        81.35812
874.63        82.27251
875.03        82.39178
875.43         81.4215
875.83        80.83559
876.23        78.63999
876.63        77.36201
877.03        76.75855
877.44        76.96834
877.84        106.5278
878.24        84.11031
878.64        85.32624
879.04        86.83994
879.44        82.23748
879.84        80.23441
880.24        85.75796
880.64        88.38942
881.04        89.29996
881.44        89.54029
881.84        88.57915
882.24        86.66481
882.65        84.89227
883.05        84.24902
883.45        84.89604
883.85         86.8598
884.25        89.39899
884.65        90.84924
885.05        90.69928
885.45        89.51249
885.85        88.02189
886.25        87.23088
886.65        87.37968
887.05        88.10815
887.45        89.13055
887.85        89.96177
888.25        90.37636
888.65        90.55649
889.04        90.50819
889.44        90.26505
889.84        89.85625
890.24        89.22687
890.64        88.54328
891.04        88.08648
891.44        87.90282
891.84        87.96889
892.24        88.06607
892.64        87.77523
893.04        87.08482
893.44        86.23926
893.83        85.55983
894.23        85.50274
894.63        86.12647
895.03        87.18898
895.43        88.58839
895.83        90.11667
896.23        91.54848
896.63        92.89001
897.02        93.66561
897.42         93.1476
897.82        91.35043
898.22        88.63206
898.62        85.87979
899.01        84.38497
899.41        84.43584
899.81        85.59384
900.21        87.33224
900.61         88.7579
901.00        89.52435
901.40        89.88819
901.80        89.88142
902.20        89.56007
902.59        89.01016
902.99        88.16021
903.39        87.24191
903.79        86.70974
904.18        86.69386
904.58        87.16066
904.98         87.8728
905.38        88.41782
905.77        88.66043
906.17        88.68976
906.57        88.64056
906.96        88.77423
907.36        89.06144
907.76         89.3958
908.15        89.60271
908.55        89.30392
908.95        88.49965
909.34        87.33849
909.74        86.12569
910.14        85.13844
910.53         84.5083
910.93        84.19124
911.33        84.27061
911.72        84.89222
912.12        85.88766
912.52        87.07967
912.91         88.1755
913.31        88.82323
913.70        89.02504
914.10        88.84296
914.49        88.25777
914.89        87.33064
915.29        86.28323
915.68        85.13628
916.08        84.37885
916.47        84.35194
916.87        85.03011
917.26        86.31134
917.66        87.58605
918.05        87.87168
918.45        86.95576
918.84        85.21094
919.24         83.3547
919.64        82.42901
920.03        82.72298
920.42        83.92154
920.82        85.61647
921.21        87.20071
921.61        88.20274
922.00        88.77592
922.40        88.85969
922.79        88.43003
923.19        87.63878
923.58        86.35158
923.98        84.64198
924.37        83.40532
924.77        83.22174
925.16         80.5255
925.55        81.94468
925.95        82.70468
926.34        84.70237
926.74        87.38165
927.13        90.03469
927.52        91.19576
927.92        90.64472
928.31        88.85618
928.70        86.46504
929.10        84.58871
929.49        83.54678
929.89        83.04613
930.28        83.16293
930.67        84.02184
931.07        85.39497
931.46        87.33678
931.85        89.05099
932.24        89.32066
932.64        87.96229
933.03        85.14243
933.42        81.66708
933.82        79.37505
934.21        78.82495
934.60         79.5517
934.99        80.65369
935.39        81.25755
935.78        81.22423
936.17        80.23265
936.56        78.10113
936.96        79.44212
937.35        78.04922
937.74        78.80183
938.13        79.50077
938.53        80.28039
938.92        81.18697
939.31         82.3879
939.70        83.61523
940.09        83.92606
940.49        83.10342
940.88        81.54526
941.27        80.03844
941.66        79.53992
942.05        80.15067
942.44        81.54589
942.84        83.29713
943.23        84.70235
943.62        85.37659
944.01        85.48634
944.40        85.13476
944.79        84.48318
945.18        83.59404
945.57         82.3581
945.97        80.84711
946.36        79.40176
946.75        78.40516
947.14         77.9398
947.53        77.91629
947.92        78.13818
948.31        78.53423
948.70        79.16232
949.09         79.9405
949.48        80.62852
949.87        81.05041
950.26        81.12653
950.65         81.0119
951.04        81.01889
951.43        81.21169
951.82        81.53137
952.21        81.64512
952.60        81.04074
952.99         79.6708
953.38        77.73003
953.77        75.84089
954.16         74.8777
954.55        75.00437
954.94        76.06229
955.33        77.29375
955.72        77.41014
956.11         76.1222
956.50        73.74136
956.89        71.38477
957.28        71.10365
957.66        73.48235
958.05        77.60369
958.44        81.98018
958.83        84.42738
959.22        84.41136
959.61         82.5276
960.00        79.77853
960.39        77.81194
960.78        77.16467
961.16        77.42612
961.55        77.92278
961.94        77.51128
962.33        75.96662
962.72        73.84735
963.11        71.93551
963.49        71.18383
963.88        71.74467
964.27        73.35533
964.66        75.39141
965.04        76.53896
965.43        76.19682
965.82        74.82716
966.21        73.24519
966.60        72.50655
966.98        72.82887
967.37        73.86726
967.76        75.12562
968.15        75.66261
968.53        75.19923
968.92        74.04272
969.31        72.79598
969.69        72.22898
970.08        72.48265
970.47        73.33194
970.86         74.2656
971.24        74.39055
971.63        73.45789
972.02         71.7303
972.40         69.8708
972.79        69.06937
973.17        69.79572
973.56        71.62347
973.95        73.93526
974.33        75.48605
974.72        75.70047
975.11        74.92775
975.49        73.70283
975.88        72.80131
976.26        72.35642
976.65        72.15754
977.04         71.7884
977.42        70.45937
977.81        68.15098
978.19        65.38583
978.58        63.40276
978.96        63.26809
979.35        65.07857
979.74        68.63292
980.12        73.24409
980.51        76.25047
980.89        76.79455
981.28        75.43842
981.66        73.28521
982.05         71.7749
982.43        71.21796
982.82        71.14678
983.20        71.50114
983.59        72.24799
983.97        73.39138
984.35        75.06486
984.74        76.79336
985.12        77.68051
985.51        77.11933
985.89        75.17245
986.28        72.50836
986.66        70.14748
987.04        68.74016
987.43          68.178
987.81        67.97662
988.20         67.4333
988.58        66.24564
988.96        64.12572
989.35        61.67683
989.73        61.55005
990.12        65.08904
990.50        70.91641
990.88        75.31107
991.27        75.49831
991.65        72.05691
992.03        65.86349
992.42        59.33431
992.80        56.86236
993.18        59.57005
993.56        64.93504
993.95        70.65289
994.33        74.75941
994.71        76.74352
995.10        77.61713
995.48        77.32279
995.86        75.47062
996.24        72.09946
996.63         66.8852
997.01        61.00813
997.39        58.29769
997.77        60.45794
998.15        66.71495
998.54        73.86295
998.92        77.43884
999.30        76.09998
999.68        71.06667
1000.06        63.74509
1000.45        57.80447
1000.83         54.9463
1001.21        53.96835
1001.59        54.61116
1001.97        56.73289
1002.35         60.1334
1002.73        65.71116
1003.12        71.70422
1003.50        72.30877
1003.88        65.40929
1004.26         53.9884
1004.64        43.60348
1005.02        38.93166
1005.40        40.31946
1005.78        47.63149
1006.16        61.45948
1006.54        74.41991
1006.92        77.93862
1007.30        74.90224
1007.69        70.36877
1008.07        67.64439
1008.45        66.56114
1008.83         65.9444
1009.21        63.53696
1009.59        47.61849
1009.97       -12.78615
1010.35       -113.9827
1010.73       -110.0701
1011.11       -48.44338
1011.49       0.1638248
1011.86        34.76065
1012.24        54.12082
1012.62        61.56055
1013.00        61.37266
1013.38        55.43928
1013.76        45.64576
1014.14        40.20406
1014.52        46.62305
1014.90        66.91011
1015.28         94.5163
1015.66        107.1187
1016.04        92.19303
1016.41        56.83741
1016.79        22.36122
1017.17        9.088251
1017.55        12.97269
1017.93        21.88742
1018.31        30.76077
1018.69        37.78291
1019.06        43.57904
1019.44         49.6202
1019.82        56.81355
1020.20        62.99226
1020.58        63.59587
1020.95        50.93529
1021.33       -7.510279
1021.71        1014.375
1022.09        197.7612
1022.46        157.6842
1022.84        147.5567
1023.22         149.443
1023.60        166.9054
1023.97        357.5225
1024.35        31.51441
1024.73        65.37494
