SpectraSmart Spectrum 2.9.0.0
--------- Device Information -----------
Spectrum Name :  反射率_0
Saving Time :  2024/04/26 01:20:52
Spectro-Module Model Name : SE2030-DUVN
Spectro-Module Serial Number : OS361AC55029948
Wavelength Start : 200
Wavelength End : 1025
Wavelength Unit : Wavelength(nm)
Spectrum Unit : Reflectance(%)
-----------Spectrum Setting ------------
Integration Time : 20ms
Average : 10
Boxcar : 0
Background removal :  enabled
linearity correction :  enabled
SC :  disabled
Intensity correction :  disabled
DWT denoise :  enabled
savitzky-golay :  disabled
FFT :  disabled
Running average :  disabled
Kalman :  disabled
High pass :  disabled
---------------BEGIN--------------------
Wavelength(nm)             Reflectance(%)
200.29               0
200.75        87.42558
201.21        86.37701
201.67        83.98634
202.13        80.99764
202.58        77.76388
203.04        74.72673
203.50        71.89388
203.96        69.67369
204.42        68.38925
204.88        67.73566
205.34        68.15401
205.80         70.4911
206.26        75.70598
206.72        86.92995
207.18        108.3639
207.64        126.4503
208.10        113.2061
208.55        87.00101
209.01         70.6226
209.47        65.42777
209.93        66.75164
210.39         72.3063
210.85        79.19942
211.31        81.15394
211.77        76.20254
212.23        66.92219
212.69        57.74232
213.14        55.44446
213.60        61.08717
214.06         72.4027
214.52        85.38306
214.98        93.97648
215.44        96.31496
215.90        94.31177
216.36        89.78028
216.81        85.10541
217.27        81.65716
217.73        78.85157
218.19        76.00211
218.65         72.0072
219.11        66.08759
219.57        57.41592
220.02        46.97068
220.48        41.11606
220.94        43.21727
221.40        51.77648
221.86        59.71658
222.32        59.67352
222.77        52.65267
223.23        42.85412
223.69        34.73214
224.15        32.87758
224.61         36.7108
225.06        43.89309
225.52        51.09449
225.98        54.12386
226.44        52.27363
226.90        47.41282
227.36        41.86744
227.81          38.747
228.27        39.01218
228.73        41.31775
229.19        44.54494
229.65        47.06303
230.10        48.33526
230.56        48.98133
231.02        49.27253
231.48        49.45784
231.93        49.63583
232.39        49.70258
232.85        49.73516
233.31        49.96436
233.77        50.41475
234.22        51.06117
234.68        51.77266
235.14        52.16913
235.60        52.17921
236.05        52.01288
236.51        51.84021
236.97        51.88997
237.43        52.31445
237.88        53.14694
238.34        54.70308
238.80          57.669
239.26         62.0337
239.71        67.65504
240.17        73.02678
240.63        76.25353
241.08        76.93837
241.54        75.30444
242.00        73.05646
242.46        72.78693
242.91        76.17191
243.37         86.1822
243.83        115.5856
244.28        193.4293
244.74        247.2134
245.20        176.3607
245.66        131.3204
246.11        119.2137
246.57        124.1084
247.03        151.7667
247.48        244.8698
247.94        228.7448
248.40        136.3574
248.85        104.4641
249.31        94.30598
249.77         93.1267
250.22        97.16635
250.68        106.1845
251.14        119.8251
251.59        129.3022
252.05        125.7008
252.51        113.0484
252.96        99.79913
253.42         94.2706
253.88         95.8017
254.33        100.9742
254.79        107.7958
255.25        112.9284
255.70        115.2516
256.16        116.5725
256.62        116.4144
257.07        114.0648
257.53        110.5188
257.99        105.7307
258.44        101.0618
258.90        99.28462
259.35        99.18845
259.81        99.88629
260.27        99.46446
260.72        96.06422
261.18        90.67866
261.63        84.08765
262.09        77.94679
262.55        73.32589
263.00        70.20987
263.46        68.23667
263.91        66.64246
264.37        65.05569
264.83        63.15722
265.28        60.97657
265.74         58.7766
266.19        56.64801
266.65        54.91967
267.11        53.51654
267.56        52.25902
268.02        50.94049
268.47        49.40349
268.93        47.71154
269.38        46.03321
269.84        44.89016
270.30        44.39319
270.75         44.3982
271.21        44.51194
271.66        44.13379
272.12        43.13838
272.57        41.71053
273.03         40.2506
273.48        39.27048
273.94        38.91234
274.39        38.93467
274.85        39.06703
275.31        38.88325
275.76        38.27343
276.22        37.43502
276.67        36.50448
277.13        35.79241
277.58        35.30938
278.04        34.98919
278.49        34.69379
278.95        34.32891
279.40        33.81836
279.86        33.26754
280.31         32.6626
280.77        32.11086
281.22        31.59157
281.68        31.12059
282.13        30.68105
282.59         30.3049
283.04           29.98
283.50         29.7506
283.95        29.56076
284.41        29.35608
284.86        29.11734
285.32        28.86894
285.77        28.70126
286.22        28.82194
286.68         29.2174
287.13        29.77123
287.59        30.26287
288.04        30.34764
288.50        30.00461
288.95        29.33823
289.41        28.59415
289.86        28.02045
290.32        27.75705
290.77        27.71649
291.22        27.87153
291.68        28.13418
292.13        28.47745
292.59        28.94463
293.04        29.55022
293.50        30.31131
293.95        31.20327
294.40        32.17426
294.86        33.17402
295.31         34.1457
295.77        35.08408
296.22        36.00975
296.68         36.9315
297.13        37.83271
297.58         38.7314
298.04        39.64285
298.49        40.62768
298.95        41.83499
299.40        43.26679
299.85        44.87128
300.31        46.51623
300.76        47.98429
301.21        49.20452
301.67        50.28508
302.12        51.25133
302.58        52.24696
303.03        53.29205
303.48        54.37222
303.94        55.59835
304.39        57.07796
304.84        58.81405
305.30        60.75405
305.75        62.64666
306.20        64.13249
306.66        65.16594
307.11        65.81348
307.57        66.34674
308.02        67.05708
308.47         68.0743
308.93        69.31133
309.38        70.62373
309.83        71.83451
310.29        72.87574
310.74        73.77751
311.19        74.60632
311.65         75.4556
312.10        76.33996
312.55        77.23791
313.00        78.05363
313.46        78.64762
313.91        78.98347
314.36        79.12619
314.82          79.262
315.27        79.62554
315.72        80.29841
316.18        81.20916
316.63        82.19416
317.08        82.94141
317.53        83.35712
317.99        83.50817
318.44        83.58702
318.89        83.91385
319.35        84.54113
319.80        85.40132
320.25        86.22434
320.70        86.56703
321.16         86.3446
321.61         85.7134
322.06        85.01269
322.51        84.76958
322.97        85.08609
323.42        85.83744
323.87        86.72922
324.32        87.25591
324.78        87.25615
325.23        86.91495
325.68        86.44025
326.13        86.19766
326.59        86.28117
327.04        86.61224
327.49        87.05777
327.94        87.42992
328.39        87.66634
328.85         87.8172
329.30        88.00676
329.75        88.27911
330.20        88.66965
330.66         89.1313
331.11        89.68691
331.56        90.31322
332.01        91.00523
332.46        91.73824
332.92        92.48203
333.37        93.35975
333.82        94.28677
334.27        95.23872
334.72        96.02979
335.17        96.36861
335.63        96.21566
336.08        95.71317
336.53        95.16399
336.98        95.09087
337.43        95.62081
337.88        96.60221
338.34        97.76077
338.79        98.72679
339.24        99.32371
339.69         99.6786
340.14        99.84258
340.59         99.9092
341.05        99.95387
341.50        99.93065
341.95        99.94409
342.40        100.1839
342.85        100.6797
343.30        101.3896
343.75        102.1693
344.20         102.742
344.66        103.0289
345.11        103.0799
345.56        102.9829
346.01         102.881
346.46        102.8345
346.91        102.8088
347.36        102.8085
347.81        102.8464
348.26        102.9224
348.72        103.0569
349.17         103.215
349.62        103.3774
350.07        103.5285
350.52        103.6689
350.97        103.7704
351.42        103.7998
351.87        103.7535
352.32        103.6319
352.77        103.4851
353.22         103.398
353.67        103.3811
354.13        103.4206
354.58         103.411
355.03        103.2417
355.48        102.8897
355.93        102.3974
356.38        101.8439
356.83        101.3556
357.28        100.9641
357.73        100.6274
358.18        100.2943
358.63        99.88232
359.08        99.37158
359.53        98.80236
359.98        98.19215
360.43        97.56146
360.88        96.92213
361.33         96.2597
361.78        95.60909
362.23          95.034
362.68        94.54401
363.13         94.1271
363.58        93.71215
364.03        93.17815
364.48        92.50419
364.93        91.73192
365.38        90.93997
365.83        90.26072
366.28        89.72124
366.73        89.26028
367.18         88.8382
367.63        88.39381
368.08        87.90611
368.53        87.42058
368.98         86.8868
369.43        86.21188
369.88        85.39951
370.33        84.47701
370.78        83.60502
371.23        83.05824
371.68        82.89352
372.13          83.026
372.58        83.26594
373.03        83.28387
373.48        82.98471
373.93        82.47236
374.38        81.86564
374.83        81.34711
375.28         80.9725
375.72         80.6632
376.17        80.41664
376.62        80.21249
377.07        80.02223
377.52         79.8425
377.97        79.62808
378.42        79.29819
378.87        78.84909
379.32        78.33057
379.77        77.76038
380.22        77.16022
380.67        76.54398
381.11        75.89942
381.56         75.3161
382.01        74.94626
382.46         74.8205
382.91        74.91774
383.36        75.04523
383.81        74.89193
384.26        74.40131
384.71        73.65211
385.15         72.8904
385.60        72.55642
386.05        72.67203
386.50        73.08942
386.95        73.49317
387.40        73.35826
387.85        72.62081
388.29        71.50504
388.74        70.42156
389.19        69.65639
389.64        69.26197
390.09        69.08332
390.54        69.10081
390.98        69.28339
391.43        69.56853
391.88        69.94672
392.33        70.20674
392.78        70.00233
393.23        69.34269
393.67        68.41693
394.12        67.58904
394.57        67.00722
395.02        66.81928
395.47        67.25217
395.91        68.14511
396.36        68.75968
396.81        68.94387
397.26        68.98929
397.71        68.89057
398.15        68.48983
398.60        67.92218
399.05        67.24838
399.50        66.59974
399.95        65.99272
400.39        65.75748
400.84        65.59321
401.29        65.54232
401.74        65.66813
402.18        65.88459
402.63        65.83247
403.08        65.62138
403.53        65.69029
403.97        66.05825
404.42        66.47396
404.87        66.74969
405.32        66.66927
405.76        66.18793
406.21         65.4482
406.66        64.68317
407.11        64.27931
407.55        64.33149
408.00        64.57799
408.45        64.88847
408.90        65.30021
409.34        65.55566
409.79        65.05372
410.24        64.07764
410.68        63.61638
411.13        63.76962
411.58        64.01086
412.03        64.25845
412.47        64.59137
412.92        64.90089
413.37        65.19336
413.81        65.36866
414.26        65.31109
414.71        65.00072
415.15        64.47369
415.60         63.8923
416.05        63.53874
416.49        63.49403
416.94        63.70803
417.39        64.00435
417.83        64.06156
418.28         63.8122
418.73        63.34981
419.17        62.90143
419.62        62.83385
420.07        63.18157
420.51        63.81918
420.96        64.46667
421.41        64.64039
421.85        64.22533
422.30        63.55491
422.74        62.83944
423.19        62.31934
423.64        62.11251
424.08        62.49021
424.53        63.25904
424.98        63.75279
425.42        63.83615
425.87        63.98085
426.31        64.20198
426.76        63.97072
427.21        63.52776
427.65        63.83283
428.10        64.76429
428.54        65.46835
428.99        65.87469
429.44        66.03535
429.88        65.97115
430.33        66.53219
430.77        67.18246
431.22         65.9827
431.66        63.52182
432.11         62.4114
432.56        62.83381
433.00        63.68336
433.45        64.84859
433.89        66.34435
434.34        66.82932
434.78        68.68258
435.23        65.31948
435.67        62.63375
436.12        65.62018
436.57        66.49812
437.01          66.873
437.46         66.9952
437.90        67.07166
438.35        66.67556
438.79        66.99301
439.24        66.89265
439.68        66.76388
440.13        66.49521
440.57        66.36119
441.02        67.25568
441.46        68.77081
441.91        69.44529
442.35        69.09895
442.80        68.28883
443.24         67.4053
443.69        67.80744
444.13        69.09152
444.58        69.53228
445.02        67.65395
445.47        67.58031
445.91        68.70541
446.36        69.09175
446.80        68.65318
447.24        68.44663
447.69        68.57672
448.13        68.72948
448.58        68.93259
449.02        69.20463
449.47        69.49498
449.91         69.7298
450.36        69.88577
450.80        69.96776
451.25        69.96566
451.69        69.83986
452.13        69.62746
452.58        69.32351
453.02        69.02921
453.47           68.99
453.91        69.30407
454.36        69.49458
454.80         70.1041
455.24         70.1619
455.69        69.78934
456.13        69.41068
456.58        69.30554
457.02        68.22926
457.46        68.58846
457.91        68.81455
458.35        69.36057
458.79         69.6067
459.24        69.51884
459.68        69.27737
460.13        68.94893
460.57        68.66775
461.01        68.54266
461.46        68.07655
461.90        67.79488
462.34        68.13575
462.79        67.68171
463.23        67.83927
463.68         68.0975
464.12        68.31019
464.56        68.40871
465.01        68.59852
465.45        68.67627
465.89        68.45839
466.34        67.97665
466.78         67.0492
467.22        66.11802
467.67        66.03946
468.11         67.1172
468.55        67.68484
468.99        67.60212
469.44        67.20627
469.88        66.71291
470.32        66.71765
470.77         67.1325
471.21        67.15218
471.65        66.73546
472.10        66.50266
472.54        66.50674
472.98        66.53371
473.42        66.57673
473.87        66.78371
474.31        67.02723
474.75        66.96167
475.20        66.63145
475.64        66.47752
476.08        66.58247
476.52        66.45491
476.97        66.03403
477.41        66.56609
477.85        66.64956
478.29        66.25845
478.74        66.69251
479.18        66.90503
479.62        65.87272
480.06        66.41151
480.50        66.66434
480.95        66.89926
481.39        66.70951
481.83        66.14167
482.27        65.99822
482.72        66.24258
483.16        65.01971
483.60        65.41063
484.04        66.72077
484.48        67.14151
484.93        67.22723
485.37        67.95625
485.81        68.65359
486.25        67.75204
486.69        91.51318
487.14        73.97005
487.58        46.07624
488.02        56.92861
488.46        64.63705
488.90        64.34605
489.34        65.49958
489.79        64.78175
490.23        66.84526
490.67        67.68287
491.11        66.65221
491.55        66.55424
491.99        67.00081
492.43         66.8084
492.88        66.07586
493.32        66.00998
493.76        66.13611
494.20         66.3418
494.64        66.39562
495.08         66.5107
495.52        66.71861
495.96        66.70139
496.41        66.46415
496.85        66.92167
497.29        67.78277
497.73        66.75403
498.17        64.76546
498.61        64.89716
499.05        67.17018
499.49        67.60416
499.93        67.66064
500.37        67.49639
500.82        67.01427
501.26        67.16178
501.70        67.66364
502.14        67.84683
502.58          67.603
503.02        67.42442
503.46        67.32442
503.90        67.01163
504.34         66.6103
504.78        66.44838
505.22        66.56413
505.66        66.88695
506.10        67.28016
506.54        67.43475
506.98        67.26752
507.42        67.10191
507.86         66.7744
508.30        66.52172
508.74        66.74171
509.18        67.01298
509.62        67.32821
510.06        67.46056
510.50        67.36429
510.94        67.11111
511.38        66.82226
511.82        66.69339
512.26        66.77099
512.70        66.98528
513.14         67.2464
513.58         67.4118
514.02         67.4309
514.46        67.34837
514.90        67.21019
515.34        67.06908
515.78        66.94032
516.22        66.87549
516.66        66.87231
517.10        66.74572
517.54        66.49084
517.98        66.78936
518.42        66.69142
518.86        66.90511
519.30        67.13205
519.74         67.4277
520.18        67.71972
520.62         67.8893
521.06        67.92017
521.50        67.83874
521.93         67.6979
522.37        67.58717
522.81        67.54213
523.25         67.5421
523.69        67.57807
524.13        67.63331
524.57        67.69889
525.01        67.78282
525.45        67.87263
525.89        67.94495
526.32        67.98416
526.76        67.98789
527.20        67.95983
527.64        67.92809
528.08        67.91453
528.52         67.8578
528.96        67.72484
529.40        67.65433
529.83        67.68479
530.27        67.09623
530.71        67.25291
531.15        67.14704
531.59        67.18684
532.03         67.3086
532.46        67.51645
532.90          67.783
533.34        68.06427
533.78        68.35641
534.22        68.57792
534.66        68.61797
535.09        68.45424
535.53         68.1462
535.97        67.77993
536.41        67.51653
536.85        67.40555
537.28        67.41245
537.72         67.4761
538.16        67.50414
538.60        67.47016
539.04        67.35599
539.47        67.20348
539.91        67.25207
540.35        67.44045
540.79        67.46223
541.22        67.32436
541.66         67.3135
542.10        67.42754
542.54        67.49374
542.97        67.52028
543.41        67.62359
543.85        67.78683
544.29        68.00191
544.72        68.17798
545.16        68.15343
545.60        67.89285
546.04        67.63043
546.47        67.24349
546.91        67.09254
547.35        67.17724
547.79        67.66991
548.22        68.30722
548.66        68.45117
549.10        68.04759
549.53        67.45226
549.97        66.91357
550.41        66.60741
550.84        66.61719
551.28        66.90134
551.72        67.33215
552.15        67.65427
552.59        67.77781
553.03        67.81664
553.46        67.79684
553.90        67.70552
554.34        67.54222
554.77        67.70078
555.21        67.33432
555.65        67.36572
556.08        67.58153
556.52        67.17151
556.96        67.64952
557.39        67.53757
557.83        67.36969
558.27        67.40682
558.70        67.57709
559.14        67.76623
559.57        67.89787
560.01        68.11162
560.45        68.33191
560.88        68.33911
561.32        68.14634
561.75        67.91476
562.19        67.74034
562.63        67.33662
563.06        66.85561
563.50        67.04668
563.93        67.77445
564.37        67.77975
564.80        67.81124
565.24        67.64428
565.68        67.56956
566.11         67.4936
566.55        67.48615
566.98        67.47084
567.42        67.46195
567.85        67.63621
568.29        67.96359
568.72        67.94603
569.16        67.77023
569.60        68.05143
570.03        68.46682
570.47        68.34097
570.90         67.9789
571.34        66.34121
571.77        67.57066
572.21        67.41505
572.64        67.11786
573.08        66.39678
573.51        63.32784
573.95        65.85331
574.38         70.0964
574.82        68.06264
575.25        67.33089
575.69        65.27608
576.12        64.26454
576.56        63.68135
576.99        65.24988
577.42        68.10284
577.86        67.78548
578.29        67.04796
578.73        70.95126
579.16        65.48151
579.60        60.02879
580.03        62.52005
580.47        66.66317
580.90        68.40248
581.33        67.02511
581.77        66.05014
582.20        72.17676
582.64        72.25968
583.07        61.57246
583.51        60.58989
583.94        59.61395
584.37        62.32232
584.81         65.4147
585.24        68.76752
585.68        70.29707
586.11        69.05245
586.54        64.23521
586.98        62.46525
587.41         63.0834
587.85        66.54362
588.28        68.53669
588.71        65.16248
589.15        63.31487
589.58        64.63431
590.01        65.13989
590.45        66.27862
590.88        66.99453
591.31        66.26585
591.75        65.71771
592.18        65.77847
592.61        67.30117
593.05        67.90156
593.48        70.39025
593.91        71.15601
594.35         65.1535
594.78        63.88897
595.21        63.79412
595.65         66.7022
596.08        68.95901
596.51        66.00391
596.94        64.75216
597.38        65.46467
597.81        67.83041
598.24        69.62051
598.68        67.90465
599.11        67.07819
599.54        69.70897
599.97        71.39011
600.41        66.12299
600.84        66.17602
601.27        67.50426
601.70        66.71214
602.14        66.46493
602.57        65.54214
603.00        66.27031
603.43         67.8073
603.87        69.28785
604.30        68.78464
604.73         66.7244
605.16        65.57986
605.60        66.28092
606.03        67.47334
606.46        68.66211
606.89        68.34824
607.32        65.91898
607.76        66.09789
608.19        68.10957
608.62        67.29084
609.05        66.05901
609.48        66.65604
609.92        66.82456
610.35        66.42917
610.78        68.11367
611.21        69.13591
611.64        65.81345
612.07        66.52821
612.50        66.83172
612.94        67.24977
613.37        66.78854
613.80        66.86677
614.23        67.50593
614.66        67.39075
615.09        67.50117
615.52        67.46826
615.96        67.42966
616.39        67.50221
616.82        66.54078
617.25        66.35304
617.68        67.09649
618.11        67.65366
618.54        67.92267
618.97        67.50896
619.40        66.79584
619.84        66.69406
620.27        67.75432
620.70        68.35039
621.13        68.51802
621.56        67.76048
621.99        67.03045
622.42        67.74639
622.85         69.4072
623.28        69.16485
623.71        68.47579
624.14        68.35842
624.57        68.07364
625.00        68.07141
625.43        68.06935
625.86        67.53725
626.29        67.76431
626.72        68.12824
627.15        68.00126
627.58        68.10218
628.01         68.0994
628.44        68.54634
628.87        68.49617
629.30        68.76701
629.73        68.95972
630.16        69.19872
630.59        68.78205
631.02         68.3997
631.45         67.9907
631.88        67.72195
632.31        67.64254
632.74        67.72031
633.17        67.88354
633.60        67.98543
634.03        67.98478
634.46        67.93002
634.89        67.85933
635.32        67.83362
635.75        67.87234
636.18        67.94128
636.61        68.03236
637.04        68.14426
637.47        68.26506
637.89        68.40201
638.32        68.50326
638.75        68.52826
639.18        68.46698
639.61        68.33743
640.04        68.16703
640.47         68.0006
640.90        67.86197
641.33        67.74264
641.76        67.63318
642.18        67.61214
642.61        67.67923
643.04        67.66367
643.47        67.51458
643.90        68.02493
644.33        67.78309
644.76        67.92508
645.18        68.01166
645.61        68.03406
646.04        67.96774
646.47        67.79863
646.90        67.63448
647.33        67.59866
647.75        67.74106
648.18        68.08633
648.61        68.39024
649.04        68.29184
649.47        67.75838
649.89        66.71156
650.32        65.67867
650.75        65.76477
651.18        66.86221
651.61        67.89717
652.03          68.395
652.46        68.23695
652.89        67.81418
653.32         67.1422
653.74        66.58005
654.17        67.93922
654.60        68.15488
655.03        66.20918
655.46        67.32746
655.88        71.12688
656.31         75.2675
656.74         167.315
657.16        108.2878
657.59        38.23112
658.02        29.05302
658.45        50.71383
658.87        65.12219
659.30        68.34046
659.73        67.21929
660.15         65.1599
660.58        67.65709
661.01         69.5524
661.44        67.38644
661.86        66.55589
662.29         66.3596
662.72        66.97585
663.14        68.21404
663.57        68.27383
664.00        67.33596
664.42        67.17996
664.85        67.85754
665.27        68.20148
665.70        68.04793
666.13         67.8147
666.55        67.50455
666.98        66.99296
667.41        66.46869
667.83        66.29069
668.26        66.51967
668.69        67.03551
669.11        67.58416
669.54        68.00935
669.96        67.57041
670.39        67.20978
670.82        66.44225
671.24         66.1399
671.67        66.26055
672.09        66.62819
672.52        66.98178
672.94         67.4371
673.37        66.83771
673.80        66.71347
674.22         66.7812
674.65         66.8026
675.07        66.75917
675.50        66.66438
675.92        66.57999
676.35        66.61217
676.77        66.76891
677.20        66.99232
677.62        67.24605
678.05        67.21384
678.47        67.28239
678.90        67.15408
679.32        67.02045
679.75        66.85151
680.17        66.93774
680.60        67.03976
681.02        67.14465
681.45        67.08565
681.87        66.85359
682.30        66.51527
682.72        66.20376
683.15        66.13425
683.57        66.36176
684.00        66.71794
684.42        67.22359
684.85        67.48623
685.27        67.48083
685.70         67.2916
686.12        67.00674
686.54        66.81141
686.97        66.74638
687.39        66.77335
687.82           66.83
688.24        66.86871
688.66        66.85103
689.09        66.80413
689.51        66.77877
689.94        66.82263
690.36        66.95167
690.78        67.13763
691.21         67.3166
691.63        67.39678
692.06        67.36058
692.48        67.24249
692.90        67.11617
693.33        67.08342
693.75        67.17193
694.17        67.35865
694.60        67.57805
695.02        67.71297
695.44        67.69855
695.87        67.70277
696.29        67.78051
696.71        67.55305
697.14        67.19534
697.56         67.7042
697.98        68.79391
698.41        68.60943
698.83        67.84921
699.25        67.29137
699.68        67.24476
700.10          67.137
700.52        67.00414
700.94        67.18365
701.37         67.5797
701.79        67.93394
702.21        68.14837
702.64        68.30441
703.06        68.36081
703.48        68.24398
703.90        67.97217
704.33        67.56435
704.75        67.13158
705.17        66.94139
705.59         67.0589
706.01        67.30901
706.44        67.54897
706.86        68.12582
707.28        68.07276
707.70        68.14114
708.12         68.1064
708.55        68.04795
708.97        67.96976
709.39        67.85776
709.81        67.75993
710.23        67.74893
710.66        67.83925
711.08         68.0415
711.50        68.24991
711.92        68.30784
712.34        68.18541
712.76        67.91127
713.19        67.61243
713.61        67.54302
714.03        67.74245
714.45        68.07107
714.87        68.47064
715.29        68.57025
715.71        68.34825
716.13        67.89991
716.56        67.39257
716.98        67.12142
717.40        67.15724
717.82        67.40762
718.24        67.75603
718.66         68.0037
719.08        68.08427
719.50        68.06202
719.92        67.96676
720.34        67.86485
720.76        67.78979
721.19        67.60398
721.61        67.55994
722.03        67.59889
722.45        67.78751
722.87        68.09692
723.29         68.4388
723.71        68.65524
724.13        68.69884
724.55        68.60645
724.97        68.44613
725.39        68.33814
725.81        68.31738
726.23        68.34763
726.65         68.3884
727.07        68.37292
727.49        68.29189
727.91        68.18892
728.33        68.09276
728.75        68.04536
729.17        68.05931
729.59        68.10379
730.01        68.20039
730.43        68.37805
730.85        68.62987
731.27        68.96873
731.69        69.27791
732.10        69.34766
732.52         69.1442
732.94        68.77048
733.36        68.42685
733.78        68.30904
734.20        68.47042
734.62        69.13845
735.04        70.04971
735.46        70.07207
735.88        69.41058
736.30        69.66543
736.72        70.78159
737.13        71.16009
737.55         70.5843
737.97        70.37394
738.39        70.57793
738.81        69.85594
739.23        68.64778
739.65        69.41225
740.06        71.65244
740.48        71.95119
740.90        70.38097
741.32        69.69786
741.74        70.15756
742.16        70.42243
742.57        70.53588
742.99        71.23618
743.41        72.29778
743.83         72.9294
744.25        72.99274
744.67        72.69463
745.08        72.26665
745.50        72.08338
745.92        72.26993
746.34        72.70119
746.75          73.221
747.17        73.56594
747.59        73.67742
748.01        73.62977
748.42        73.58884
748.84        73.79742
749.26        74.30457
749.68        75.00111
750.09        75.68048
750.51         76.0116
750.93        75.93562
751.35        75.51082
751.76         74.9337
752.18        74.68844
752.60        74.78236
753.01         74.7828
753.43        74.69945
753.85        74.91707
754.27        75.43904
754.68        76.06251
755.10        76.66476
755.52         77.1999
755.93        77.59806
756.35        77.80532
756.77        77.88291
757.18        77.87719
757.60        77.82572
758.02        77.95072
758.43         78.0568
758.85        77.63125
759.26        76.36362
759.68        76.26384
760.10         77.4895
760.51        77.97207
760.93        77.56969
761.34        76.49433
761.76        75.73669
762.18        75.21123
762.59        75.24438
763.01        75.56332
763.42        76.13223
763.84         76.6548
764.26        77.04296
764.67        77.40841
765.09        77.61194
765.50        77.32751
765.92        76.63081
766.33        75.59171
766.75        74.62861
767.16         74.4548
767.58        75.15981
768.00        76.61156
768.41        78.42531
768.83        79.51862
769.24        79.51105
769.66        78.76852
770.07        77.74484
770.49        76.59341
770.90        75.63498
771.32        76.36097
771.73          78.188
772.15        77.60222
772.56        75.08498
772.97        74.64845
773.39        76.18975
773.80         76.7326
774.22        76.07085
774.63        76.04351
775.05        76.59432
775.46        76.84708
775.88        76.70387
776.29         76.4201
776.70        76.12429
777.12        76.04947
777.53        76.26221
777.95        76.63248
778.36        76.98876
778.77        77.03596
779.19        76.74181
779.60        76.20021
780.02        75.63443
780.43        75.44452
780.84        75.75725
781.26        76.10643
781.67        76.42289
782.09        77.27853
782.50        78.24595
782.91        77.47436
783.33        75.54482
783.74        74.97758
784.15        75.89655
784.57        76.58612
784.98        76.77101
785.39        76.89442
785.81        76.87837
786.22        76.44419
786.63        75.89909
787.04        75.85036
787.46         76.3644
787.87        77.24821
788.28        78.18328
788.70        78.62507
789.11        78.44032
789.52        77.83047
789.93         77.0881
790.35        76.59109
790.76        76.46958
791.17        76.71137
791.58        77.13551
792.00        77.33396
792.41         77.2039
792.82        76.91505
793.23        76.69854
793.65        76.54295
794.06        76.65005
794.47        77.82081
794.88        79.28699
795.29         79.1524
795.71        76.83503
796.12        74.84914
796.53        73.61279
796.94        73.33781
797.35          74.054
797.76        75.19044
798.18        76.21202
798.59        76.92656
799.00        77.03611
799.41        76.25455
799.82        75.01718
800.23        74.33899
800.64        74.41961
801.06        74.87499
801.47        75.54868
801.88        76.07483
802.29        76.30788
802.70        76.40018
803.11        76.38439
803.52        76.28213
803.93        76.12941
804.34        75.87102
804.75        75.62037
805.17        75.60362
805.58        75.88847
805.99        76.32402
806.40        76.69086
806.81        76.86764
807.22        76.65087
807.63        75.57302
808.04        74.10937
808.45        73.49625
808.86        73.89336
809.27        74.77776
809.68        75.75877
810.09        76.28876
810.50        76.15098
810.91        75.52367
811.32        74.71666
811.73        74.23208
812.14        74.20846
812.55        74.45228
812.96        74.84573
813.37        75.17454
813.78        75.34211
814.19        75.48367
814.60        75.48096
815.01        75.13077
815.42        74.44027
815.83        73.41895
816.24        72.47357
816.65        72.32539
817.05        73.16268
817.46        74.75119
817.87        76.46381
818.28        77.17597
818.69        76.59373
819.10        74.99385
819.51        73.12484
819.92        72.26335
820.33        72.74644
820.74        74.19962
821.14        75.91492
821.55        76.63319
821.96        76.07119
822.37        74.65884
822.78        73.03803
823.19        72.15179
823.60        72.25246
824.00         73.0937
824.41        74.20721
824.82        74.89085
825.23        74.86513
825.64        74.37675
826.04        73.73349
826.45        73.37527
826.86        73.41522
827.27        73.67422
827.68        73.98368
828.08        74.11228
828.49        73.92516
828.90        73.57715
829.31        73.14832
829.72        72.76735
830.12        72.53178
830.53        72.36944
830.94        72.35982
831.35        72.60181
831.75        73.12879
832.16        73.86208
832.57        74.64781
832.97        75.13795
833.38        75.16402
833.79        74.81069
834.20        74.31997
834.60        74.06882
835.01        74.17316
835.42        74.52597
835.82        74.91082
836.23        74.87818
836.64        74.37129
837.04        73.56192
837.45        72.74818
837.86        72.39944
838.26        72.63173
838.67        73.25861
839.08        74.04739
839.48        74.57381
839.89        74.65975
840.29        74.45444
840.70        74.06159
841.11        73.62385
841.51        73.21751
841.92        72.76688
842.33        72.37526
842.73        72.23215
843.14        72.33038
843.54        72.67739
843.95        73.04399
844.35        73.09415
844.76        72.74587
845.17          72.122
845.57        71.45855
845.98        71.12728
846.38        71.21513
846.79        71.58116
847.19        72.08972
847.60        72.41298
848.00        72.47456
848.41         72.3458
848.81        72.13136
849.22        71.90895
849.62        71.76762
850.03        71.68216
850.43        71.69186
850.84        71.80448
851.24          72.049
851.65        72.25272
852.05        72.55921
852.46        73.01899
852.86        73.61398
853.27        74.35371
853.67        74.72076
854.07        74.04641
854.48        72.37041
854.88        69.93963
855.29        67.63779
855.69        66.74846
856.10        67.52402
856.50        69.80341
856.90        72.77795
857.31        74.55505
857.71        74.51118
858.12        73.11422
858.52        71.28179
858.92        70.23341
859.33        70.24171
859.73        70.97733
860.13        72.13348
860.54        73.06892
860.94        73.56564
861.34        73.79343
861.75        73.88383
862.15        74.12445
862.55        74.55437
862.96        75.04053
863.36        75.48116
863.76        75.69897
864.17        75.65279
864.57        75.48048
864.97        75.31088
865.38        75.31737
865.78        75.58438
866.18        75.96422
866.58        76.40498
866.99        76.81046
867.39        77.18176
867.79        77.59073
868.19        77.81214
868.60        77.43042
869.00        76.41071
869.40         74.8793
869.80        73.57128
870.21        73.62383
870.61        75.33228
871.01        78.36089
871.41        81.70332
871.81         83.6228
872.22         83.6615
872.62        82.31456
873.02        80.53693
873.42        80.03435
873.82        80.97716
874.22        82.45791
874.63        84.04996
875.03        84.83164
875.43        84.32954
875.83        83.89544
876.23        81.97872
876.63        80.86861
877.03        80.40277
877.44          80.563
877.84        105.5198
878.24        86.57986
878.64         87.6674
879.04        89.06188
879.44        85.22538
879.84        83.06445
880.24        87.01785
880.64         88.2396
881.04        87.61005
881.44        87.17488
881.84        87.10408
882.24        87.19531
882.65         87.5069
883.05        87.84875
883.45        88.22909
883.85        88.89077
884.25        89.69266
884.65        90.19545
885.05        90.28803
885.45         90.0988
885.85         89.8476
886.25         89.8633
886.65        90.21352
887.05        90.77772
887.45        91.42676
887.85        91.91374
888.25         92.1349
888.65        92.19457
889.04        92.06334
889.44        91.74973
889.84        91.27618
890.24         90.6109
890.64        89.99442
891.04        89.80074
891.44        90.06641
891.84        90.71893
892.24        91.34726
892.64        91.20293
893.04        90.21154
893.44        88.74738
893.83        87.37054
894.23        86.87365
894.63        87.39304
895.03        88.60152
895.43         90.3037
895.83        92.10183
896.23        93.70318
896.63        95.19168
897.02        96.10622
897.42        95.74368
897.82        94.11102
898.22         91.4786
898.62         88.7964
899.01        87.47209
899.41        87.79687
899.81        89.33488
900.21        91.32545
900.61        92.49529
901.00        92.48102
901.40        91.68782
901.80        90.58946
902.20        89.92459
902.59        89.90892
902.99        90.26546
903.39        90.75201
903.79        90.98742
904.18        90.85143
904.58        90.56259
904.98        90.26495
905.38        90.15196
905.77        90.26567
906.17        90.49767
906.57        90.81319
906.96        91.22976
907.36        91.65147
907.76        92.08747
908.15        92.40659
908.55        92.27676
908.95        91.70121
909.34        90.74611
909.74        89.73555
910.14        89.00413
910.53        88.68431
910.93          88.752
911.33         89.1044
911.72         89.5628
912.12        89.95184
912.52         90.2366
912.91        90.51194
913.31        90.91081
913.70        91.49508
914.10        92.24426
914.49         92.7889
914.89        92.25694
915.29        90.54687
915.68        88.07932
916.08        85.95998
916.47        85.19019
916.87        85.82327
917.26        87.52273
917.66        89.48064
918.05        90.38036
918.45        89.85454
918.84        88.35999
919.24        86.65048
919.64        85.81929
920.03        86.17414
920.42        87.35229
920.82        88.90143
921.21        90.18733
921.61        90.78188
922.00        90.92043
922.40         90.6498
922.79        90.05088
923.19        89.28219
923.58         88.1883
923.98        86.82756
924.37         85.9332
924.77         85.9575
925.16        83.92051
925.55        85.28169
925.95        86.02934
926.34        87.71143
926.74        89.84279
927.13        91.88723
927.52        92.66657
927.92        92.02641
928.31        90.36399
928.70        88.18015
929.10         86.3587
929.49        85.15962
929.89        84.37558
930.28        84.17397
930.67        84.82629
931.07        86.15924
931.46        88.17581
931.85         90.0526
932.24        90.54208
932.64        89.43929
933.03        86.92318
933.42        83.76288
933.82         81.7072
934.21        81.26635
934.60        81.97718
934.99        83.00616
935.39        83.53297
935.78        83.43613
936.17        82.47839
936.56        80.46954
936.96        81.50735
937.35        80.08332
937.74        80.60755
938.13        81.21645
938.53        82.16166
938.92        83.48241
939.31        85.31667
939.70        87.24188
940.09        87.90372
940.49        86.90942
940.88        84.82882
941.27        82.67301
941.66        81.65466
942.05        81.92203
942.44        83.05515
942.84        84.65889
943.23        86.09933
943.62        86.98471
944.01        87.49117
944.40         87.5422
944.79        87.00076
945.18        85.86633
945.57        84.06375
945.97        81.91423
946.36        80.36726
946.75        79.93462
947.14        80.35986
947.53        81.19488
947.92          81.937
948.31        82.50502
948.70        83.08406
949.09        83.59492
949.48        83.81705
949.87        83.65964
950.26        83.06892
950.65        82.37639
951.04        82.14449
951.43         82.4662
951.82        83.21915
952.21        83.91695
952.60        83.74545
952.99         82.5648
953.38        80.68128
953.77        78.72339
954.16        77.58927
954.55        77.48061
954.94        78.18638
955.33        79.16229
955.72        79.48903
956.11        78.93674
956.50        77.75231
956.89        76.59394
957.28         76.6562
957.66        78.29148
958.05        80.82273
958.44        83.41286
958.83        84.84621
959.22        84.81446
959.61        83.67902
960.00        81.89474
960.39        80.20187
960.78        78.90049
961.16        77.82561
961.55        76.91895
961.94        76.10735
962.33        75.40343
962.72        74.95943
963.11        74.77174
963.49         74.7571
963.88         74.8692
964.27        75.10034
964.66        75.43423
965.04        75.87595
965.43        76.27938
965.82        76.59938
966.21        76.84518
966.60        77.09037
966.98        77.36826
967.37        77.62301
967.76        77.74167
968.15        77.50007
968.53        76.89452
968.92         76.0155
969.31        75.12647
969.69        74.53097
970.08        74.28477
970.47        74.32503
970.86        74.46355
971.24        74.35706
971.63        73.90765
972.02        73.20101
972.40        72.48878
972.79        72.21716
973.17        72.60384
973.56        73.41422
973.95        74.38446
974.33        74.96061
974.72        74.85371
975.11        74.21538
975.49         73.3956
975.88        72.95309
976.26        72.95983
976.65        73.29996
977.04        73.55698
977.42        72.80537
977.81        70.90736
978.19        68.36121
978.58        66.41629
978.96        66.21771
979.35        67.88663
979.74        71.15334
980.12        75.48805
980.51        78.53484
980.89        79.52668
981.28        78.98479
981.66        77.54704
982.05        76.07355
982.43        74.86105
982.82         73.6086
983.20        72.86945
983.59        73.54756
983.97        75.86797
984.35        79.88888
984.74        84.33271
985.12        86.35339
985.51        84.43555
985.89          79.062
986.28        72.41251
986.66        68.19051
987.04        67.59757
987.43        69.48931
987.81        71.93979
988.20        72.60657
988.58        70.81826
988.96        66.45291
989.35        60.16645
989.73        56.62395
990.12        59.46139
990.50        66.84392
990.88        73.56376
991.27        75.48672
991.65        73.08681
992.03         67.6421
992.42        61.75462
992.80        59.95079
993.18        63.28428
993.56        69.10913
993.95        74.88844
994.33        78.38705
994.71        79.19309
995.10          78.495
995.48        76.69556
995.86        74.12387
996.24        71.01194
996.63        66.92912
997.01         62.7245
997.39        61.23597
997.77        63.62783
998.15        69.35388
998.54         75.5574
998.92        78.38052
999.30        76.64713
999.68        71.25945
1000.06         63.7902
1000.45        58.23283
1000.83        56.26791
1001.21        56.69006
1001.59        58.46529
1001.97        60.50818
1002.35        62.46865
1002.73        65.03498
1003.12        67.44806
1003.50         67.2255
1003.88        63.57885
1004.26         57.9571
1004.64        52.70218
1005.02        49.60162
1005.40        48.66919
1005.78        49.57211
1006.16        53.43164
1006.54        60.47996
1006.92        67.12296
1007.30        71.31683
1007.69        73.30558
1008.07        74.40623
1008.45        75.19019
1008.83        75.52779
1009.21        73.53922
1009.59        59.26082
1009.97        5.639219
1010.35       -86.99042
1010.73       -88.50838
1011.11       -37.61169
1011.49        3.249175
1011.86        33.56226
1012.24        50.91916
1012.62         57.7943
1013.00        58.05084
1013.38        53.30856
1013.76        45.93215
1014.14        44.95164
1014.52        58.32792
1014.90        88.45619
1015.28        127.0412
1015.66        147.8822
1016.04        135.0165
1016.41        93.62092
1016.79        48.23999
1017.17        25.27686
1017.55        23.20495
1017.93        29.25845
1018.31        36.49946
1018.69        41.46497
1019.06        44.24866
1019.44        45.47615
1019.82        46.86993
1020.20        52.65421
1020.58         68.5353
1020.95         105.099
1021.33        175.0506
1021.71       -430.9839
1022.09        90.79307
1022.46        130.9394
1022.84        150.2178
1023.22        165.8761
1023.60        193.1678
1023.97        435.7997
1024.35         31.8191
1024.73        81.73772
