SpectraSmart Spectrum 2.9.0.0
--------- Device Information -----------
Spectrum Name :  反射率_0
Saving Time :  2024/04/26 02:00:00
Spectro-Module Model Name : SE2030-DUVN
Spectro-Module Serial Number : OS361AC55029948
Wavelength Start : 200
Wavelength End : 1025
Wavelength Unit : Wavelength(nm)
Spectrum Unit : Reflectance(%)
-----------Spectrum Setting ------------
Integration Time : 20ms
Average : 10
Boxcar : 0
Background removal :  enabled
linearity correction :  enabled
SC :  disabled
Intensity correction :  disabled
DWT denoise :  enabled
savitzky-golay :  disabled
FFT :  disabled
Running average :  disabled
Kalman :  disabled
High pass :  disabled
---------------BEGIN--------------------
Wavelength(nm)             Reflectance(%)
200.29               0
200.75        96.23583
201.21        90.21853
201.67         82.5798
202.13        77.00425
202.58        74.13696
203.04        73.49222
203.50        74.01836
203.96        74.10029
204.42        73.39174
204.88        72.36822
205.34         72.0729
205.80         73.9138
206.26         78.9408
206.72        89.91035
207.18        110.7436
207.64        127.7437
208.10        113.7132
208.55        87.69939
209.01        71.51408
209.47        65.87217
209.93        66.21207
210.39        70.36367
210.85        75.79976
211.31        77.25219
211.77        73.06454
212.23        65.27839
212.69        57.76765
213.14        56.50813
213.60        62.32413
214.06        73.29623
214.52        85.36032
214.98        92.41296
215.44        92.84822
215.90        88.66579
216.36        82.54453
216.81        78.13577
217.27        76.67622
217.73        76.93172
218.19        77.11144
218.65        74.77148
219.11        68.90357
219.57        58.88369
220.02        46.06422
220.48        38.54795
220.94        40.91726
221.40        51.06952
221.86        61.04843
222.32        62.55645
222.77        56.46287
223.23        47.37174
223.69        39.75338
224.15        38.18277
224.61        42.16788
225.06        49.36135
225.52        56.65985
225.98           60.21
226.44         59.2606
226.90        55.46684
227.36        50.82352
227.81        47.95663
228.27        47.78655
228.73        49.23782
229.19        51.36332
229.65        52.81112
230.10        53.23489
230.56        53.21838
231.02        53.23107
231.48        53.77142
231.93         54.8482
232.39          56.229
232.85        57.56772
233.31        58.44067
233.77        58.71283
234.22        58.48919
234.68        57.97236
235.14        57.52882
235.60        57.33202
236.05        57.35906
236.51        57.40499
236.97        57.08998
237.43        56.35923
237.88        55.37056
238.34        54.52122
238.80         55.0897
239.26        57.57967
239.71        61.68414
240.17        66.24204
240.63        69.72673
241.08        71.64548
241.54        72.30278
242.00        72.13451
242.46        71.78181
242.91        71.70202
243.37        71.20217
243.83        72.52216
244.28        94.42655
244.74        150.9978
245.20        159.5671
245.66        148.2548
246.11        144.5348
246.57        147.2806
247.03        157.6517
247.48        175.7618
247.94        119.9586
248.40         89.3231
248.85        85.18079
249.31        86.02166
249.77        88.02518
250.22        91.10931
250.68        96.42432
251.14        103.8833
251.59        108.4257
252.05        105.3774
252.51        96.99866
252.96        88.39393
253.42        84.92999
253.88        86.02262
254.33        89.61898
254.79        94.65346
255.25        98.95809
255.70        101.6229
256.16         103.666
256.62        104.4551
257.07        103.2406
257.53        100.8039
257.99        97.10303
258.44        93.20482
258.90        91.45538
259.35        90.87556
259.81        90.89487
260.27        89.92873
260.72        86.42572
261.18        81.27647
261.63        75.10335
262.09        69.47852
262.55        65.43471
263.00        62.90738
263.46        61.51353
263.91        60.38709
264.37        58.99583
264.83        57.07865
265.28        54.72634
265.74        52.39838
266.19        50.50695
266.65        49.33647
267.11        48.63488
267.56        47.98967
268.02        46.92107
268.47        45.27884
268.93        43.24041
269.38        41.10816
269.84        39.64541
270.30        39.06203
270.75        39.14766
271.21        39.46836
271.66        39.36378
272.12        38.66111
272.57        37.55105
273.03        36.38665
273.48        35.60812
273.94         35.3396
274.39         35.3633
274.85        35.41734
275.31        35.10588
275.76        34.34706
276.22        33.33625
276.67        32.27767
277.13        31.56672
277.58        31.21938
278.04        31.12994
278.49        31.07283
278.95        30.81366
279.40        30.26734
279.86        29.59071
280.31         28.8521
280.77        28.27363
281.22        27.86302
281.68        27.58126
282.13        27.37486
282.59        27.21955
283.04        27.08316
283.50        27.01775
283.95        26.95853
284.41        26.82976
284.86        26.61466
285.32        26.34399
285.77         26.1246
286.22        26.18974
286.68        26.53636
287.13        27.04572
287.59        27.50911
288.04        27.60114
288.50         27.2963
288.95        26.69626
289.41        26.01032
289.86        25.43668
290.32         25.1061
290.77        24.94803
291.22        24.97363
291.68        25.15625
292.13        25.48024
292.59        25.96471
293.04        26.58787
293.50        27.30781
293.95        28.08854
294.40        28.90307
294.86        29.72765
295.31        30.54535
295.77        31.36531
296.22        32.19917
296.68        33.05758
297.13        33.92585
297.58        34.82237
298.04        35.76814
298.49        36.81464
298.95        38.08949
299.40         39.5949
299.85         41.2849
300.31        43.04042
300.76        44.66967
301.21        46.09464
301.67        47.39227
302.12        48.57856
302.58         49.7819
303.03        51.01881
303.48        52.28971
303.94        53.66952
304.39        55.21117
304.84        56.92638
305.30        58.78898
305.75        60.65096
306.20        62.30927
306.66        63.73303
307.11        64.92432
307.57        66.03034
308.02        67.15976
308.47         68.4056
308.93          69.746
309.38        71.10837
309.83        72.43011
310.29        73.67767
310.74         74.8335
311.19        75.95529
311.65        77.13025
312.10        78.35707
312.55         79.6194
313.00        80.76798
313.46        81.56734
313.91        81.96558
314.36        82.05978
314.82        82.10972
315.27        82.46633
315.72        83.24461
316.18        84.34143
316.63        85.56033
317.08        86.52794
317.53        87.12447
317.99        87.43585
318.44        87.65216
318.89         88.0898
319.35        88.80447
319.80        89.72549
320.25        90.59664
320.70        91.00441
321.16        90.86881
321.61        90.33506
322.06        89.72845
322.51        89.55563
322.97        89.90915
323.42        90.67139
323.87         91.5475
324.32        92.02818
324.78        91.96301
325.23        91.55886
325.68        91.03128
326.13        90.75887
326.59        90.84114
327.04        91.18581
327.49        91.70142
327.94        92.26958
328.39        92.82314
328.85        93.38432
329.30         93.9427
329.75        94.30482
330.20        94.45814
330.66        94.43038
331.11        94.43011
331.56        94.73165
332.01         95.4183
332.46        96.39643
332.92        97.51627
333.37         98.6819
333.82        99.71376
334.27        100.6413
334.72        101.3423
335.17        101.6348
335.63        101.5181
336.08        101.0997
336.53        100.6237
336.98        100.5348
337.43        100.9499
337.88        101.7496
338.34        102.7611
338.79        103.7739
339.24        104.6438
339.69        105.4552
340.14        106.1084
340.59        106.4365
341.05        106.4422
341.50        106.1433
341.95         105.816
342.40         105.908
342.85        106.5036
343.30        107.4918
343.75        108.5711
344.20        109.1949
344.66        109.2335
345.11        108.8517
345.56        108.3273
346.01        108.0808
346.46        108.2277
346.91        108.6227
347.36        109.1356
347.81        109.5747
348.26        109.8706
348.72        110.1035
349.17        110.2612
349.62        110.3627
350.07        110.4164
350.52        110.3977
350.97        110.3255
351.42        110.2465
351.87         110.172
352.32        110.0995
352.77        110.0089
353.22        109.8611
353.67        109.6498
354.13        109.4044
354.58        109.1194
355.03        108.8458
355.48        108.5891
355.93        108.3301
356.38        108.0452
356.83        107.6994
357.28        107.2811
357.73        106.8032
358.18         106.273
358.63        105.7003
359.08        105.1002
359.53        104.4839
359.98        103.8637
360.43        103.2567
360.88        102.6612
361.33        102.0583
361.78        101.4649
362.23        100.9083
362.68        100.3917
363.13        99.92409
363.58        99.42381
364.03        98.75715
364.48        97.91405
364.93        96.93743
365.38        95.98757
365.83        95.32685
366.28        94.99648
366.73        94.89384
367.18        94.83636
367.63         94.5266
368.08        93.89153
368.53        93.04951
368.98          92.098
369.43        91.17654
369.88        90.34566
370.33        89.56132
370.78         88.8837
371.23        88.41871
371.68        88.17447
372.13         88.1303
372.58        88.15819
373.03        88.02746
373.48        87.67919
373.93        87.17596
374.38        86.62216
374.83         86.1856
375.28         85.9046
375.72        85.70419
376.17         85.5465
376.62        85.35101
377.07        85.07916
377.52         84.7447
377.97        84.34447
378.42        83.87157
378.87        83.34405
379.32        82.79131
379.77        82.21384
380.22        81.60287
380.67        80.96313
381.11        80.29922
381.56        79.69049
382.01        79.27189
382.46        79.07353
382.91        79.06994
383.36        79.10789
383.81         78.9424
384.26        78.52327
384.71        77.90905
385.15        77.27189
385.60        76.94553
386.05        76.93537
386.50        77.13036
386.95        77.30125
387.40        77.07306
387.85        76.41342
388.29        75.47904
388.74        74.60468
389.19        73.97138
389.64         73.6104
390.09        73.39893
390.54        73.34452
390.98        73.46114
391.43         73.7085
391.88        74.06351
392.33        74.30411
392.78        74.08578
393.23        73.41458
393.67         72.4388
394.12        71.55077
394.57        71.00314
395.02        70.90667
395.47        71.30503
395.91        72.03462
396.36        72.52607
396.81        72.64594
397.26        72.57827
397.71        72.38239
398.15        72.02016
398.60        71.61914
399.05        71.24752
399.50        70.92078
399.95        70.32651
400.39        69.85655
400.84         69.6212
401.29        69.68253
401.74        69.69427
402.18        69.64198
402.63        69.66292
403.08        69.80068
403.53        70.01742
403.97        70.29282
404.42        70.59933
404.87        70.80345
405.32        70.67408
405.76        70.18182
406.21         69.5084
406.66        68.82613
407.11        68.35241
407.55         68.2168
408.00        68.37036
408.45        68.71367
408.90        69.18144
409.34        69.49357
409.79        69.04497
410.24        68.11089
410.68        67.70502
411.13         67.9255
411.58        68.21017
412.03        68.48101
412.47         68.8525
412.92        69.21854
413.37        69.57149
413.81        69.81463
414.26        69.84589
414.71        69.63996
415.15        69.21997
415.60        68.73302
416.05        68.43733
416.49        68.40553
416.94        68.59727
417.39        68.83002
417.83        68.76858
418.28        68.36408
418.73        67.73997
419.17        67.16181
419.62        67.04919
420.07         67.4346
420.51        68.16626
420.96        68.96498
421.41         69.2795
421.85        68.95735
422.30        68.51981
422.74         68.0733
423.19        67.33431
423.64        66.60365
424.08        67.07589
424.53        68.50246
424.98        69.27157
425.42        69.17072
425.87        69.24956
426.31        69.56007
426.76        69.31652
427.21        68.79696
427.65        69.12882
428.10        70.17104
428.54        70.97941
428.99        71.46513
429.44        71.63068
429.88        71.55342
430.33        72.26163
430.77        73.11104
431.22        71.98899
431.66        69.43888
432.11        67.87334
432.56        67.71158
433.00        68.66676
433.45        70.51685
433.89        72.46561
434.34        73.06446
434.78        74.06834
435.23         70.6649
435.67        68.20197
436.12        70.94852
436.57        72.07598
437.01        72.75987
437.46         73.1366
437.90        73.36232
438.35        73.04182
438.79        73.51527
439.24        73.40725
439.68        73.15975
440.13        72.73711
440.57        72.46731
441.02        73.22112
441.46        74.63879
441.91        75.48387
442.35        75.48333
442.80        74.74581
443.24        73.67739
443.69        74.19595
444.13        75.91305
444.58        75.96255
445.02        74.20447
445.47          74.022
445.91        75.20358
446.36        75.61667
446.80        75.18432
447.24        75.03983
447.69        75.26343
448.13        75.50149
448.58        75.76189
449.02        76.07877
449.47        76.40658
449.91        76.68704
450.36        76.89704
450.80        77.03098
451.25        77.06673
451.69        76.94023
452.13        76.68391
452.58        76.33831
453.02        76.02532
453.47        75.95197
453.91        76.12682
454.36        76.53162
454.80        77.04236
455.24        77.07954
455.69        76.96715
456.13        76.70561
456.58        76.54644
457.02        75.95699
457.46        75.19045
457.91         75.8774
458.35        76.44814
458.79        76.86624
459.24        76.69975
459.68        76.45564
460.13        76.18999
460.57        75.95438
461.01        75.89658
461.46        74.91131
461.90        74.94967
462.34        74.87522
462.79        74.78893
463.23        75.01412
463.68        75.33561
464.12        75.68722
464.56        75.92365
465.01        75.97985
465.45        75.74794
465.89        75.49773
466.34        75.20316
466.78        74.38174
467.22        73.25365
467.67        73.07172
468.11        74.21519
468.55        74.82229
468.99        74.77767
469.44        74.37879
469.88         73.8716
470.32        73.99571
470.77        74.62031
471.21        74.73943
471.65        74.28461
472.10        73.97771
472.54        73.92734
472.98        73.94139
473.42         74.0237
473.87        74.40002
474.31        74.85523
474.75        74.72485
475.20        74.14783
475.64        73.98543
476.08        74.30801
476.52        74.30132
476.97        73.91011
477.41        74.06947
477.85         74.8508
478.29        73.77328
478.74        74.32893
479.18        74.51783
479.62        73.43631
480.06        74.10782
480.50        74.41476
480.95        74.69093
481.39        74.42413
481.83        73.87694
482.27        74.05245
482.72        73.48731
483.16        72.60757
483.60        72.79446
484.04        74.37563
484.48        74.66701
484.93        74.39245
485.37        75.80891
485.81        76.83542
486.25        75.35612
486.69        101.1518
487.14        81.71725
487.58        50.90108
488.02        63.43993
488.46        71.80526
488.90        71.36691
489.34         73.1118
489.79        72.36147
490.23        74.36869
490.67        75.16894
491.11        74.06153
491.55        74.08762
491.99        74.76672
492.43        74.67592
492.88        73.89878
493.32        73.85891
493.76        74.02763
494.20        74.26141
494.64        74.31097
495.08         74.3708
495.52        74.49924
495.96        74.51155
496.41        74.35829
496.85        74.75084
497.29        75.43565
497.73        74.22536
498.17        72.17774
498.61         72.5474
499.05        75.27159
499.49        75.81426
499.93        75.77387
500.37        75.31004
500.82         74.4418
501.26        74.50829
501.70        75.20872
502.14        75.55575
502.58         75.3677
503.02        75.25026
503.46        75.19473
503.90        74.81892
504.34        74.28413
504.78        74.05067
505.22        74.17712
505.66        74.50443
506.10        74.90848
506.54        75.15005
506.98        75.07767
507.42         74.9053
507.86        74.52636
508.30        73.83498
508.74         74.2121
509.18         74.3284
509.62        74.50974
510.06        74.64973
510.50        74.71893
510.94        74.73521
511.38         74.7167
511.82        74.72068
512.26        74.75915
512.70        74.80744
513.14        74.86419
513.58        74.93494
514.02        75.01174
514.46        75.09175
514.90        75.15836
515.34        75.17002
515.78        75.11353
516.22        75.05478
516.66         75.0141
517.10        74.88177
517.54        74.66972
517.98        74.89162
518.42        74.81961
518.86        74.96817
519.30        75.10929
519.74        75.29773
520.18        75.49307
520.62        75.62082
521.06        75.67329
521.50        75.66831
521.93        75.62461
522.37        75.57479
522.81        75.53829
523.25        75.50432
523.69        75.49979
524.13        75.56467
524.57        75.70036
525.01        75.89846
525.45        76.09541
525.89        76.18756
526.32        76.14414
526.76        75.98894
527.20        75.79649
527.64        75.70659
528.08         75.7654
528.52        75.86918
528.96        75.90313
529.40        75.90574
529.83        75.89057
530.27        75.07919
530.71        75.07518
531.15        74.87464
531.59        74.96049
532.03        75.22162
532.46        75.59236
532.90        75.92857
533.34        76.15723
533.78        76.31781
534.22        76.39467
534.66        76.37383
535.09        76.25317
535.53        76.05992
535.97        75.83092
536.41        75.65382
536.85        75.55936
537.28        75.53987
537.72        75.56264
538.16        75.58218
538.60        75.58276
539.04        75.51453
539.47        75.40596
539.91        75.50343
540.35        75.72776
540.79        75.74516
541.22          75.553
541.66         75.4559
542.10        75.45544
542.54        75.36732
542.97        75.23585
543.41        75.24887
543.85        75.40788
544.29        75.67744
544.72        75.92392
545.16        75.97338
545.60        75.78765
546.04        75.41595
546.47        75.03854
546.91        74.99048
547.35        75.31557
547.79         75.8526
548.22        76.35405
548.66        76.58942
549.10        76.41353
549.53        75.64291
549.97        74.65031
550.41        74.19173
550.84         74.3539
551.28        74.92085
551.72        75.69357
552.15        76.00513
552.59        75.65614
553.03        76.38077
553.46        75.49427
553.90        75.42633
554.34        75.40898
554.77        75.40918
555.21        75.39218
555.65        75.35275
556.08        75.74348
556.52        75.24831
556.96        75.71972
557.39         75.6516
557.83        75.59489
558.27        75.52496
558.70        75.50339
559.14        75.60868
559.57        75.81123
560.01        76.07263
560.45         76.3037
560.88        76.40581
561.32        76.33942
561.75         76.0554
562.19        75.68649
562.63        75.19724
563.06        74.77232
563.50        74.97867
563.93        75.62579
564.37        75.90771
564.80        75.72948
565.24         75.5678
565.68        75.48055
566.11        75.40584
566.55         75.4221
566.98         75.4436
567.42        75.49426
567.85        75.77383
568.29        76.21947
568.72        76.24782
569.16        76.08784
569.60        76.38355
570.03        76.77367
570.47        76.86945
570.90        76.36697
571.34        74.45987
571.77        75.46958
572.21        75.34576
572.64        74.95392
573.08          74.247
573.51        71.05151
573.95        73.81075
574.38        78.22801
574.82        76.21566
575.25        75.31925
575.69        73.10252
576.12        71.77092
576.56        71.21268
576.99        72.85725
577.42        75.92371
577.86        76.11658
578.29        75.49976
578.73        79.12376
579.16        73.01655
579.60        67.10132
580.03        70.02094
580.47        74.57666
580.90        76.27426
581.33        75.11581
581.77        73.67619
582.20        80.97778
582.64        80.42613
583.07        69.04257
583.51        67.83929
583.94        66.56921
584.37        69.65996
584.81         73.4152
585.24        77.30839
585.68        78.95878
586.11        77.08104
586.54         72.0871
586.98        69.74725
587.41        70.35883
587.85        74.68674
588.28        76.95032
588.71        73.57734
589.15         71.0754
589.58        72.77632
590.01        73.13027
590.45        74.00092
590.88        74.99377
591.31        74.17067
591.75        73.59937
592.18        73.72256
592.61        75.51994
593.05        75.86434
593.48        78.74815
593.91        79.59856
594.35        73.16315
594.78        71.77385
595.21        71.31834
595.65        74.51302
596.08        77.44877
596.51        74.46239
596.94        72.56825
597.38        73.38149
597.81         76.4118
598.24        77.92287
598.68        76.37471
599.11        75.07671
599.54        78.14854
599.97        79.30639
600.41        73.87247
600.84        73.85266
601.27         75.4673
601.70        74.80074
602.14        74.93258
602.57        73.89129
603.00        74.20647
603.43        76.12832
603.87        77.49179
604.30        76.99656
604.73         74.8133
605.16        73.08593
605.60        74.38662
606.03        75.53385
606.46        76.53524
606.89        76.11192
607.32        74.27386
607.76        73.91794
608.19        76.56721
608.62        75.53358
609.05        74.26515
609.48        74.81525
609.92        74.58524
610.35        74.49989
610.78        76.34212
611.21        76.72314
611.64        73.67146
612.07        74.56242
612.50        75.09685
612.94        75.64842
613.37        75.07872
613.80         75.2184
614.23        75.66289
614.66        75.50335
615.09        75.70019
615.52         75.7213
615.96        75.69243
616.39        75.78876
616.82         74.7114
617.25        74.57467
617.68        75.17128
618.11        75.96758
618.54        76.60075
618.97        76.06696
619.40        74.86382
619.84        74.38051
620.27        75.65155
620.70        76.40064
621.13        76.71865
621.56        75.86423
621.99        75.10606
622.42        75.91019
622.85         77.9276
623.28        77.74957
623.71        77.00481
624.14        76.59882
624.57        76.63606
625.00        76.12087
625.43        76.47803
625.86        75.82469
626.29        76.02397
626.72         76.6209
627.15        76.34749
627.58        76.51971
628.01        76.56149
628.44        76.93697
628.87        76.65592
629.30         76.8881
629.73         77.5613
630.16        77.72134
630.59        77.39667
631.02        76.84443
631.45        76.27455
631.88         75.9492
632.31        75.93955
632.74        76.12553
633.17        76.39632
633.60        76.59933
634.03        76.67141
634.46        76.66097
634.89        76.59104
635.32        76.50105
635.75        76.41667
636.18        76.31618
636.61         76.2383
637.04        76.25653
637.47        76.37634
637.89        76.58659
638.32        76.80061
638.75        76.91962
639.18        76.91166
639.61        76.81387
640.04        76.65334
640.47        76.47616
640.90        76.31342
641.33        76.15032
641.76        76.00423
642.18        76.01403
642.61        76.18501
643.04        76.30714
643.47        76.27613
643.90        76.91386
644.33        76.60499
644.76        76.65509
645.18        76.60711
645.61        76.51159
646.04        76.37031
646.47        76.16676
646.90        75.99742
647.33        75.96224
647.75         76.1021
648.18        76.43664
648.61        76.75323
649.04          76.733
649.47        76.33054
649.89        75.47218
650.32        74.61304
650.75        74.65095
651.18        75.53499
651.61        76.47218
652.03         77.0023
652.46        76.92046
652.89        76.61327
653.32        75.78756
653.74        74.89023
654.17        76.53863
654.60        77.23006
655.03        74.74874
655.46        76.16802
655.88        79.96512
656.31        84.36821
656.74         186.521
657.16        121.1256
657.59        42.85414
658.02        32.83024
658.45        57.15276
658.87        73.66542
659.30         77.1202
659.73        76.16378
660.15        73.44199
660.58        75.71664
661.01         77.6636
661.44        75.52859
661.86        74.96133
662.29        75.02911
662.72        75.74082
663.14          76.896
663.57        76.83922
664.00        75.82615
664.42        75.61179
664.85        76.27274
665.27        76.67345
665.70        76.61945
666.13        76.45117
666.55        76.15403
666.98        75.63263
667.41         75.0748
667.83        74.84163
668.26        75.00957
668.69        75.43006
669.11        75.86411
669.54        76.30401
669.96         75.9586
670.39        75.50982
670.82        74.96903
671.24        74.73958
671.67        74.92941
672.09        75.36636
672.52        75.77254
672.94        76.27184
673.37        75.55929
673.80        75.37931
674.22        75.40041
674.65        75.33279
675.07        75.16374
675.50        74.92667
675.92         74.7173
676.35        74.72054
676.77        74.95727
677.20        75.28384
677.62        75.61926
678.05        75.83559
678.47        75.87984
678.90        75.80665
679.32        75.67709
679.75        75.44968
680.17        75.45536
680.60        75.42945
681.02        75.41712
681.45        75.32754
681.87        75.15892
682.30        74.93663
682.72        74.74479
683.15        74.72728
683.57        74.91847
684.00        75.18819
684.42        75.55031
684.85        75.69972
685.27        75.62499
685.70        75.39873
686.12        75.11244
686.54        74.96505
686.97         74.9924
687.39        75.15367
687.82        75.35955
688.24        75.51865
688.66        75.57438
689.09        75.55981
689.51        75.54157
689.94        75.59476
690.36        75.74572
690.78        75.95531
691.21          76.155
691.63         76.2466
692.06        76.21162
692.48        76.09328
692.90        75.96301
693.33        75.91468
693.75        75.97372
694.17        76.11726
694.60        76.29503
695.02         76.4045
695.44        76.37894
695.87        76.42987
696.29        76.58121
696.71        76.27119
697.14        75.72187
697.56        76.23402
697.98         77.4994
698.41         77.3123
698.83        76.46007
699.25        75.89306
699.68         75.9382
700.10        75.87576
700.52        75.73141
700.94        75.90752
701.37        76.31113
701.79        76.67362
702.21        76.89567
702.64        77.06173
703.06        77.12163
703.48         76.9883
703.90        76.68179
704.33        76.22794
704.75        75.75487
705.17        75.56552
705.59        75.73197
706.01        76.05096
706.44        76.36034
706.86        77.05137
707.28        77.02709
707.70        77.13583
708.12         77.1116
708.55        77.02767
708.97        76.88746
709.39         76.6795
709.81        76.48038
710.23        76.41093
710.66        76.49941
711.08        76.75142
711.50        77.02132
711.92        77.08724
712.34        76.90417
712.76        76.52293
713.19        76.12104
713.61        76.02245
714.03        76.27957
714.45        76.79446
714.87        77.33125
715.29        77.51606
715.71        77.26942
716.13        76.71496
716.56         76.0817
716.98        75.77073
717.40        75.87885
717.82        76.28391
718.24        76.79886
718.66        77.10719
719.08        77.11466
719.50        76.92244
719.92        76.64092
720.34        76.46421
720.76        76.45187
721.19        76.40805
721.61        76.53596
722.03        76.63358
722.45        76.74267
722.87        76.87823
723.29        77.01152
723.71        77.07979
724.13        77.07014
724.55        76.99387
724.97         76.8995
725.39        76.87418
725.81        76.93845
726.23         77.0684
726.65        77.21832
727.07        77.31269
727.49        77.33522
727.91        77.31443
728.33        77.28358
728.75        77.29811
729.17        77.36989
729.59        77.47012
730.01        77.58808
730.43         77.6994
730.85         77.7995
731.27        77.92894
731.69        78.04518
732.10        78.05331
732.52        77.94076
732.94        77.77589
733.36        77.68311
733.78        77.71529
734.20        77.88089
734.62        78.48325
735.04         79.2913
735.46        79.13888
735.88        78.30737
736.30        78.57778
736.72        79.85394
737.13        80.31023
737.55        79.69625
737.97        79.41563
738.39        79.58557
738.81        79.02545
739.23        78.12637
739.65        79.08845
740.06        81.36805
740.48        81.63426
740.90        79.99677
741.32        79.26001
741.74        79.71056
742.16        79.97916
742.57        80.12393
742.99        80.94685
743.41         82.1806
743.83        82.90563
744.25        82.95825
744.67        82.58387
745.08         82.0606
745.50        81.83176
745.92        82.04383
746.34        82.54839
746.75        83.14868
747.17        83.51539
747.59        83.57732
748.01        83.43451
748.42        83.29597
748.84        83.46912
749.26        84.02022
749.68        84.81278
750.09        85.61143
750.51        86.03755
750.93         86.0173
751.35        85.61967
751.76        85.03841
752.18        84.78177
752.60        84.85061
753.01        84.75867
753.43        84.56649
753.85         84.7953
754.27         85.4695
754.68        86.34483
755.10        87.19936
755.52        87.84445
755.93        88.16581
756.35         88.1407
756.77        87.96819
757.18        87.82507
757.60        87.78931
758.02        88.22289
758.43        88.74947
758.85        87.95316
759.26         86.4403
759.68        85.77963
760.10        87.55717
760.51        88.23858
760.93         87.5639
761.34        86.46637
761.76        85.97443
762.18        85.60201
762.59        85.67954
763.01        85.85472
763.42        86.17903
763.84        86.70808
764.26        87.41871
764.67        88.03552
765.09        88.34886
765.50        88.44279
765.92        88.15036
766.33        86.56103
766.75         84.3976
767.16        83.70654
767.58        84.70722
768.00        86.61573
768.41        88.87366
768.83        90.25679
769.24        90.28059
769.66        89.50526
770.07        88.41962
770.49        86.97219
770.90        85.58596
771.32         86.2268
771.73        88.26939
772.15        87.59758
772.56        84.76204
772.97        84.40129
773.39        86.36758
773.80         87.1603
774.22        86.50198
774.63        86.51425
775.05        87.13839
775.46        87.39367
775.88        87.17888
776.29        86.77016
776.70        86.34109
777.12        86.20361
777.53        86.44679
777.95        86.92739
778.36        87.40968
778.77         87.4809
779.19        87.09148
779.60        86.36577
780.02        85.63637
780.43        85.47779
780.84        86.05091
781.26        86.78844
781.67        87.49591
782.09        88.61842
782.50        89.62065
782.91        88.47217
783.33        85.96014
783.74        85.12957
784.15        86.16494
784.57        87.06583
784.98        87.43805
785.39        87.63982
785.81        87.54421
786.22        86.89796
786.63        86.10136
787.04        85.91071
787.46        86.42073
787.87        87.38061
788.28        88.43999
788.70         88.9873
789.11        88.85935
789.52        88.33061
789.93        87.66727
790.35        87.08369
790.76        86.76272
791.17        86.96471
791.58         87.5077
792.00        87.72968
792.41        87.51782
792.82        87.23069
793.23        87.09499
793.65         86.8988
794.06        86.87995
794.47        88.13193
794.88        89.81763
795.29        89.62655
795.71        87.01711
796.12        84.87797
796.53        83.66919
796.94         83.3157
797.35         83.9116
797.76        85.30142
798.18        86.83523
798.59        87.76949
799.00        87.72768
799.41        86.68369
799.82        85.18027
800.23        84.30892
800.64        84.31516
801.06        84.78294
801.47        85.53878
801.88         86.1746
802.29        86.52156
802.70        86.74908
803.11        86.85914
803.52        86.81859
803.93        86.65308
804.34         86.3107
804.75        85.95943
805.17        85.91615
805.58        86.26919
805.99        86.85592
806.40        87.39455
806.81         87.5919
807.22        87.24549
807.63        86.07357
808.04        84.54958
808.45        83.78218
808.86        83.94177
809.27        84.58112
809.68        85.38137
810.09        85.88376
810.50        85.90126
810.91        85.59499
811.32        85.16538
811.73        84.93782
812.14        84.99986
812.55        85.18089
812.96        85.45458
813.37        85.78385
813.78        86.11062
814.19        86.50343
814.60        86.71836
815.01        86.36662
815.42        85.42467
815.83        83.97646
816.24        82.55046
816.65        82.07454
817.05        82.81466
817.46        84.47581
817.87         86.3668
818.28        87.24311
818.69        86.75925
819.10        85.22064
819.51        83.38353
819.92        82.53701
820.33         83.0229
820.74        84.45121
821.14        86.10986
821.55        86.73904
821.96        86.07073
822.37        84.55337
822.78        82.85347
823.19        81.94608
823.60        82.08598
824.00        83.01385
824.41        84.24287
824.82        85.05946
825.23         85.1636
825.64        84.81142
826.04        84.24435
826.45        83.80974
826.86        83.61686
827.27        83.50835
827.68        83.46027
828.08        83.49751
828.49        83.53539
828.90        83.66986
829.31        83.79033
829.72        83.66626
830.12        83.29105
830.53        82.71272
830.94        82.19833
831.35        82.11459
831.75        82.56847
832.16        83.39346
832.57        84.37611
832.97        85.05783
833.38        85.20309
833.79        84.93934
834.20        84.50444
834.60        84.26063
835.01        84.33273
835.42        84.61067
835.82        84.90218
836.23         84.8031
836.64        84.27722
837.04        83.48442
837.45        82.72625
837.86        82.47578
838.26        82.83943
838.67        83.61607
839.08        84.52885
839.48        85.07354
839.89        85.05173
840.29        84.65118
840.70        84.02548
841.11        83.38683
841.51        82.84004
841.92        82.29296
842.33        81.87102
842.73        81.79822
843.14        82.05608
843.54        82.63878
843.95        83.23974
844.35        83.39999
844.76        83.00465
845.17        82.20989
845.57        81.31549
845.98        80.79993
846.38        80.78339
846.79        81.09982
847.19        81.60165
847.60        81.92212
848.00        81.97744
848.41        81.85465
848.81        81.66996
849.22        81.51492
849.62        81.48525
850.03        81.54569
850.43        81.71893
850.84        81.95584
851.24        82.27877
851.65        82.50089
852.05        82.81821
852.46        83.35847
852.86        84.11038
853.27         85.0528
853.67        85.57772
854.07        84.88573
854.48        83.01488
854.88        80.27625
855.29        77.65208
855.69        76.56372
856.10        77.29208
856.50        79.63618
856.90        82.77544
857.31        84.77687
857.71        84.97652
858.12        83.84413
858.52        82.17189
858.92        81.03001
859.33        80.67657
859.73         80.8112
860.13        81.31365
860.54        81.95313
860.94        82.67371
861.34        83.52059
861.75        84.35728
862.15        85.03201
862.55        85.45175
862.96        85.59858
863.36        85.52471
863.76        85.31472
864.17        85.03481
864.57        84.73299
864.97        84.51109
865.38        84.50654
865.78        84.78064
866.18        85.23008
866.58        85.75626
866.99        86.15812
867.39        86.42788
867.79        86.64203
868.19        86.67977
868.60         86.3204
869.00        85.59711
869.40        84.58465
869.80        83.85595
870.21        84.28788
870.61        86.10809
871.01        89.01843
871.41        92.17843
871.81        94.14294
872.22        94.48451
872.62        93.59312
873.02        92.22202
873.42        91.65556
873.82        92.14444
874.22        93.23056
874.63        94.47201
875.03        94.98476
875.43        94.38445
875.83        93.46676
876.23        92.18963
876.63        92.15643
877.03        93.64417
877.44        97.01747
877.84        99.27991
878.24        104.8708
878.64        103.9461
879.04        100.9868
879.44        98.21404
879.84        96.52251
880.24        97.62206
880.64        99.02031
881.04        100.7167
881.44        101.6803
881.84        101.0371
882.24        99.33257
882.65        97.63194
883.05        97.13166
883.45        98.04294
883.85        100.1022
884.25        102.5288
884.65        103.8511
885.05        103.6081
885.45        102.3224
885.85        100.8346
886.25        100.2959
886.65        100.9453
887.05        102.3794
887.45        104.1175
887.85        105.3008
888.25        105.5992
888.65        105.3241
889.04        104.6668
889.44        103.9652
889.84        103.3592
890.24        102.7194
890.64        102.2029
891.04        102.0712
891.44        102.3402
891.84        102.9998
892.24        103.7285
892.64        103.9034
893.04        103.4325
893.44        102.5705
893.83        101.7411
894.23        101.5965
894.63        102.2301
895.03        103.3703
895.43        104.8186
895.83        106.1833
896.23        107.2271
896.63        108.0659
897.02        108.4138
897.42        107.8303
897.82        106.3793
898.22        104.2529
898.62        102.2053
899.01        101.3368
899.41        101.8603
899.81        103.3985
900.21        105.2673
900.61        106.3313
901.00        106.2621
901.40        105.4116
901.80         104.211
902.20        103.3459
902.59        103.0258
902.99        103.0126
903.39        103.1113
903.79        103.0002
904.18        102.6068
904.58        102.1625
904.98        101.8139
905.38        101.7497
905.77        101.9865
906.17        102.3852
906.57        102.9186
906.96        103.6248
907.36        104.3919
907.76         105.212
908.15        105.8141
908.55        105.6405
908.95        104.6665
909.34        103.0296
909.74        101.3062
910.14        100.2316
910.53        100.0488
910.93        100.6506
911.33        101.6942
911.72        102.5306
912.12        102.8623
912.52        102.8106
912.91        102.7394
913.31        103.1698
913.70        104.2459
914.10        105.8562
914.49        107.4461
914.89        107.5252
915.29        105.7186
915.68        102.6043
916.08            99.7
916.47        98.41941
916.87        98.90511
917.26        100.7194
917.66        102.8104
918.05         103.463
918.45        102.2577
918.84        99.81036
919.24        97.29163
919.64        96.41689
920.03        97.60876
920.42        100.3096
920.82        103.5449
921.21        105.7321
921.61        106.1462
922.00        105.3278
922.40        103.8414
922.79        102.4006
923.19        101.2835
923.58        100.3171
923.98        99.42824
924.37        98.52504
924.77         97.8122
925.16        96.86973
925.55        97.05598
925.95        98.03598
926.34        100.1313
926.74        102.8586
927.13        105.4612
927.52        106.5461
927.92        105.9521
928.31         104.095
928.70        101.6911
929.10        99.95388
929.49        99.22205
929.89         99.1989
930.28        99.80075
930.67        100.8745
931.07        102.1308
931.46        103.6705
931.85        104.9933
932.24        105.3561
932.64        104.6653
933.03        103.0274
933.42        100.7903
933.82        98.90511
934.21        97.71085
934.60        97.08326
934.99        96.89748
935.39        96.93133
935.78        97.14379
936.17        97.65038
936.56        98.16902
936.96        98.22339
937.35        97.12761
937.74        95.66562
938.13        94.55604
938.53        94.63667
938.92        95.89133
939.31        98.21173
939.70        100.8158
940.09        101.6608
940.49        100.1035
940.88        97.02596
941.27        93.90363
941.66        92.45797
942.05         92.9016
942.44        94.65855
942.84         97.0503
943.23        98.96959
943.62        99.85851
944.01        100.0122
944.40        99.68208
944.79        99.25866
945.18        98.87791
945.57        98.35214
945.97        97.54517
946.36        96.43387
946.75          95.243
947.14        94.27762
947.53        93.74364
947.92        93.72631
948.31        94.17808
948.70        95.05367
949.09        96.22697
949.48        97.32132
949.87        98.06078
950.26        98.42233
950.65        98.44671
951.04        98.28273
951.43        97.98841
951.82        97.50692
952.21        96.81091
952.60        95.91557
952.99        94.86828
953.38        93.71424
953.77        92.62959
954.16        91.80437
954.55        91.28866
954.94        91.14266
955.33        91.06933
955.72        90.55279
956.11         89.5219
956.50        88.06982
956.89        86.92094
957.28        87.37916
957.66        89.76073
958.05        93.38426
958.44        97.05082
958.83        98.99428
959.22        98.81746
959.61        96.97462
960.00        94.40291
960.39        92.66665
960.78        92.25385
961.16        92.80175
961.55        93.60242
961.94        93.44721
962.33        92.07362
962.72        90.02702
963.11        88.08591
963.49        87.22164
963.88        87.59351
964.27         88.9214
964.66        90.62106
965.04        91.48594
965.43        90.97132
965.82        89.57906
966.21        88.03299
966.60        87.25301
966.98        87.41699
967.37        88.14874
967.76        89.11079
968.15        89.66014
968.53        89.54757
968.92        88.99478
969.31        88.20279
969.69        87.36153
970.08        86.58592
970.47        85.85337
970.86        85.18838
971.24        84.68592
971.63        84.37791
972.02        84.24329
972.40        84.47973
972.79        85.33698
973.17        86.91629
973.56        89.00507
973.95        90.97498
974.33        91.63631
974.72        90.65852
975.11        88.45667
975.49        86.08422
975.88        85.00095
976.26        85.42781
976.65        87.10262
977.04        89.19784
977.42        89.62513
977.81        87.66595
978.19        84.17997
978.58        81.13998
978.96        80.58138
979.35        82.78928
979.74        87.24639
980.12        93.00267
980.51        96.64212
980.89        97.02271
981.28        95.09203
981.66        92.07705
982.05        89.54723
982.43         87.9133
982.82        86.72742
983.20         86.2325
983.59        86.93974
983.97        88.94998
984.35           92.32
984.74        96.15176
985.12        98.53514
985.51        98.22719
985.89        95.58846
986.28        91.52153
986.66        87.69872
987.04        85.15117
987.43        83.66077
987.81        83.02179
988.20        82.96654
988.58         83.3576
988.96        84.38081
989.35        86.36472
989.73        89.46882
990.12        92.38544
990.50        94.45887
990.88        94.71391
991.27        92.91145
991.65        89.49134
992.03        84.63634
992.42        79.72154
992.80        77.28644
993.18        78.15901
993.56        80.88365
993.95        84.19723
994.33        87.12943
994.71        89.24503
995.10        91.05492
995.48        92.06168
995.86        91.28986
996.24        88.56826
996.63        83.73179
997.01        78.02226
997.39        75.21265
997.77        77.03448
998.15        82.66539
998.54        89.12637
998.92        92.32774
999.30        91.00553
999.68        86.33657
1000.06        79.66517
1000.45        74.38194
1000.83        72.04993
1001.21        71.55637
1001.59         72.5239
1001.97         74.7326
1002.35        77.96227
1002.73         82.8841
1003.12        88.04826
1003.50        88.83754
1003.88        83.37667
1004.26        74.23539
1004.64        65.49632
1005.02        60.32145
1005.40        58.75261
1005.78        60.08167
1006.16        65.76176
1006.54        75.67303
1006.92        84.64612
1007.30        90.31478
1007.69        93.05836
1008.07        94.37725
1008.45        95.18668
1008.83        95.12933
1009.21        92.14897
1009.59        77.40264
1009.97        28.39817
1010.35       -50.71207
1010.73       -47.17863
1011.11       -1.432529
1011.49        33.88806
1011.86        59.87948
1012.24        74.43451
1012.62        79.07632
1013.00        77.11718
1013.38        69.58401
1013.76        58.76785
1014.14        55.04692
1014.52         68.0003
1014.90        100.9872
1015.28         145.661
1015.66        172.9437
1016.04        164.4829
1016.41        124.9031
1016.79         78.3201
1017.17        52.33648
1017.55        47.20803
1017.93        50.57412
1018.31        56.19109
1018.69        61.09212
1019.06        65.47714
1019.44        70.73586
1019.82        79.47009
1020.20        95.47367
1020.58        124.0817
1020.95        175.8529
1021.33        282.5946
1021.71        -1148.93
1022.09        14.66209
1022.46        83.01265
1022.84        107.6905
1023.22        121.1939
1023.60         136.152
1023.97        238.7523
1024.35        72.84558
1024.73        94.72892
