SpectraSmart Spectrum 2.9.0.0
--------- Device Information -----------
Spectrum Name :  反射率_0
Saving Time :  2024/04/26 01:49:50
Spectro-Module Model Name : SE2030-DUVN
Spectro-Module Serial Number : OS361AC55029948
Wavelength Start : 200
Wavelength End : 1025
Wavelength Unit : Wavelength(nm)
Spectrum Unit : Reflectance(%)
-----------Spectrum Setting ------------
Integration Time : 20ms
Average : 10
Boxcar : 0
Background removal :  enabled
linearity correction :  enabled
SC :  disabled
Intensity correction :  disabled
DWT denoise :  enabled
savitzky-golay :  disabled
FFT :  disabled
Running average :  disabled
Kalman :  disabled
High pass :  disabled
---------------BEGIN--------------------
Wavelength(nm)             Reflectance(%)
200.29               0
200.75        92.14552
201.21        85.37936
201.67         77.8784
202.13        73.55646
202.58        72.85335
203.04        75.08127
203.50        78.38857
203.96        79.62971
204.42        78.27895
204.88         75.6423
205.34        73.55095
205.80        74.06142
206.26         78.2416
206.72        88.45646
207.18        109.2428
207.64        129.7253
208.10        121.6528
208.55        99.15965
209.01        83.82754
209.47        77.60607
209.93         76.5028
210.39        78.32032
210.85        80.71767
211.31        79.34623
211.77        73.25623
212.23        64.37952
212.69        56.54578
213.14        55.56965
213.60        62.11084
214.06        74.27473
214.52        87.74744
214.98         95.9556
215.44        97.12321
215.90        93.35747
216.36        87.20774
216.81        82.19711
217.27        79.74963
217.73        78.76712
218.19        77.94908
218.65        75.52122
219.11        70.58115
219.57        62.44142
220.02        52.10483
220.48        45.96563
220.94        47.48909
221.40        55.30101
221.86         62.2565
222.32        60.85996
222.77        52.36561
223.23        41.23122
223.69        32.35387
224.15        30.79186
224.61        35.75613
225.06        44.49261
225.52        53.15404
225.98        56.78371
226.44        54.52487
226.90         48.5868
227.36        41.54612
227.81        36.85362
228.27        35.68082
228.73        36.67296
229.19        39.00585
229.65          41.466
230.10        43.43472
230.56         45.2039
231.02        46.66706
231.48        47.64721
231.93        48.18876
232.39        48.33369
232.85        48.21129
233.31        48.12112
233.77        48.15428
234.22        48.27068
234.68        48.47642
235.14        48.68309
235.60        48.88231
236.05        49.16145
236.51        49.55543
236.97        50.09693
237.43        50.87729
237.88        52.02079
238.34        53.61411
238.80        55.84387
239.26        58.55365
239.71        61.65764
240.17        64.51205
240.63        66.70452
241.08         68.2197
241.54        69.01292
242.00        69.64815
242.46        71.15285
242.91        74.73818
243.37        82.80308
243.83         106.179
244.28        176.2705
244.74        244.9731
245.20        193.4176
245.66         152.754
246.11        141.7156
246.57        147.1706
247.03         174.819
247.48        257.6428
247.94        210.2759
248.40        120.1911
248.85        93.33414
249.31        85.84058
249.77        85.68022
250.22        89.84766
250.68        98.66411
251.14        112.1299
251.59        122.3821
252.05        120.8226
252.51        110.4396
252.96        98.68534
253.42        93.38373
253.88        94.19583
254.33        98.23019
254.79        103.9359
255.25         108.598
255.70        111.1984
256.16         113.083
256.62        113.9171
257.07        113.1857
257.53        111.5932
257.99        108.8364
258.44        105.5224
258.90        103.6082
259.35        102.1926
259.81         101.115
260.27        99.15923
260.72        95.09847
261.18        89.80625
261.63        83.66743
262.09         78.0597
262.55        73.75376
263.00        70.69247
263.46        68.66205
263.91         66.9228
264.37        65.10827
264.83        62.92454
265.28        60.39805
265.74        57.88382
266.19        55.63842
266.65        53.99348
267.11        52.79335
267.56        51.74876
268.02         50.5214
268.47          48.946
268.93        47.14192
269.38        45.31595
269.84        44.06093
270.30        43.52131
270.75        43.52067
271.21        43.68933
271.66        43.46774
272.12        42.71206
272.57        41.58055
273.03        40.37734
273.48        39.46641
273.94        38.97247
274.39        38.71541
274.85        38.51115
275.31        38.06794
275.76        37.30942
276.22        36.37747
276.67        35.40029
277.13        34.67273
277.58        34.18558
278.04         33.8848
278.49        33.56599
278.95        33.02733
279.40        32.20673
279.86         31.2669
280.31        30.31785
280.77        29.65068
281.22        29.27488
281.68        29.12083
282.13        29.08525
282.59        29.07519
283.04         29.0348
283.50        29.03568
283.95        29.00903
284.41        28.88003
284.86         28.6391
285.32        28.31846
285.77        28.05725
286.22        28.14198
286.68        28.57813
287.13        29.23085
287.59        29.85234
288.04        30.05306
288.50        29.79412
288.95         29.1895
289.41         28.4869
289.86        27.93698
290.32        27.68432
290.77        27.64566
291.22        27.79477
291.68         28.0456
292.13        28.38203
292.59        28.85873
293.04        29.51669
293.50        30.41021
293.95        31.51843
294.40        32.77151
294.86        34.09353
295.31        35.38944
295.77        36.63971
296.22        37.87228
296.68        39.09071
297.13        40.26997
297.58        41.43042
298.04        42.59194
298.49        43.83761
298.95        45.35667
299.40        47.16353
299.85        49.20009
300.31        51.31618
300.76        53.25721
301.21        54.93143
301.67        56.44698
302.12        57.83072
302.58        59.24831
303.03        60.71758
303.48        62.22033
303.94        63.85258
304.39        65.69078
304.84        67.74319
305.30        69.97997
305.75        72.17044
306.20        73.99158
306.66        75.40417
307.11        76.44347
307.57        77.38466
308.02        78.50998
308.47        79.94684
308.93        81.61471
309.38        83.31535
309.83        84.79582
310.29        85.98006
310.74        86.90968
311.19        87.74559
311.65        88.72919
312.10        89.89571
312.55        91.18202
313.00        92.37123
313.46        93.12232
313.91        93.35846
314.36         93.2234
314.82        93.03747
315.27        93.22491
315.72        93.92611
316.18        95.01478
316.63        96.26144
317.08        97.23891
317.53        97.81111
317.99        98.07701
318.44        98.25818
318.89        98.72312
319.35        99.52771
319.80        100.5752
320.25        101.5549
320.70        101.9679
321.16        101.7169
321.61        100.9861
322.06        100.1445
322.51        99.76252
322.97        99.95884
323.42        100.6095
323.87        101.4359
324.32        101.9539
324.78        102.0085
325.23        101.7988
325.68        101.4947
326.13        101.4043
326.59        101.5951
327.04        101.9797
327.49        102.4764
327.94        102.9979
328.39          103.49
328.85        103.9695
329.30        104.4246
329.75        104.6423
330.20        104.6222
330.66        104.4157
331.11        104.2823
331.56        104.5638
332.01        105.3541
332.46        106.5304
332.92        107.8909
333.37        109.2655
333.82        110.4287
334.27        111.4328
334.72        112.1385
335.17        112.3446
335.63        112.0687
336.08        111.4335
336.53        110.7779
336.98        110.7052
337.43        111.3543
337.88        112.5494
338.34        114.0008
338.79        115.3064
339.24        116.2557
339.69        116.9867
340.14        117.4346
340.59        117.5075
341.05         117.265
341.50        116.7151
341.95        116.1911
342.40         116.222
342.85        116.8978
343.30        118.0889
343.75        119.4212
344.20        120.2114
344.66        120.2819
345.11        119.8201
345.56         119.145
346.01        118.7486
346.46        118.7706
346.91        119.0497
347.36         119.439
347.81        119.7212
348.26        119.8297
348.72        119.8677
349.17        119.8632
349.62         119.893
350.07        119.9729
350.52         120.047
350.97        120.0955
351.42        120.1061
351.87        120.0704
352.32        120.0069
352.77        119.8856
353.22         119.655
353.67        119.3184
354.13        118.9064
354.58        118.4738
355.03        118.1716
355.48        118.0162
355.93        117.9532
356.38        117.8652
356.83        117.5663
357.28         117.009
357.73        116.2511
358.18        115.3804
358.63        114.5363
359.08        113.7736
359.53        113.0712
359.98         112.392
360.43        111.6751
360.88        110.8999
361.33        110.0763
361.78        109.2713
362.23        108.5862
362.68        108.0408
363.13        107.6183
363.58        107.1754
364.03        106.4857
364.48        105.5178
364.93         104.338
365.38        103.1718
365.83        102.3895
366.28         102.051
366.73        102.0114
367.18        102.0148
367.63        101.6432
368.08        100.8033
368.53        99.67599
368.98        98.41389
369.43         97.2355
369.88        96.23108
370.33        95.32431
370.78         94.6014
371.23        94.21376
371.68        94.15544
372.13        94.38313
372.58        94.65952
373.03        94.56809
373.48        94.01415
373.93        93.12781
374.38        92.12605
374.83        91.35302
375.28        90.89952
375.72        90.63743
376.17        90.51044
376.62        90.40381
377.07        90.24861
377.52        90.07026
377.97        89.79964
378.42        89.31981
378.87        88.63884
379.32        87.82204
379.77        86.96182
380.22        86.19106
380.67        85.54039
381.11        84.96648
381.56        84.49271
382.01        84.15713
382.46        83.95924
382.91        83.91308
383.36        83.86941
383.81        83.59026
384.26        83.03841
384.71        82.26023
385.15        81.47916
385.60        81.11356
386.05        81.17097
386.50        81.51799
386.95        81.83053
387.40        81.57182
387.85         80.6908
388.29        79.41682
388.74        78.21033
389.19        77.39336
389.64        77.02356
390.09        76.93095
390.54        77.05804
390.98        77.33813
391.43         77.6909
391.88        78.02144
392.33        78.15984
392.78        78.01561
393.23        77.49354
393.67        76.36653
394.12        75.11401
394.57         74.2609
395.02        74.03133
395.47        74.64435
395.91        75.83611
396.36        76.57152
396.81        76.63198
397.26        76.44968
397.71        76.16785
398.15        75.70145
398.60        75.19395
399.05        74.89091
399.50        74.69111
399.95        73.73218
400.39        72.59799
400.84        72.28038
401.29        72.80035
401.74        72.96878
402.18        72.69557
402.63        72.54865
403.08        72.64553
403.53        72.89484
403.97        73.28359
404.42        73.75872
404.87         74.1147
405.32        74.02159
405.76        73.42945
406.21        72.57197
406.66        71.68373
407.11        71.05327
407.55        70.85456
408.00        71.04517
408.45        71.50088
408.90        72.13712
409.34        72.58685
409.79        72.05993
410.24        70.89279
410.68        70.37039
411.13        70.61058
411.58         70.8989
412.03         71.1367
412.47        71.47949
412.92        71.81466
413.37        72.12633
413.81        72.32785
414.26        72.33064
414.71        72.10992
415.15          71.687
415.60        71.19283
416.05        70.85844
416.49        70.75475
416.94        70.85246
417.39        70.99557
417.83        70.89385
418.28        70.50723
418.73        69.93865
419.17        69.43108
419.62        69.37437
420.07        69.79111
420.51        70.53678
420.96        71.32113
421.41        71.59959
421.85        71.22494
422.30        70.66264
422.74        70.05861
423.19        69.31303
423.64        68.67224
424.08        69.04629
424.53        70.20901
424.98        70.86081
425.42        70.82113
425.87         71.0033
426.31        71.20626
426.76        71.19156
427.21        71.09048
427.65        71.39191
428.10        71.92955
428.54        73.06633
428.99        73.24602
429.44        73.44609
429.88        73.27404
430.33        73.87934
430.77        74.64782
431.22        73.41341
431.66        70.76926
432.11        69.42698
432.56        69.65764
433.00        70.44292
433.45        71.68778
433.89        73.57153
434.34        74.58025
434.78        76.38502
435.23        72.48283
435.67        70.03708
436.12        72.73097
436.57        73.79482
437.01        74.37976
437.46        74.63296
437.90        74.72178
438.35        74.43697
438.79        74.94617
439.24        74.89236
439.68        74.65582
440.13        74.20602
440.57        73.91137
441.02        74.73707
441.46        76.28859
441.91        77.23891
442.35        77.26027
442.80        76.31609
443.24        74.89787
443.69        75.35611
444.13        77.30297
444.58        77.24857
445.02        75.43869
445.47        75.20619
445.91        76.42393
446.36        76.76842
446.80        76.15895
447.24        75.78932
447.69        75.79095
448.13        75.89781
448.58        76.13944
449.02        76.52187
449.47        76.95271
449.91        77.29914
450.36        77.51514
450.80        77.61366
451.25         77.6053
451.69          77.479
452.13        77.27641
452.58         77.0107
453.02        76.76478
453.47        76.71296
453.91        76.85272
454.36        77.14845
454.80        77.51779
455.24        77.55293
455.69        77.17956
456.13        76.97926
456.58        77.12488
457.02        75.86623
457.46        75.69603
457.91        76.08328
458.35        77.02875
458.79        77.46868
459.24        77.26793
459.68        76.94032
460.13         76.5126
460.57         76.2765
461.01         76.4342
461.46        75.17165
461.90        74.88821
462.34        75.74847
462.79        74.96768
463.23        75.22582
463.68        75.46113
464.12        75.87988
464.56        76.28767
465.01        76.44643
465.45        76.27438
465.89        76.00285
466.34        75.56578
466.78        74.61364
467.22        73.72935
467.67        72.49632
468.11        74.15208
468.55        74.72644
468.99        74.87323
469.44        74.58543
469.88        74.08917
470.32         74.2139
470.77        74.81161
471.21        74.87861
471.65        74.35336
472.10        73.96458
472.54        73.82742
472.98        73.76939
473.42        73.80027
473.87        74.12325
474.31        74.53752
474.75        74.43239
475.20        73.93008
475.64        73.80931
476.08        74.10614
476.52        74.07081
476.97        73.67868
477.41         73.6712
477.85        74.14195
478.29         73.2767
478.74         74.1762
479.18        73.90974
479.62        73.19199
480.06        73.82401
480.50        74.13576
480.95         74.5424
481.39        74.56886
481.83        73.71355
482.27        73.29543
482.72        73.80808
483.16        71.80367
483.60        72.20361
484.04        73.88126
484.48        74.27312
484.93        73.80918
485.37         76.0619
485.81        76.27934
486.25        75.14726
486.69         102.142
487.14        82.53263
487.58        51.23948
488.02        63.09025
488.46        71.67322
488.90        70.65915
489.34        72.54613
489.79        71.96865
490.23        73.59531
490.67        74.59107
491.11         73.8642
491.55        73.85242
491.99        74.10007
492.43        73.79488
492.88        73.07104
493.32        73.00716
493.76        73.08978
494.20        73.28735
494.64         73.3448
495.08        73.54223
495.52        73.86624
495.96        73.75821
496.41        73.29551
496.85        73.78056
497.29        74.88124
497.73        73.94812
498.17        71.91974
498.61        71.91264
499.05        74.05202
499.49        74.59059
499.93        75.04214
500.37        74.88458
500.82        74.04308
501.26        73.68222
501.70        74.19115
502.14        74.49703
502.58        74.54711
503.02        74.43932
503.46        74.15437
503.90        73.63763
504.34        73.10175
504.78        72.90063
505.22        73.07528
505.66        73.59692
506.10        74.28524
506.54        74.48893
506.98        74.01638
507.42        74.13774
507.86        73.48331
508.30        72.67512
508.74        73.23602
509.18        73.51142
509.62        73.89725
510.06        74.11447
510.50        74.11726
510.94        73.95797
511.38        73.72594
511.82        73.60181
512.26        73.62811
512.70        73.74155
513.14        73.88908
513.58        73.99407
514.02         74.0229
514.46        73.99981
514.90         73.9454
515.34        73.87145
515.78        73.78035
516.22        73.72667
516.66        73.70093
517.10        73.54004
517.54        73.24687
517.98        73.38108
518.42         73.2171
518.86        73.36671
519.30        73.59669
519.74        73.93961
520.18         74.2945
520.62         74.4923
521.06        74.50311
521.50        74.37354
521.93        74.17622
522.37        74.03226
522.81        73.98917
523.25        74.01305
523.69        74.09342
524.13        74.21338
524.57        74.35734
525.01        74.53006
525.45        74.69923
525.89        74.80945
526.32        74.83636
526.76        74.78491
527.20        74.67751
527.64        74.57465
528.08         74.5129
528.52         74.4245
528.96        74.26547
529.40        74.17352
529.83        74.18853
530.27        73.52509
530.71         73.6954
531.15        73.62147
531.59        73.74876
532.03        73.99155
532.46        74.31793
532.90        74.63824
533.34        74.89349
533.78        75.10474
534.22        75.21622
534.66        75.15658
535.09        74.91921
535.53        74.55674
535.97        74.16508
536.41        73.92126
536.85        73.87364
537.28        73.98421
537.72        74.16098
538.16        74.26147
538.60        74.24475
539.04        74.09459
539.47        73.88224
539.91        73.91364
540.35        74.13038
540.79        74.18474
541.22        74.05463
541.66        74.01114
542.10        74.04276
542.54        73.97247
542.97        73.85352
543.41        73.88099
543.85        74.05994
544.29        74.35936
544.72        74.61664
545.16        74.61369
545.60        74.30672
546.04          73.756
546.47        73.21715
546.91         73.1144
547.35         73.5027
547.79        74.27293
548.22        75.05805
548.66        75.24281
549.10        74.74429
549.53        73.87194
549.97        73.02059
550.41        72.58295
550.84        72.67352
551.28        73.29177
551.72        74.21326
552.15        74.44555
552.59        74.62337
553.03        74.56074
553.46         74.1972
553.90        73.98876
554.34         73.8483
554.77        74.20918
555.21        73.97385
555.65        74.14739
556.08        74.44115
556.52        73.92831
556.96         74.3305
557.39        74.23632
557.83        74.20309
558.27         74.1701
558.70        74.17058
559.14        74.26837
559.57        74.42847
560.01        74.54895
560.45        74.61232
560.88        74.76502
561.32        74.92215
561.75        74.72401
562.19        74.26705
562.63        73.73051
563.06        73.30356
563.50        73.32697
563.93        73.71243
564.37        74.10436
564.80         74.3261
565.24        74.29433
565.68        74.06561
566.11        73.99417
566.55        74.15624
566.98        74.19843
567.42        74.14455
567.85        74.39335
568.29        74.88971
568.72        74.85188
569.16        74.54188
569.60        75.01787
570.03        75.41582
570.47        75.54456
570.90        75.62418
571.34        73.36835
571.77        74.49734
572.21        74.93298
572.64        74.36731
573.08        72.99928
573.51        70.14052
573.95        72.76723
574.38        77.11597
574.82        75.57459
575.25         74.7396
575.69        72.29131
576.12        71.10938
576.56        70.11122
576.99        71.89962
577.42        75.07871
577.86         75.2198
578.29        74.45283
578.73        78.40369
579.16        72.41479
579.60          66.419
580.03        69.22176
580.47        73.78008
580.90         75.3379
581.33        74.01851
581.77        72.70791
582.20        80.25209
582.64        80.09822
583.07        68.55733
583.51        67.01864
583.94        65.53597
584.37        68.38099
584.81        72.15935
585.24        76.05365
585.68        77.60783
586.11        76.48454
586.54        71.16158
586.98        69.02856
587.41        69.27704
587.85        73.23781
588.28         75.9225
588.71        72.46075
589.15        69.75033
589.58        71.63692
590.01        71.82069
590.45         72.7926
590.88        73.65068
591.31        72.81609
591.75        72.25797
592.18        72.29852
592.61        74.00127
593.05        74.64126
593.48        77.80113
593.91         79.0246
594.35        72.16155
594.78        70.53121
595.21        70.11462
595.65        73.33174
596.08        76.34543
596.51        73.22523
596.94        71.22793
597.38        71.87541
597.81        74.73001
598.24        76.69333
598.68        74.88838
599.11        73.79773
599.54        76.80417
599.97        78.46924
600.41        72.76563
600.84        72.88512
601.27        74.55959
601.70        73.54674
602.14        73.65336
602.57         72.5393
603.00        73.00317
603.43        74.57112
603.87        76.25756
604.30        75.76213
604.73        73.59164
605.16        71.90176
605.60        73.12106
606.03         74.4231
606.46         75.6505
606.89        75.16433
607.32        73.16705
607.76        72.37841
608.19        75.28837
608.62        74.34123
609.05        72.96935
609.48        73.53339
609.92        73.61328
610.35        72.84511
610.78        75.02219
611.21        76.24723
611.64        72.41975
612.07        73.23371
612.50        73.72005
612.94        74.15599
613.37        73.37527
613.80        73.84897
614.23        74.13558
614.66        74.06955
615.09        74.31813
615.52        74.40582
615.96        74.39455
616.39        74.59553
616.82        73.79867
617.25        72.90969
617.68        73.88146
618.11         74.4911
618.54        75.07862
618.97        74.52317
619.40        73.26396
619.84        73.23587
620.27         74.3379
620.70        75.03204
621.13         75.1179
621.56        74.44399
621.99        73.28728
622.42        74.35081
622.85        76.24093
623.28        75.64878
623.71        74.86532
624.14        75.19729
624.57        74.66058
625.00        74.33738
625.43        74.74893
625.86        74.17135
626.29        74.35786
626.72        75.02321
627.15        74.70334
627.58        74.95757
628.01        75.16832
628.44        75.19073
628.87        75.12803
629.30        75.07667
629.73        75.81346
630.16        75.85175
630.59        75.41642
631.02        74.90449
631.45        74.47331
631.88        74.18349
632.31        74.08224
632.74        74.16048
633.17        74.34219
633.60        74.49377
634.03         74.5687
634.46        74.60404
634.89        74.61161
635.32        74.61407
635.75        74.62263
636.18        74.61372
636.61        74.60735
637.04        74.64901
637.47        74.74086
637.89         74.8806
638.32        75.00074
638.75        75.03776
639.18        74.97432
639.61        74.83923
640.04        74.66496
640.47         74.5024
640.90        74.37798
641.33        74.27723
641.76        74.18935
642.18        74.20304
642.61        74.31469
643.04        74.33176
643.47         74.1916
643.90        74.75649
644.33        74.47236
644.76        74.59288
645.18        74.63943
645.61        74.60317
646.04        74.46986
646.47        74.24062
646.90        74.03952
647.33        74.01057
647.75        74.20149
648.18        74.61622
648.61        75.01713
649.04        75.02683
649.47        74.59703
649.89        73.72372
650.32        72.85815
650.75          72.827
651.18        73.59507
651.61        74.47993
652.03        75.04461
652.46        75.00803
652.89        74.70522
653.32        74.13192
653.74        73.15165
654.17        74.98315
654.60        75.48334
655.03        73.52628
655.46        73.81121
655.88        78.44361
656.31        83.44138
656.74        189.9151
657.16        123.5747
657.59         43.3941
658.02        32.42763
658.45        56.10313
658.87        72.00631
659.30        75.28616
659.73        74.60925
660.15        71.98286
660.58        74.13573
661.01        75.93533
661.44        73.74841
661.86        73.11933
662.29        73.14917
662.72        73.97332
663.14        75.32507
663.57        75.25074
664.00        74.03239
664.42        73.74915
664.85        74.48219
665.27        74.89301
665.70        74.78616
666.13        74.60926
666.55        74.35139
666.98        73.87949
667.41        73.36624
667.83        73.16369
668.26         73.3424
668.69        73.71723
669.11        74.14133
669.54        74.55888
669.96        74.22089
670.39        73.81681
670.82        73.33338
671.24        73.06129
671.67        73.13122
672.09        73.52929
672.52        73.98504
672.94        74.49744
673.37        73.79015
673.80        73.64282
674.22        73.72079
674.65        73.68467
675.07         73.5145
675.50        73.25594
675.92        73.02296
676.35        73.02547
676.77        73.29047
677.20        73.67976
677.62        74.08427
678.05        74.30983
678.47        74.28539
678.90        74.16003
679.32        73.89918
679.75        73.65615
680.17        73.72044
680.60         73.8689
681.02        74.05038
681.45        73.90769
681.87        73.47351
682.30        73.08341
682.72        72.88564
683.15        72.89351
683.57        73.15565
684.00        73.64541
684.42        74.30468
684.85        74.61748
685.27          74.535
685.70        74.18642
686.12         73.7242
686.54         73.4588
686.97        73.45934
687.39        73.56298
687.82        73.80466
688.24        73.95757
688.66        74.00101
689.09        73.92108
689.51        73.89266
689.94        73.90415
690.36        74.01456
690.78         74.1825
691.21         74.3504
691.63        74.43732
692.06        74.42728
692.48        74.35987
692.90        74.29259
693.33        74.29675
693.75        74.38921
694.17        74.55041
694.60        74.73889
695.02        74.85737
695.44         74.8402
695.87        74.92219
696.29        75.10187
696.71        74.74787
697.14         74.1291
697.56        74.64124
697.98        75.91631
698.41        75.99134
698.83        74.85803
699.25        74.19747
699.68        74.15296
700.10        74.07078
700.52        73.98784
700.94        74.29047
701.37        74.84583
701.79        75.29819
702.21         75.5254
702.64        75.63433
703.06        75.60491
703.48        75.40059
703.90        75.06023
704.33        74.59681
704.75        74.13148
705.17        73.95631
705.59         74.1375
706.01         74.4767
706.44        74.81728
706.86        75.54225
707.28        75.57119
707.70        75.73275
708.12        75.74423
708.55        75.64729
708.97        75.44456
709.39        75.13589
709.81        74.83476
710.23        74.72633
710.66        74.85494
711.08        75.20528
711.50        75.59542
711.92        75.74414
712.34        75.58797
712.76         75.1947
713.19        74.75732
713.61        74.62486
714.03        74.86267
714.45        75.36734
714.87        75.90335
715.29        76.09948
715.71        75.87457
716.13        75.34846
716.56        74.75346
716.98        74.49375
717.40        74.66092
717.82        75.12887
718.24          75.682
718.66        75.95834
719.08        75.86036
719.50         75.5106
719.92        75.06615
720.34        74.79171
720.76        74.76586
721.19        74.77731
721.61        74.99869
722.03        75.18598
722.45        75.36128
722.87        75.55051
723.29        75.72688
723.71        75.83157
724.13        75.85332
724.55        75.79593
724.97        75.70966
725.39        75.68943
725.81        75.75732
726.23        75.88911
726.65        76.03763
727.07        76.12175
727.49        76.12425
727.91        76.07941
728.33        76.01982
728.75        75.99464
729.17        76.02614
729.59        76.08794
730.01        76.16125
730.43        76.26935
730.85        76.47303
731.27        76.51701
731.69        76.91187
732.10        77.21301
732.52        76.83277
732.94         76.5451
733.36         76.3128
733.78        76.27072
734.20        76.45182
734.62        77.10435
735.04        77.95679
735.46        78.03844
735.88        77.19584
736.30        77.49002
736.72        78.73151
737.13        79.24943
737.55        78.76305
737.97        78.48079
738.39        78.51524
738.81        77.81933
739.23        76.80465
739.65        77.61678
740.06         79.7513
740.48        79.96326
740.90        78.36804
741.32        77.73994
741.74        78.30058
742.16        78.57495
742.57        78.59439
742.99        79.18551
743.41        80.17185
743.83        80.79704
744.25        80.93636
744.67        80.78243
745.08        80.51554
745.50        80.42269
745.92        80.60022
746.34        80.93954
746.75        81.32172
747.17        81.53471
747.59        81.54914
748.01        81.46764
748.42        81.42546
748.84        81.57761
749.26         82.0106
749.68         82.6735
750.09         83.4112
750.51         84.0878
750.93        84.51183
751.35        84.20728
751.76        83.41185
752.18        83.15015
752.60        83.43654
753.01        83.48371
753.43        83.28465
753.85        83.40146
754.27        83.85572
754.68        84.40427
755.10        84.93366
755.52        85.42857
755.93        85.81802
756.35        86.02134
756.77        86.11207
757.18        86.20753
757.60        86.34713
758.02        86.69551
758.43        86.88734
758.85        86.79375
759.26        84.64666
759.68        84.62568
760.10        85.92931
760.51        86.68427
760.93        86.43121
761.34        85.55778
761.76        84.48254
762.18        83.97977
762.59        84.22772
763.01        84.40192
763.42        84.96381
763.84        85.42816
764.26        85.89553
764.67        86.23633
765.09        86.33445
765.50        86.19465
765.92        85.80286
766.33        84.45783
766.75        83.16974
767.16        82.73335
767.58        83.47553
768.00        84.91024
768.41        86.71123
768.83         88.2905
769.24        88.99245
769.66        88.26155
770.07         86.6416
770.49        84.90919
770.90        83.59473
771.32        84.51081
771.73        86.93176
772.15        86.44207
772.56        83.52956
772.97        83.02937
773.39        84.83871
773.80        85.46487
774.22        84.66797
774.63        84.54974
775.05        85.06898
775.46        85.28551
775.88        85.10166
776.29        84.79134
776.70        84.46149
777.12        84.31342
777.53        84.41496
777.95        84.64717
778.36        84.87741
778.77        84.87197
779.19        84.62084
779.60        84.19254
780.02        83.78931
780.43        83.80406
780.84        84.35777
781.26        84.89497
781.67         85.3355
782.09        86.43587
782.50        87.65906
782.91        86.65958
783.33        84.17771
783.74        83.39896
784.15        84.49207
784.57        85.36854
784.98        85.63965
785.39        85.73057
785.81        85.53259
786.22        84.77902
786.63        83.89838
787.04        83.68454
787.46        84.23721
787.87        85.30259
788.28        86.49162
788.70        87.12834
789.11         87.0344
789.52        86.47722
789.93        85.76311
790.35        85.23393
790.76        85.05216
791.17        85.30801
791.58        85.82411
792.00        86.05911
792.41        85.89108
792.82        85.67057
793.23        85.60165
793.65        85.25622
794.06        84.95167
794.47        86.26698
794.88        88.32141
795.29        87.96692
795.71        85.39182
796.12        83.02646
796.53        81.63008
796.94        81.36095
797.35        82.26886
797.76        83.71703
798.18        85.05945
798.59        86.02048
799.00        86.23782
799.41        85.39684
799.82        83.97593
800.23        83.10853
800.64        83.02869
801.06        83.30947
801.47        83.82359
801.88        84.25492
802.29        84.46507
802.70         84.6031
803.11        84.66344
803.52        84.59093
803.93        84.41531
804.34        84.11168
804.75        83.81181
805.17        83.84195
805.58        84.30039
805.99        84.78824
806.40        85.13091
806.81        85.78665
807.22        86.30444
807.63        85.07695
808.04        82.73474
808.45        81.71659
808.86        82.25858
809.27        83.16608
809.68        84.01953
810.09        84.54821
810.50        84.53616
810.91        84.10371
811.32        83.48796
811.73        83.06684
812.14        82.95626
812.55        82.99436
812.96        83.18527
813.37        83.53334
813.78         83.9819
814.19        84.57411
814.60        85.02852
815.01        84.89936
815.42        84.13837
815.83        82.84045
816.24        81.49137
816.65        80.95269
817.05        81.48993
817.46        82.83291
817.87        84.39799
818.28         85.1228
818.69        84.71207
819.10        83.43064
819.51        81.93185
819.92        81.32256
820.33        81.88151
820.74        83.25742
821.14        84.79758
821.55        85.34814
821.96        84.67318
822.37        83.18596
822.78        81.50421
823.19        80.53532
823.60        80.52061
824.00        81.22345
824.41        82.23495
824.82        82.97468
825.23        83.18459
825.64        83.08521
826.04        82.80981
826.45        82.54414
826.86        82.35878
827.27        82.12779
827.68        81.93161
828.08        81.97536
828.49        82.22211
828.90        82.72035
829.31        83.21185
829.72        83.20232
830.12        82.62039
830.53        81.60526
830.94        80.61993
831.35        80.30854
831.75        80.83303
832.16        81.94805
832.57        83.28922
832.97        84.11395
833.38        84.10114
833.79          83.484
834.20        82.64025
834.60        82.13483
835.01        82.14775
835.42        82.49718
835.82        82.94483
836.23         83.0131
836.64        82.62657
837.04        81.97506
837.45        81.33418
837.86        81.13019
838.26        81.46782
838.67        82.14798
839.08         82.9531
839.48         83.4948
839.89         83.5977
840.29        83.40567
840.70        82.99928
841.11        82.47969
841.51        81.92224
841.92        81.27203
842.33        80.68591
842.73        80.43633
843.14        80.53799
843.54        80.98681
843.95        81.49429
844.35        81.62982
844.76        81.28274
845.17        80.59277
845.57        79.86063
845.98        79.56592
846.38        79.81092
846.79         80.4175
847.19          81.158
847.60        81.52872
848.00        81.42529
848.41        80.99366
848.81        80.46143
849.22        80.08724
849.62         80.0119
850.03         80.1552
850.43        80.51253
850.84        80.97576
851.24        81.52437
851.65        81.98962
852.05        82.50199
852.46        83.08327
852.86        83.71404
853.27        84.40381
853.67        84.65386
854.07        83.84176
854.48        82.03616
854.88        79.48621
855.29        77.09482
855.69        76.16014
856.10        76.92711
856.50        79.23829
856.90        82.26986
857.31        84.09666
857.71        84.08638
858.12        82.70722
858.52        80.83321
858.92        79.63937
859.33         79.3851
859.73        79.74853
860.13        80.50185
860.54        81.18077
860.94        81.66052
861.34        82.07643
861.75        82.43082
862.15        82.79292
862.55        83.14272
862.96        83.39417
863.36        83.59483
863.76        83.80847
864.17        84.04673
864.57        84.35443
864.97        84.68117
865.38        84.93578
865.78        85.14691
866.18        85.25465
866.58        85.36363
866.99        85.63536
867.39        86.15981
867.79        86.92995
868.19        87.60033
868.60        87.52545
869.00        86.59512
869.40        84.99403
869.80        83.52852
870.21        83.44847
870.61         85.0985
871.01        88.10145
871.41        91.43472
871.81        93.34537
872.22        93.34994
872.62          91.962
873.02        90.16939
873.42        89.61514
873.82        90.57205
874.22        92.41634
874.63        94.53313
875.03        95.55749
875.43        94.87476
875.83        93.45912
876.23        91.51384
876.63        90.80669
877.03        91.59469
877.44        94.09451
877.84        100.4739
878.24         101.217
878.64        100.6201
879.04        98.54553
879.44        95.68693
879.84        94.29939
880.24        96.33941
880.64        98.25246
881.04        100.2923
881.44        101.3933
881.84        100.5532
882.24        98.38935
882.65        96.19529
883.05        95.41863
883.45        96.30645
883.85        98.56361
884.25        101.3502
884.65        103.0241
885.05        103.0258
885.45        101.9103
885.85        100.4664
886.25        99.76949
886.65        100.0691
887.05        100.9851
887.45        102.1443
887.85        102.9055
888.25        103.0259
888.65        102.7744
889.04        102.2937
889.44        101.8221
889.84        101.4487
890.24        101.0589
890.64        100.7594
891.04        100.7492
891.44        101.0165
891.84        101.5215
892.24        102.0045
892.64         101.962
893.04        101.3619
893.44        100.5045
893.83        99.67633
894.23        99.30736
894.63        99.47738
895.03        99.94368
895.43        100.8623
895.83        102.4826
896.23        104.6656
896.63        107.2827
897.02         109.373
897.42        109.3847
897.82        107.1484
898.22        103.2824
898.62        99.16986
899.01        96.84408
899.41        96.77972
899.81         98.2995
900.21        100.6031
900.61        102.3593
901.00         103.096
901.40        103.2486
901.80        102.9805
902.20        102.5324
902.59        102.0531
902.99        101.3744
903.39        100.6988
903.79        100.4475
904.18        100.7136
904.58        101.4685
904.98        102.4145
905.38         103.047
905.77        103.2032
906.17        102.9864
906.57        102.6186
906.96        102.4947
907.36        102.6372
907.76        102.9539
908.15        103.1521
908.55        102.6476
908.95        101.4252
909.34        99.69076
909.74        98.04556
910.14        97.23461
910.53        97.46977
910.93        98.56316
911.33         100.119
911.72        101.4033
912.12        102.0341
912.52        102.1374
912.91        101.9938
913.31        101.9975
913.70        102.2857
914.10        102.7605
914.49        103.0919
914.89        102.4626
915.29        100.8109
915.68        98.49809
916.08        96.64854
916.47        96.24694
916.87        97.33564
917.26        99.57477
917.66        101.9153
918.05        102.6357
918.45        101.3277
918.84        98.60675
919.24        95.68157
919.64        94.33578
920.03        95.04414
920.42        97.28663
920.82        100.2029
921.21        102.3776
921.61         103.107
922.00        102.8392
922.40        102.0012
922.79        101.1512
923.19        100.5222
923.58        99.96318
923.98        99.34792
924.37        98.47979
924.77        97.55367
925.16        96.08459
925.55        95.79175
925.95         96.3914
926.34        98.36198
926.74        101.1546
927.13         103.877
927.52        104.8883
927.92        103.9752
928.31        101.6586
928.70        98.74834
929.10        96.61355
929.49         95.6375
929.89        95.44145
930.28        95.95084
930.67        97.03531
931.07        98.38419
931.46        100.1168
931.85        101.5651
932.24        101.7102
932.64        100.4234
933.03        97.85899
933.42        94.68938
933.82        92.51381
934.21        91.82721
934.60        92.24279
934.99         93.1583
935.39        93.87881
935.78        94.28681
936.17        94.51598
936.56        94.38118
936.96         94.5997
937.35        93.54041
937.74        92.66962
938.13        92.06525
938.53        92.38156
938.92        93.62479
939.31        95.77283
939.70        98.19662
940.09        99.14378
940.49        98.03366
940.88        95.58138
941.27        93.02058
941.66        91.81395
942.05        92.15644
942.44        93.56967
942.84         95.4887
943.23        97.01878
943.62        97.69504
944.01        97.75192
944.40        97.41356
944.79        97.02228
945.18        96.68384
945.57         96.2402
945.97        95.50346
946.36        94.32006
946.75        92.90485
947.14        91.62354
947.53        90.78162
947.92        90.54443
948.31        90.86415
948.70         91.6881
949.09        92.86134
949.48        93.95177
949.87        94.67632
950.26        95.02361
950.65        95.13792
951.04        95.32854
951.43        95.66615
951.82        96.03061
952.21        96.17762
952.60        95.76243
952.99        94.75616
953.38         93.3302
953.77        91.88638
954.16        90.96538
954.55        90.68376
954.94        90.95284
955.33        91.35777
955.72        91.18408
956.11        90.27824
956.50        88.83089
956.89        87.46519
957.28          87.314
957.66         88.7387
958.05        91.14096
958.44         93.7117
958.83        95.25867
959.22        95.45015
959.61        94.55131
960.00         93.0666
960.39         91.8249
960.78        91.11578
961.16        90.81129
961.55        90.48515
961.94        89.46231
962.33        87.71431
962.72        85.62553
963.11        83.94337
963.49        83.61784
963.88        84.76901
964.27         87.1683
964.66        90.04275
965.04        91.68272
965.43        91.31048
965.82         89.5107
966.21        87.29565
966.60        85.99193
966.98        85.87868
967.37        86.51303
967.76        87.44219
968.15        87.81914
968.53        87.36493
968.92         86.3894
969.31        85.31063
969.69        84.59966
970.08        84.38794
970.47        84.56788
970.86         84.8431
971.24        84.73125
971.63        84.10854
972.02         83.1069
972.40        82.33036
972.79        82.80308
973.17        84.87184
973.56        88.08199
973.95        91.46373
974.33        93.16416
974.72        92.55235
975.11        90.24804
975.49        87.38606
975.88        85.47522
976.26         84.7796
976.65        84.97468
977.04        85.42978
977.42        84.73975
977.81        82.56001
978.19        79.57433
978.58        77.44281
978.96        77.79708
979.35        80.83447
979.74        86.20972
980.12        92.75323
980.51        96.53707
980.89        96.32228
981.28        93.23618
981.66        89.14938
982.05        86.47506
982.43        85.64753
982.82        85.86031
983.20        86.87064
983.59        88.46535
983.97        90.54726
984.35         93.3745
984.74        96.13322
985.12        97.23594
985.51        95.73972
985.89        91.95506
986.28        87.10809
986.66         83.3286
987.04         81.5947
987.43        81.45753
987.81        82.20123
988.20        82.98449
988.58        83.60989
988.96        84.35114
989.35        85.55961
989.73         87.9186
990.12         90.6922
990.50        93.07438
990.88        93.89882
991.27        92.78888
991.65        90.16279
992.03        86.25688
992.42        82.27668
992.80        80.33624
993.18        81.12057
993.56        83.36163
993.95        85.99587
994.33        88.23417
994.71        89.73193
995.10        91.02543
995.48        91.62086
995.86        90.55322
996.24        87.66421
996.63        82.74771
997.01        77.28184
997.39        75.48901
997.77        79.10796
998.15        87.03915
998.54        95.44623
998.92        99.12777
999.30         96.6279
999.68         89.3495
1000.06        79.32549
1000.45        71.71637
1000.83        68.83163
1001.21        68.95784
1001.59        71.10505
1001.97        74.32324
1002.35        78.26521
1002.73        84.08237
1003.12         89.9743
1003.50         90.3135
1003.88        83.03071
1004.26        71.06076
1004.64        60.12957
1005.02        55.05563
1005.40        56.14319
1005.78        63.25117
1006.16        77.04773
1006.54        90.24004
1006.92         94.2664
1007.30        91.94488
1007.69        88.18227
1008.07         86.2758
1008.45        86.48979
1008.83        88.11858
1009.21        91.49996
1009.59        94.03254
1009.97        80.88868
1010.35        39.40988
1010.73        22.85501
1011.11        35.80852
1011.49         50.6259
1011.86        63.56842
1012.24        71.25181
1012.62        74.13996
1013.00          73.971
1013.38        71.30363
1013.76        68.56125
1014.14        73.80354
1014.52         93.6833
1014.90        130.4747
1015.28        174.7091
1015.66        199.1262
1016.04        186.7229
1016.41        141.3712
1016.79        88.09684
1017.17        56.14376
1017.55        46.77223
1017.93        47.45135
1018.31        51.64107
1018.69        56.06197
1019.06        60.55703
1019.44        66.54312
1019.82        75.80369
1020.20        88.79639
1020.58        105.6083
1020.95        127.3145
1021.33        156.9882
1021.71       -199.9524
1022.09        90.14172
1022.46        108.8059
1022.84         116.421
1023.22        122.6633
1023.60        133.9772
1023.97        230.2026
1024.35        70.55577
1024.73        90.34064
