SpectraSmart Spectrum 2.9.0.0
--------- Device Information -----------
Spectrum Name :  反射率_0
Saving Time :  2024/04/26 01:19:18
Spectro-Module Model Name : SE2030-DUVN
Spectro-Module Serial Number : OS361AC55029948
Wavelength Start : 200
Wavelength End : 1025
Wavelength Unit : Wavelength(nm)
Spectrum Unit : Reflectance(%)
-----------Spectrum Setting ------------
Integration Time : 20ms
Average : 10
Boxcar : 0
Background removal :  enabled
linearity correction :  enabled
SC :  disabled
Intensity correction :  disabled
DWT denoise :  enabled
savitzky-golay :  disabled
FFT :  disabled
Running average :  disabled
Kalman :  disabled
High pass :  disabled
---------------BEGIN--------------------
Wavelength(nm)             Reflectance(%)
200.29               0
200.75        96.52112
201.21        92.24275
201.67        86.38157
202.13        83.13761
202.58        83.18404
203.04        85.77399
203.50        88.67439
203.96        88.38536
204.42         84.6997
204.88        79.33353
205.34        74.93205
205.80         74.1393
206.26        77.91808
206.72        88.86718
207.18        111.0132
207.64        128.3733
208.10        111.6409
208.55        83.20953
209.01        66.22939
209.47        61.19218
209.93        63.12019
210.39        69.52486
210.85         77.6386
211.31        81.33408
211.77        78.36971
212.23        71.13287
212.69        63.52674
213.14        61.57143
213.60        66.25555
214.06        75.59955
214.52        86.25864
214.98        93.25293
215.44        95.07558
215.90        93.34805
216.36        89.75157
216.81        86.44464
217.27         84.5161
217.73        83.28005
218.19        81.84813
218.65        78.92583
219.11        73.77133
219.57        65.65439
220.02        55.37517
220.48        48.86451
220.94        49.49626
221.40        56.06568
221.86        62.47509
222.32        62.19725
222.77        55.91687
223.23         47.3349
223.69        40.14424
224.15        38.14084
224.61        40.83666
225.06        46.30323
225.52        51.68999
225.98        53.52621
226.44        51.25819
226.90        46.45942
227.36        41.22642
227.81        38.33809
228.27        38.64886
228.73        40.96457
229.19        44.11291
229.65        46.37324
230.10        47.26574
230.56        47.44019
231.02        47.37389
231.48        47.57357
231.93        48.11541
232.39        48.78457
232.85        49.42702
233.31        49.90516
233.77        50.16545
234.22        50.28843
234.68        50.32553
235.14        50.28492
235.60        50.21552
236.05        50.15585
236.51        50.13705
236.97        50.18055
237.43        50.33677
237.88        50.69193
238.34        51.36325
238.80        52.72006
239.26        54.75086
239.71        57.36637
240.17         59.8664
240.63        61.60443
241.08        62.55428
241.54        62.93807
242.00        63.18811
242.46        64.03236
242.91        66.33811
243.37         71.2981
243.83        87.97636
244.28         153.095
244.74        248.0516
245.20        221.7488
245.66        184.3505
246.11        171.9296
246.57        173.7126
247.03        189.0497
247.48         223.669
247.94        151.9893
248.40        101.4849
248.85        92.66755
249.31        92.53191
249.77        94.49635
250.22        97.96762
250.68        103.9754
251.14        112.5506
251.59        118.4415
252.05        116.1778
252.51        107.9287
252.96        98.42943
253.42        92.77678
253.88        90.63625
254.33        90.35594
254.79        92.12023
255.25        95.49377
255.70        99.35835
256.16        103.4655
256.62        106.1529
257.07        105.7035
257.53        102.9613
257.99        98.47101
258.44        93.43443
258.90        90.37327
259.35        88.54392
259.81        87.38001
260.27        85.66161
260.72        82.18967
261.18        77.63032
261.63        72.35127
262.09        67.45827
262.55        63.46998
263.00        60.42023
263.46        58.24691
263.91        56.43417
264.37        54.77084
264.83        53.00656
265.28        51.08326
265.74        49.30665
266.19        47.86075
266.65        46.94473
267.11        46.38373
267.56        45.84378
268.02         44.9356
268.47         43.5324
268.93        41.76898
269.38         39.8945
269.84        38.58173
270.30        38.00359
270.75        37.97709
271.21        38.12137
271.66        37.85249
272.12        37.02687
272.57        35.83712
273.03        34.60373
273.48        33.71214
273.94        33.29379
274.39        33.16928
274.85        33.15228
275.31        32.95905
275.76        32.50305
276.22        31.89998
276.67         31.2599
277.13         30.8428
277.58        30.62648
278.04        30.54982
278.49        30.40032
278.95        29.96157
279.40        29.17892
279.86         28.2161
280.31         27.2167
280.77        26.51178
281.22        26.12848
281.68        25.99645
282.13        25.98056
282.59        25.93099
283.04        25.78992
283.50        25.63631
283.95        25.47294
284.41        25.32697
284.86        25.19853
285.32        25.08006
285.77        24.99746
286.22        25.06371
286.68        25.26367
287.13        25.53309
287.59         25.7607
288.04        25.76646
288.50        25.54747
288.95        25.14916
289.41        24.70104
289.86         24.2865
290.32        24.00723
290.77        23.83704
291.22        23.81879
291.68        23.97307
292.13         24.3031
292.59        24.80722
293.04        25.47483
293.50        26.28394
293.95        27.19567
294.40         28.1794
294.86        29.17263
295.31        30.09658
295.77        30.94849
296.22        31.75408
296.68        32.56778
297.13        33.44854
297.58        34.43087
298.04        35.51278
298.49        36.69872
298.95        38.04346
299.40        39.53402
299.85        41.14834
300.31        42.80841
300.76        44.38908
301.21        45.82285
301.67         47.1533
302.12        48.36174
302.58        49.52681
303.03        50.65319
303.48        51.76538
303.94        52.94312
304.39        54.24527
304.84        55.69633
305.30        57.27158
305.75        58.86128
306.20         60.3214
306.66        61.62812
307.11        62.76665
307.57        63.83081
308.02        64.84958
308.47          65.896
308.93        66.96886
309.38         68.0368
309.83        69.10422
310.29        70.15524
310.74         71.1539
311.19         72.1244
311.65        73.10184
312.10         74.0747
312.55        75.04659
313.00        75.90461
313.46        76.47133
313.91        76.71324
314.36        76.71059
314.82        76.68896
315.27         76.9501
315.72         77.5899
316.18        78.51445
316.63        79.54995
317.08        80.36339
317.53        80.84607
317.99        81.07374
318.44        81.20103
318.89        81.48845
319.35        81.98264
319.80        82.62642
320.25        83.22546
320.70        83.46905
321.16        83.30295
321.61        82.84746
322.06        82.34663
322.51        82.17717
322.97        82.40574
323.42        82.94722
323.87         83.5953
324.32          83.995
324.78        84.03204
325.23        83.85254
325.68        83.57645
326.13        83.42577
326.59        83.45822
327.04        83.63142
327.49        83.91219
327.94        84.27787
328.39        84.69994
328.85        85.17049
329.30        85.68029
329.75        86.05352
330.20        86.26704
330.66        86.34949
331.11          86.449
331.56        86.73907
332.01        87.28226
332.46        88.01163
332.92        88.84626
333.37        89.80511
333.82        90.76187
334.27        91.71302
334.72        92.51175
335.17        92.92564
335.63        92.92194
336.08        92.61502
336.53        92.21423
336.98        92.10514
337.43         92.3991
337.88        92.99246
338.34        93.76621
338.79        94.60053
339.24        95.38318
339.69        96.17687
340.14        96.86686
340.59        97.24872
341.05        97.30523
341.50        97.07328
341.95        96.80337
342.40        96.90458
342.85        97.45573
343.30        98.34041
343.75        99.30971
344.20        99.91614
344.66        100.0371
345.11        99.79689
345.56        99.38279
346.01        99.07449
346.46        98.97266
346.91        99.00783
347.36        99.12828
347.81        99.25883
348.26        99.38013
348.72        99.54414
349.17        99.76577
349.62        100.1058
350.07        100.5483
350.52        101.0321
350.97        101.4637
351.42        101.7212
351.87         101.777
352.32        101.6695
352.77        101.4454
353.22        101.1867
353.67        100.9266
354.13        100.6554
354.58        100.3688
355.03        100.1126
355.48        99.88737
355.93        99.69864
356.38        99.47707
356.83        99.10441
357.28        98.56511
357.73        97.89613
358.18        97.20786
358.63        96.67535
359.08         96.3375
359.53        96.14537
359.98        95.98244
360.43        95.66536
360.88        95.14574
361.33        94.46709
361.78        93.74252
362.23        93.15863
362.68        92.76015
363.13        92.49402
363.58        92.22424
364.03        91.73644
364.48        90.99326
364.93        90.07306
365.38        89.13631
365.83        88.43953
366.28        88.03558
366.73        87.82338
367.18        87.66804
367.63        87.35217
368.08        86.81925
368.53        86.16808
368.98        85.43874
369.43        84.67953
369.88        83.92696
370.33        83.15635
370.78        82.47295
371.23        82.05941
371.68        81.94267
372.13        82.07828
372.58        82.28219
373.03        82.23271
373.48        81.85089
373.93        81.23093
374.38        80.54885
374.83        80.07937
375.28        79.88432
375.72        79.85756
376.17        79.89645
376.62        79.81159
377.07         79.5391
377.52        79.13173
377.97        78.64635
378.42        78.17046
378.87        77.74253
379.32        77.34982
379.77         76.9509
380.22        76.48248
380.67        75.93099
381.11        75.31673
381.56        74.72406
382.01        74.29351
382.46        74.06326
382.91        74.01176
383.36        73.99475
383.81        73.78192
384.26        73.33535
384.71        72.72013
385.15        72.12222
385.60        71.88757
386.05        72.02108
386.50        72.39799
386.95        72.76559
387.40         72.7042
387.85        72.15425
388.29        71.27862
388.74        70.40653
389.19        69.72683
389.64        69.28186
390.09        68.95985
390.54        68.77937
390.98        68.77468
391.43        68.91244
391.88        69.16937
392.33         69.3531
392.78        69.10611
393.23        68.42609
393.67        67.60432
394.12        66.94041
394.57        66.26826
395.02         65.8343
395.47        66.39615
395.91        67.73138
396.36        68.51381
396.81        68.54161
397.26        68.43725
397.71        68.25832
398.15        67.80184
398.60        67.21762
399.05        66.57462
399.50        65.97089
399.95        65.35773
400.39        65.05168
400.84        64.82998
401.29        64.75182
401.74        64.77467
402.18        64.88858
402.63        65.03323
403.08        65.23564
403.53         65.5302
403.97        65.89523
404.42        66.28401
404.87        66.54391
405.32        66.42495
405.76        65.89312
406.21        65.11462
406.66        64.31848
407.11        63.81111
407.55        63.69825
408.00        63.92679
408.45        64.34606
408.90        64.60164
409.34        64.54991
409.79        64.23764
410.24        63.82542
410.68         63.6188
411.13        63.68531
411.58        63.85373
412.03        64.09746
412.47        64.43294
412.92        64.77332
413.37        65.13406
413.81        65.40091
414.26        65.44064
414.71        65.22296
415.15        64.78302
415.60        64.26864
416.05        63.94207
416.49        63.87812
416.94        64.02863
417.39        64.23675
417.83          64.211
418.28        63.90855
418.73        63.44508
419.17        63.02666
419.62        62.98188
420.07        63.33226
420.51        63.94556
420.96        64.62868
421.41         64.9754
421.85        64.84993
422.30        64.70583
422.74        64.53841
423.19        63.90232
423.64        63.08112
424.08        63.33455
424.53        64.48523
424.98        65.06094
425.42        64.90999
425.87        64.98285
426.31        65.31422
426.76        65.25913
427.21        64.98902
427.65        65.24443
428.10        65.95698
428.54        66.61547
428.99        67.16396
429.44        67.48051
429.88        67.54997
430.33        68.12451
430.77        68.70371
431.22          67.676
431.66        65.52703
432.11        64.35666
432.56        64.49094
433.00        65.34833
433.45        66.76343
433.89        68.73508
434.34        69.87107
434.78         70.5601
435.23        67.17457
435.67        64.69633
436.12         67.1466
436.57        68.23954
437.01        68.96025
437.46        69.33193
437.90        69.49693
438.35        69.06676
438.79        69.60194
439.24        69.56052
439.68        69.44081
440.13        69.13091
440.57        68.97006
441.02        69.93191
441.46        71.58104
441.91        72.50673
442.35        72.43024
442.80        71.43269
443.24        70.08734
443.69        70.68307
444.13        72.72755
444.58        72.86987
445.02        71.38011
445.47        70.18516
445.91        71.72508
446.36        71.93109
446.80        71.48678
447.24        71.41572
447.69        71.74892
448.13        72.03825
448.58        72.24593
449.02        72.45812
449.47        72.66451
449.91        72.87089
450.36        73.07294
450.80        73.23695
451.25        73.32737
451.69        73.26321
452.13        73.06538
452.58        72.78008
453.02        72.50104
453.47        72.41016
453.91        72.51157
454.36         72.7542
454.80        73.07417
455.24        73.11749
455.69        72.81761
456.13        72.71179
456.58        72.90115
457.02        71.71098
457.46        71.38638
457.91        71.52297
458.35        72.45308
458.79        72.81588
459.24        72.56695
459.68        72.33386
460.13        72.15983
460.57        71.93219
461.01        71.74952
461.46        71.15959
461.90        70.76868
462.34        71.07094
462.79        70.67957
463.23        70.96481
463.68        71.36087
464.12         71.6995
464.56          71.887
465.01         71.9996
465.45        71.94674
465.89        71.91518
466.34        71.78177
466.78        70.88366
467.22        69.73764
467.67        68.98773
468.11        70.18848
468.55        70.76047
468.99        70.85471
469.44        70.50076
469.88        69.91203
470.32        69.92007
470.77         70.4272
471.21         70.4894
471.65        70.05106
472.10        69.78864
472.54        69.77706
472.98        69.79221
473.42        69.82577
473.87        70.10732
474.31        70.45156
474.75        70.24509
475.20        69.63488
475.64        69.46496
476.08         69.8061
476.52        69.78979
476.97        69.34695
477.41        69.52118
477.85        70.45948
478.29        69.06142
478.74        70.19454
479.18        70.27406
479.62        69.11253
480.06         69.6884
480.50        70.04714
480.95        70.46927
481.39        70.45164
481.83        69.60499
482.27        69.78644
482.72        69.31595
483.16        68.28459
483.60        68.29046
484.04        69.85293
484.48        70.32865
484.93        70.40623
485.37        71.60749
485.81        72.30745
486.25        71.33228
486.69        97.47475
487.14         78.9341
487.58        48.84748
488.02        60.00617
488.46        67.62737
488.90        67.32829
489.34        69.05563
489.79        68.04951
490.23        70.23912
490.67        70.95089
491.11        69.88857
491.55        69.88529
491.99        70.50596
492.43        70.37702
492.88        69.58066
493.32        69.51517
493.76        69.70127
494.20        69.98003
494.64        70.10792
495.08        70.32515
495.52         70.6358
495.96        70.64135
496.41        70.31861
496.85        70.68452
497.29        71.47778
497.73        70.18048
498.17        67.86914
498.61        68.22797
499.05        71.15161
499.49        71.57997
499.93        71.09865
500.37        70.75004
500.82        70.48483
501.26        70.61835
501.70         71.2111
502.14        71.39562
502.58        71.15283
503.02        70.95419
503.46        70.81038
503.90        70.37917
504.34        69.82112
504.78        69.58351
505.22        69.71534
505.66        70.10667
506.10        70.60686
506.54         70.8586
506.98        70.71442
507.42        70.75623
507.86        70.14324
508.30        69.93033
508.74        70.12309
509.18        70.39751
509.62        70.68873
510.06        70.83161
510.50        70.78627
510.94        70.60326
511.38        70.38869
511.82        70.30409
512.26        70.39016
512.70        70.59372
513.14        70.82732
513.58        70.96221
514.02        70.95715
514.46        70.83202
514.90        70.65849
515.34        70.61549
515.78        70.58447
516.22         70.7017
516.66        70.85284
517.10        70.75507
517.54        70.38301
517.98        70.39587
518.42        70.03379
518.86        70.04282
519.30        70.18916
519.74         70.4931
520.18        70.84558
520.62        71.06198
521.06         71.1058
521.50        71.03281
521.93         70.9015
522.37        70.80717
522.81        70.78842
523.25        70.80743
523.69        70.87526
524.13        71.01279
524.57        71.21086
525.01        71.46748
525.45        71.71081
525.89        71.82178
526.32        71.76711
526.76        71.57192
527.20        71.32372
527.64        71.18385
528.08        71.20438
528.52        71.28514
528.96        71.30515
529.40        71.27351
529.83         71.2031
530.27        70.38478
530.71        70.33797
531.15        70.13721
531.59        70.23873
532.03        70.53014
532.46        70.93977
532.90         71.3152
533.34        71.57684
533.78        71.76322
534.22        71.84956
534.66        71.80851
535.09        71.64061
535.53        71.38004
535.97        71.08081
536.41        70.85671
536.85        70.74558
537.28         70.7317
537.72        70.78122
538.16        70.83912
538.60        70.87975
539.04        70.87821
539.47        70.84879
539.91        70.95273
540.35        71.10269
540.79        71.19798
541.22        70.90469
541.66        70.85438
542.10        70.94665
542.54        70.99802
542.97        70.99596
543.41        71.04015
543.85        71.12033
544.29        71.22887
544.72         71.2963
545.16        71.23995
545.60        71.04909
546.04        70.76535
546.47        70.51937
546.91        70.53799
547.35        70.86881
547.79        71.41692
548.22        71.95025
548.66        72.29601
549.10        72.24948
549.53        71.39511
549.97          70.151
550.41        69.57274
550.84        69.79327
551.28        70.36951
551.72        71.05746
552.15        71.42577
552.59        71.30322
553.03        71.46634
553.46        71.03593
553.90        70.84702
554.34        70.76038
554.77         71.2221
555.21        71.27345
555.65        71.09631
556.08        71.64105
556.52        71.05425
556.96        71.36162
557.39         71.1938
557.83        71.09639
558.27         70.9911
558.70        70.93068
559.14        71.00721
559.57        71.18896
560.01        71.47005
560.45        71.74955
560.88        71.83784
561.32        71.73835
561.75        71.55219
562.19        71.37236
562.63        71.05799
563.06        70.72386
563.50        70.79757
563.93        71.17242
564.37         71.3503
564.80         71.2667
565.24        71.22626
565.68        71.23737
566.11        71.21478
566.55        71.21503
566.98        71.20918
567.42        71.23781
567.85        71.43075
568.29        71.79784
568.72         71.9519
569.16        72.04292
569.60        72.52203
570.03        73.04024
570.47        72.95444
570.90        72.59406
571.34        70.85462
571.77        71.89668
572.21        71.78146
572.64         71.5819
573.08        70.55296
573.51         67.3429
573.95        69.94854
574.38         74.4811
574.82         72.6047
575.25        72.00644
575.69        69.96093
576.12        68.33883
576.56        67.81276
576.99        69.04311
577.42         72.8975
577.86        72.29409
578.29        72.03065
578.73        75.78815
579.16        70.20937
579.60        63.96187
580.03        66.28876
580.47        71.02254
580.90        72.93276
581.33        71.25518
581.77        70.75439
582.20        77.41237
582.64         77.3141
583.07        66.15395
583.51        64.79181
583.94        63.23698
584.37        66.15111
584.81        69.70772
585.24        73.51416
585.68        74.97098
586.11        74.17574
586.54        69.12389
586.98        66.46663
587.41        67.16969
587.85        70.78053
588.28        73.28107
588.71        70.00259
589.15        67.40945
589.58        68.73532
590.01        68.83355
590.45        70.15023
590.88        71.08091
591.31        70.68027
591.75        70.20479
592.18        70.07126
592.61        71.24554
593.05        71.99464
593.48         75.2338
593.91        75.84625
594.35        69.97048
594.78        67.98267
595.21        67.68509
595.65        70.70975
596.08        73.68323
596.51        70.64063
596.94        68.61948
597.38        69.19326
597.81        71.93311
598.24        73.87247
598.68        72.32214
599.11         71.1115
599.54        74.32301
599.97         76.1287
600.41        70.64207
600.84        70.62061
601.27        72.29893
601.70        71.17953
602.14        71.21355
602.57        69.90288
603.00        70.50415
603.43        72.15957
603.87        73.48481
604.30        73.26695
604.73        70.98708
605.16        69.71413
605.60        70.65211
606.03        71.84235
606.46        72.99283
606.89        72.44041
607.32        70.54871
607.76         70.5241
608.19        72.67296
608.62        71.86246
609.05        70.39703
609.48        70.98337
609.92        71.11841
610.35        70.27377
610.78        72.66763
611.21         73.3242
611.64        70.10574
612.07        70.92027
612.50        71.41618
612.94         71.8708
613.37        71.17118
613.80        71.31264
614.23         71.6803
614.66        71.42809
615.09        71.87147
615.52        71.95663
615.96        71.95255
616.39        72.05039
616.82        71.00208
617.25        71.00597
617.68         71.5709
618.11        72.09937
618.54        72.31461
618.97        71.83653
619.40        71.05222
619.84        70.95872
620.27         72.0407
620.70        72.64391
621.13        72.75098
621.56        72.12063
621.99         71.1173
622.42        71.91536
622.85        73.97656
623.28         73.6102
623.71        73.14999
624.14        72.75248
624.57        72.59921
625.00        72.15415
625.43        72.48895
625.86        71.90931
626.29        72.08941
626.72        72.66515
627.15        72.30174
627.58        72.42802
628.01        72.49236
628.44        72.54417
628.87        72.67995
629.30        72.64895
629.73        73.04056
630.16        73.65067
630.59        73.03339
631.02        72.63311
631.45         72.1425
631.88        71.80538
632.31        71.65934
632.74        71.80647
633.17        71.86383
633.60        71.98811
634.03        72.04246
634.46        72.06705
634.89        72.06522
635.32         72.0505
635.75        72.03404
636.18        71.99137
636.61        71.95022
637.04        71.96989
637.47        72.05309
637.89        72.18652
638.32         72.2961
638.75        72.31447
639.18        72.22318
639.61        72.04868
640.04        71.84106
640.47        71.68086
640.90        71.59801
641.33        71.56921
641.76        71.55708
642.18        71.60265
642.61        71.69241
643.04        71.65409
643.47        71.45722
643.90        71.98059
644.33         71.7394
644.76        71.92394
645.18        72.04758
645.61         72.0632
646.04        71.94268
646.47        71.69386
646.90         71.4538
647.33        71.39565
647.75        71.58262
648.18        71.99529
648.61        72.37853
649.04        72.41127
649.47        72.01502
649.89        70.98196
650.32        69.85643
650.75        69.86704
651.18        70.92206
651.61        71.90511
652.03        72.33293
652.46        72.10386
652.89        71.69008
653.32        71.02367
653.74        70.50157
654.17        72.27252
654.60        72.95319
655.03        70.36974
655.46        71.47701
655.88        75.06264
656.31        80.59096
656.74        184.7536
657.16        120.1347
657.59        42.16077
658.02        31.29148
658.45         54.6263
658.87        69.45911
659.30        72.69263
659.73        71.80296
660.15        69.25433
660.58        71.85028
661.01        73.56468
661.44         71.0937
661.86        70.46411
662.29        70.76697
662.72        71.58019
663.14        72.62601
663.57        72.36374
664.00        71.13536
664.42        70.85558
664.85        71.61095
665.27        72.15112
665.70        72.21977
666.13        72.12509
666.55        71.83092
666.98        71.24474
667.41        70.59257
667.83        70.30429
668.26        70.47525
668.69        70.93761
669.11        71.44282
669.54        71.93918
669.96        71.66158
670.39        71.28237
670.82        70.81056
671.24        70.57492
671.67         70.7026
672.09        71.13792
672.52        71.59035
672.94        72.04684
673.37        71.27177
673.80        70.98303
674.22        70.91803
674.65        70.85939
675.07        70.80824
675.50        70.77371
675.92        70.77875
676.35        70.89249
676.77        71.10979
677.20        71.32417
677.62        71.50896
678.05        71.63158
678.47        71.66679
678.90         71.6339
679.32        71.56536
679.75        71.38307
680.17        71.38772
680.60        71.35129
681.02         71.3121
681.45        71.17123
681.87        70.93566
682.30        70.63501
682.72        70.38783
683.15          70.399
683.57        70.71069
684.00        71.15922
684.42          71.734
684.85        72.04359
685.27        72.05219
685.70        71.84298
686.12        71.51698
686.54        71.29682
686.97         71.2467
687.39        71.27487
687.82        71.28876
688.24        71.36385
688.66        71.49564
689.09        71.01888
689.51        71.22018
689.94        71.21123
690.36        71.37523
690.78        71.63774
691.21        71.91369
691.63        72.05293
692.06        72.01382
692.48         71.8615
692.90         71.6849
693.33        71.61241
693.75        71.68177
694.17        71.85777
694.60         72.0792
695.02          72.241
695.44          72.274
695.87        72.33949
696.29        72.46435
696.71        72.22741
697.14          71.791
697.56        72.15533
697.98        73.08624
698.41        72.79233
698.83        72.03942
699.25        71.57877
699.68         71.6814
700.10        71.66274
700.52        71.53127
700.94        71.66881
701.37        72.01417
701.79        72.35963
702.21        72.61971
702.64        72.85618
703.06        72.99393
703.48        72.90721
703.90        72.60616
704.33        72.13541
704.75        71.63401
705.17        71.41615
705.59        71.56077
706.01        71.86521
706.44        72.18135
706.86        72.88767
707.28        72.94032
707.70        73.13579
708.12        73.19366
708.55        73.14069
708.97        72.97375
709.39        72.69456
709.81        72.40435
710.23        72.26982
710.66        72.33545
711.08        72.59361
711.50        72.89018
711.92        72.98646
712.34        72.83089
712.76        72.48291
713.19        72.11353
713.61        72.03298
714.03        72.29166
714.45        72.78873
714.87         73.3063
715.29        73.50191
715.71        73.30024
716.13        72.81686
716.56        72.24873
716.98         71.9425
717.40        71.98563
717.82        72.27332
718.24        72.66167
718.66        72.90745
719.08        72.93465
719.50        72.82076
719.92        72.63778
720.34        72.51678
720.76        72.50191
721.19        72.42872
721.61        72.50608
722.03        72.56886
722.45        72.66862
722.87        72.80821
723.29        72.96948
723.71        73.11017
724.13        73.21163
724.55        73.27155
724.97        73.30049
725.39        73.32427
725.81         73.3484
726.23        73.36851
726.65        73.36516
727.07         73.3052
727.49        73.19344
727.91        73.05586
728.33        72.93658
728.75        72.90598
729.17        72.97926
729.59        73.12569
730.01        73.32278
730.43        73.52497
730.85        73.71247
731.27        73.91699
731.69        74.08688
732.10        74.11813
732.52         73.9986
732.94        73.80377
733.36        73.65631
733.78        73.61392
734.20         73.6987
734.62        74.20429
735.04        74.94343
735.46        74.85916
735.88        74.21216
736.30        74.66876
736.72        76.09866
737.13        76.65174
737.55         76.0464
737.97        75.74117
738.39         75.8599
738.81        75.06765
739.23        73.86499
739.65        74.87183
740.06        77.46638
740.48          77.811
740.90        75.95576
741.32        74.93186
741.74        75.09873
742.16        75.16782
742.57        75.24006
742.99        76.06635
743.41        77.33466
743.83         78.0788
744.25        78.11412
744.67        77.69767
745.08        77.12945
745.50         76.8942
745.92        77.14288
746.34        77.70107
746.75        78.35407
747.17        78.74911
747.59        78.80879
748.01        78.65273
748.42        78.48164
748.84         78.5891
749.26          79.048
749.68        79.72462
750.09        80.44152
750.51        80.91508
750.93        81.07565
751.35        80.95417
751.76        80.64592
752.18         80.5003
752.60        80.49178
753.01        80.19945
753.43        79.75157
753.85        79.76423
754.27        80.30431
754.68        81.10915
755.10        81.94942
755.52        82.61256
755.93        82.97626
756.35        83.03275
756.77        82.95554
757.18        82.90487
757.60          82.943
758.02          83.369
758.43        83.87265
758.85        83.24232
759.26         81.8847
759.68        81.46397
760.10        82.42685
760.51        82.86667
760.93        82.61138
761.34        82.13716
761.76         81.6395
762.18        81.15922
762.59        80.91145
763.01         81.1729
763.42        81.95318
763.84        82.58092
764.26        82.98362
764.67        83.40696
765.09        83.68315
765.50        83.60893
765.92        83.09115
766.33        81.55775
766.75        79.65604
767.16        79.05449
767.58        79.93799
768.00        81.70906
768.41        83.82738
768.83        85.05976
769.24        84.95438
769.66        84.04876
770.07        82.87955
770.49        81.54055
770.90        80.41843
771.32        81.24717
771.73        83.36986
772.15        82.83997
772.56        80.14391
772.97        79.67152
773.39        81.31709
773.80        81.87308
774.22         81.1239
774.63        81.03067
775.05        81.56323
775.46        81.84474
775.88        81.77728
776.29        81.61421
776.70         81.4267
777.12        81.36008
777.53         81.4623
777.95        81.62103
778.36        81.73811
778.77        81.64168
779.19        81.35033
779.60        80.93549
780.02        80.54533
780.43          80.525
780.84        80.99179
781.26        81.29291
781.67        81.46735
782.09        82.75314
782.50        84.51048
782.91        83.71234
783.33        81.06045
783.74        80.20572
784.15        81.31996
784.57        82.03278
784.98        82.02011
785.39        81.97626
785.81        81.83366
786.22        81.25058
786.63        80.59056
787.04         80.5467
787.46        81.18993
787.87        82.30219
788.28         83.5021
788.70        84.13068
789.11        84.02204
789.52         83.4062
789.93        82.60873
790.35        82.07928
790.76        81.95036
791.17        82.13965
791.58        82.49853
792.00        82.67189
792.41        82.55018
792.82        82.42783
793.23        82.47203
793.65        82.12582
794.06        81.74808
794.47        83.16988
794.88        85.47018
795.29        85.19575
795.71        82.55791
796.12        80.07433
796.53        78.53841
796.94        78.10034
797.35        78.83955
797.76        80.15224
798.18        81.41798
798.59        82.36282
799.00        82.62826
799.41        81.91243
799.82        80.65029
800.23        79.89249
800.64        79.85413
801.06         80.1298
801.47        80.60561
801.88        80.99862
802.29        81.18542
802.70        81.30115
803.11         81.3538
803.52        81.31242
803.93        81.20346
804.34        80.99555
804.75        80.78168
805.17        80.81087
805.58        81.16292
805.99        81.49768
806.40        81.67891
806.81        82.14426
807.22         82.5131
807.63        81.36287
808.04        79.25483
808.45         78.3485
808.86        78.84985
809.27        79.69984
809.68        80.52299
810.09        81.06771
810.50        81.13284
810.91        80.82122
811.32        80.32278
811.73        79.94888
812.14        79.79339
812.55         79.7056
812.96        79.72526
813.37        79.92287
813.78        80.27495
814.19        80.82839
814.60        81.26344
815.01        81.06984
815.42        80.19245
815.83         78.7419
816.24        77.29359
816.65        76.86061
817.05        77.72616
817.46        79.56101
817.87        81.62108
818.28        82.58254
818.69        82.07867
819.10         80.4481
819.51        78.48082
819.92        77.52017
820.33        77.93172
820.74        79.30774
821.14        80.94868
821.55         81.6164
821.96          81.035
822.37        79.64797
822.78        78.06924
823.19        77.18919
823.60        77.24942
824.00        78.00924
824.41         79.0474
824.82         79.7682
825.23        79.90827
825.64        79.67474
826.04         79.2655
826.45         78.9602
826.86        78.84212
827.27        78.78101
827.68        78.71868
828.08        78.61806
828.49        78.39992
828.90        78.17125
829.31        77.93472
829.72        77.66811
830.12        77.42199
830.53         77.1893
830.94        77.09057
831.35        77.27972
831.75        77.81065
832.16        78.56366
832.57        79.42129
832.97        80.10312
833.38        80.42746
833.79        80.45766
834.20        80.30213
834.60         80.1404
835.01        80.06065
835.42        80.00519
835.82         79.9269
836.23        79.66898
836.64        79.25564
837.04        78.77836
837.45        78.35824
837.86        78.18058
838.26        78.29011
838.67        78.57877
839.08        78.96444
839.48        79.28551
839.89        79.43803
840.29        79.48161
840.70        79.38432
841.11        79.08549
841.51        78.61433
841.92         77.9715
842.33        77.35641
842.73        77.10712
843.14        77.26341
843.54        77.78523
843.95        78.38261
844.35        78.63081
844.76        78.40198
845.17        77.82251
845.57        77.16115
845.98        76.84322
846.38        76.96442
846.79         77.3775
847.19        77.86374
847.60        77.94927
848.00         77.5676
848.41        76.87437
848.81        76.17009
849.22        75.81344
849.62        75.95057
850.03        76.47579
850.43        77.26842
850.84         78.0107
851.24        78.60097
851.65        78.91475
852.05         79.1701
852.46        79.55952
852.86        80.11915
853.27        80.80488
853.67        81.07989
854.07        80.26266
854.48        78.40044
854.88        75.77399
855.29         73.2902
855.69        72.24049
856.10        72.87679
856.50         75.0417
856.90        77.92963
857.31        79.66333
857.71        79.63528
858.12         78.3075
858.52        76.56843
858.92         75.6131
859.33        75.70223
859.73        76.50319
860.13        77.72338
860.54        78.74714
860.94        79.36203
861.34        79.71631
861.75        79.87575
862.15        80.02867
862.55        80.20237
862.96        80.30189
863.36        80.33712
863.76        80.31248
864.17        80.24224
864.57        80.20792
864.97        80.25791
865.38        80.43732
865.78        80.78663
866.18        81.19658
866.58        81.62181
866.99        81.97504
867.39        82.27429
867.79        82.57436
868.19          82.688
868.60        82.27415
869.00        81.32944
869.40        79.97476
869.80         78.8851
870.21        79.09089
870.61        80.86123
871.01        83.87162
871.41        87.18549
871.81        89.19048
872.22        89.43031
872.62        88.34419
873.02        86.78961
873.42        86.26567
873.82         86.9874
874.22        88.28127
874.63         89.6861
875.03        90.25417
875.43        89.55632
875.83        88.69409
876.23        86.92878
876.63        86.23101
877.03        86.65843
877.44        88.40696
877.84        102.5061
878.24        95.43465
878.64        95.46831
879.04        94.65527
879.44        91.23682
879.84        89.49196
880.24        92.46742
880.64        94.29237
881.04        95.52328
881.44        96.24715
881.84        95.81333
882.24        94.52174
882.65        93.22933
883.05        92.82224
883.45        93.46561
883.85        95.04912
884.25        96.95393
884.65         97.9297
885.05        97.61111
885.45        96.46008
885.85         95.1506
886.25        94.59939
886.65        94.99494
887.05        95.99613
887.45        97.26849
887.85        98.21355
888.25        98.58227
888.65        98.61146
889.04        98.31287
889.44        97.74819
889.84        96.99442
890.24         95.9975
890.64        95.10686
891.04        94.87385
891.44        95.36753
891.84        96.49023
892.24        97.69529
892.64        97.96883
893.04        97.14433
893.44        95.64347
893.83        94.16638
894.23        93.73333
894.63        94.52337
895.03        96.15096
895.43        98.25936
895.83        100.1651
896.23         101.496
896.63        102.4212
897.02        102.7228
897.42        102.0845
897.82        100.6175
898.22        98.48727
898.62        96.37537
899.01        95.28944
899.41        95.44476
899.81        96.51183
900.21        97.99261
900.61        99.03183
901.00         99.3355
901.40        99.15522
901.80        98.64696
902.20        98.06585
902.59        97.53027
902.99        96.92659
903.39        96.32319
903.79        95.87098
904.18        95.62282
904.58        95.63619
904.98        95.83968
905.38        96.08537
905.77        96.29675
906.17        96.47048
906.57        96.64056
906.96        96.91846
907.36        97.24756
907.76        97.59834
908.15        97.81116
908.55        97.52719
908.95        96.75413
909.34        95.58058
909.74        94.41055
910.14        93.69207
910.53        93.57655
910.93        94.00786
911.33        94.75551
911.72        95.39894
912.12        95.71317
912.52         95.7578
912.91        95.78279
913.31         96.1362
913.70         96.9332
914.10        98.11105
914.49        99.25344
914.89        99.25477
915.29        97.85014
915.68        95.45668
916.08        93.27995
916.47        92.43753
916.87        93.02538
917.26        94.68057
917.66         96.4991
918.05        97.01871
918.45        95.88579
918.84        93.64849
919.24        91.28349
919.64        90.20475
920.03        90.78417
920.42        92.56982
920.82        94.88844
921.21        96.68488
921.61        97.37528
922.00        97.30797
922.40        96.69456
922.79        95.81966
923.19        94.88287
923.58        93.73742
923.98        92.43211
924.37        91.44117
924.77         91.1545
925.16        89.69981
925.55        90.66047
925.95        91.57881
926.34        93.41581
926.74        95.68851
927.13        97.83226
927.52        98.67397
927.92        98.07874
928.31         96.4595
928.70        94.26482
929.10        92.28446
929.49        90.79797
929.89        89.63457
930.28         89.1752
930.67        90.04233
931.07        92.09515
931.46        95.17161
931.85        98.14674
932.24        99.32036
932.64        98.36732
933.03         95.6305
933.42        91.93545
933.82        89.21862
934.21        88.15282
934.60        88.24008
934.99        88.88111
935.39        89.43591
935.78        89.77673
936.17        89.94872
936.56        89.61399
936.96        90.09837
937.35        88.32222
937.74        87.09447
938.13        86.23618
938.53         86.6274
938.92        88.25974
939.31        91.02637
939.70        94.20738
940.09        95.69252
940.49        94.68961
940.88        92.05434
941.27        89.04364
941.66        87.12144
942.05        86.53582
942.44        86.80083
942.84        87.67024
943.23        88.83087
943.62        89.98165
944.01        91.22678
944.40        92.30962
944.79         92.8193
945.18        92.65739
945.57        91.77134
945.97        90.36324
946.36        89.16357
946.75        88.59446
947.14        88.53902
947.53        88.73676
947.92        88.83863
948.31        88.78199
948.70        88.69099
949.09        88.64181
949.48        88.77112
949.87        89.08984
950.26        89.43541
950.65        89.73259
951.04        89.92056
951.43         89.9604
951.82        89.89883
952.21        89.56282
952.60         88.7037
952.99        87.35599
953.38         85.6268
953.77        84.00504
954.16        83.18463
954.55        83.28264
954.94        84.18105
955.33        85.26167
955.72        85.45663
956.11        84.52957
956.50        82.74713
956.89        80.97739
957.28        80.83035
957.66        82.77212
958.05        85.99773
958.44        89.43429
958.83        91.50037
959.22        91.79134
959.61        90.78053
960.00        89.00563
960.39        87.34381
960.78        86.15761
961.16        85.23209
961.55        84.52126
961.94        83.99868
962.33        83.64159
962.72        83.54766
963.11        83.64998
963.49        83.78957
963.88        83.88966
964.27        83.94651
964.66        83.86829
965.04        83.57904
965.43        83.01662
965.82        82.30517
966.21        81.64892
966.60        81.28346
966.98        81.26235
967.37        81.49998
967.76        81.88317
968.15        82.15636
968.53        82.20586
968.92        82.01059
969.31        81.72478
969.69        81.54388
970.08        81.50468
970.47        81.58594
970.86        81.52478
971.24        80.87021
971.63         79.5531
972.02        77.73936
972.40        76.03998
972.79        75.51038
973.17        76.57124
973.56        78.86102
973.95        81.72628
974.33        83.79362
974.72        84.41749
975.11        83.89881
975.49        82.83887
975.88        82.18687
976.26        82.11909
976.65         82.3925
977.04        82.48441
977.42         81.3128
977.81        78.72751
978.19        75.40306
978.58        72.82457
978.96        72.29769
979.35        73.96797
979.74        77.60561
980.12        82.50581
980.51        85.85748
980.89        86.73663
981.28        85.71284
981.66        83.92064
982.05        82.90096
982.43        82.93934
982.82        83.52239
983.20        84.49561
983.59        85.75152
983.97         87.2767
984.35        89.20676
984.74        91.04714
985.12        91.99453
985.51        91.38026
985.89        89.27592
986.28        86.18658
986.66        82.95036
987.04        80.31098
987.43        78.42905
987.81        77.02958
988.20        75.53539
988.58        73.60488
988.96        70.88708
989.35        68.02853
989.73        68.11316
990.12        72.63089
990.50        79.83767
990.88        85.64298
991.27        87.34787
991.65        85.52343
992.03        80.94137
992.42        75.59213
992.80        73.07632
993.18        74.46739
993.56        77.91742
993.95        81.55605
994.33        83.70406
994.71        84.00622
995.10        83.40135
995.48        82.12956
995.86        80.32176
996.24        78.11701
996.63        75.13861
997.01        72.17299
997.39        71.69625
997.77        74.59985
998.15        80.26724
998.54         85.9016
998.92        87.85846
999.30        85.06325
999.68        78.36228
1000.06        69.60009
1000.45        63.40348
1000.83        61.62179
1001.21        62.80931
1001.59        65.45117
1001.97        67.85516
1002.35        69.62006
1002.73        71.69609
1003.12        73.34847
1003.50        72.50072
1003.88         68.6626
1004.26        62.94135
1004.64         58.1686
1005.02        56.94076
1005.40        59.60345
1005.78        66.68644
1006.16        78.19731
1006.54        86.81343
1006.92        86.34133
1007.30        80.64866
1007.69        74.91747
1008.07        72.05454
1008.45        71.71956
1008.83        73.52514
1009.21        77.75887
1009.59        78.84349
1009.97        52.65546
1010.35       -18.39662
1010.73       -39.00885
1011.11       -7.897192
1011.49        23.18045
1011.86        47.37517
1012.24        61.59617
1012.62        67.71529
1013.00        68.85567
1013.38        66.69254
1013.76        63.60528
1014.14        67.04602
1014.52         83.1903
1014.90        113.5689
1015.28        150.0899
1015.66        169.6359
1016.04        157.9542
1016.41         119.119
1016.79        74.53348
1017.17        48.24062
1017.55        40.92317
1017.93        41.80703
1018.31        45.50911
1018.69        49.47269
1019.06          53.497
1019.44        58.54516
1019.82        65.51543
1020.20        72.69333
1020.58        76.65337
1020.95        72.53634
1021.33        37.73115
1021.71        691.7168
1022.09        170.3969
1022.46         145.594
1022.84        139.4469
1023.22        140.3819
1023.60        150.0507
1023.97        256.9319
1024.35        77.24828
1024.73        101.1602
