SpectraSmart Spectrum 2.9.0.0
--------- Device Information -----------
Spectrum Name :  反射率_0
Saving Time :  2024/04/26 01:36:04
Spectro-Module Model Name : SE2030-DUVN
Spectro-Module Serial Number : OS361AC55029948
Wavelength Start : 200
Wavelength End : 1025
Wavelength Unit : Wavelength(nm)
Spectrum Unit : Reflectance(%)
-----------Spectrum Setting ------------
Integration Time : 20ms
Average : 10
Boxcar : 0
Background removal :  enabled
linearity correction :  enabled
SC :  disabled
Intensity correction :  disabled
DWT denoise :  enabled
savitzky-golay :  disabled
FFT :  disabled
Running average :  disabled
Kalman :  disabled
High pass :  disabled
---------------BEGIN--------------------
Wavelength(nm)             Reflectance(%)
200.29               0
200.75        99.19092
201.21        95.14777
201.67        88.85439
202.13        84.27973
202.58        82.28915
203.04        82.05056
203.50        82.76143
203.96        83.36703
204.42        83.48808
204.88        83.45383
205.34        83.95712
205.80        85.97072
206.26        90.44485
206.72        99.90467
207.18        117.5807
207.64        131.5098
208.10        118.8185
208.55        95.96633
209.01        82.27723
209.47        78.46009
209.93        80.43967
210.39        86.37476
210.85        93.30694
211.31        94.76997
211.77        88.73829
212.23        77.69616
212.69        66.48251
213.14        62.49837
213.60        66.98549
214.06        77.88371
214.52        90.57011
214.98        97.89321
215.44        98.04425
215.90        93.38445
216.36        87.21362
216.81        84.00069
217.27         84.9342
217.73        88.26012
218.19        91.54843
218.65        91.82038
219.11        88.11387
219.57        79.96732
220.02        69.17989
220.48        64.17981
220.94        69.07084
221.40        80.97932
221.86        90.77542
222.32        89.37004
222.77        78.54147
223.23        64.26755
223.69        52.32723
224.15        48.54385
224.61        52.23047
225.06        60.33011
225.52        69.00254
225.98         73.3121
226.44         72.3251
226.90        68.14697
227.36        63.17349
227.81        60.61208
228.27        61.45052
228.73        64.15438
229.19        67.63485
229.65        70.35646
230.10        71.75387
230.56        72.57188
231.02        72.88843
231.48        72.72791
231.93        72.22646
232.39        71.43155
232.85        70.75406
233.31        70.97356
233.77        72.22572
234.22        74.37679
234.68        76.84858
235.14        78.39709
235.60        78.61682
236.05        77.88366
236.51        76.86845
236.97        76.57503
237.43        77.34109
237.88        79.08617
238.34        81.59414
238.80        84.45694
239.26          87.125
239.71        89.86241
240.17        91.89172
240.63        92.70145
241.08        92.45962
241.54        91.19627
242.00         90.1511
242.46        91.28796
242.91        96.53045
243.37        110.0384
243.83        149.5259
244.28        260.9836
244.74        354.5628
245.20        261.5529
245.66        196.4591
246.11        179.6196
246.57        189.1054
247.03        235.0448
247.48        374.9291
247.94        305.2988
248.40        155.8316
248.85        110.1255
249.31        96.49126
249.77        94.64014
250.22        99.23806
250.68        110.2208
251.14        127.8666
251.59        142.9433
252.05         144.255
252.51        134.6904
252.96        122.6887
253.42        117.8192
253.88         120.032
254.33         125.715
254.79         133.116
255.25        139.1955
255.70        142.7646
256.16           145.6
256.62        147.3187
257.07        147.2985
257.53        146.4461
257.99        144.3259
258.44        141.4966
258.90        140.1372
259.35        139.0443
259.81        138.1587
260.27        136.1263
260.72         131.588
261.18        125.6926
261.63        118.7935
262.09        112.3907
262.55        107.1491
263.00        103.0247
263.46        99.98627
263.91        97.35982
264.37        95.09863
264.83        92.76143
265.28        90.23443
265.74        87.62479
266.19        84.71201
266.65        81.96033
267.11        79.45879
267.56        77.18686
268.02        75.17439
268.47        73.20019
268.93        71.26694
269.38        69.46291
269.84        68.18998
270.30        67.52472
270.75        67.33767
271.21        67.27853
271.66        66.79482
272.12        65.76657
272.57        64.32998
273.03        62.81036
273.48        61.58249
273.94        60.80048
274.39        60.26703
274.85        59.84513
275.31        59.26772
275.76         58.4445
276.22        57.52268
276.67        56.54783
277.13        55.74849
277.58        55.07875
278.04        54.53943
278.49        53.95928
278.95        53.25387
279.40         52.3409
279.86        51.36136
280.31        50.34897
280.77        49.53555
281.22         48.8964
281.68        48.42308
282.13        48.02262
282.59        47.66132
283.04        47.28582
283.50        46.98872
283.95        46.69471
284.41        46.35412
284.86        45.94702
285.32        45.50265
285.77        45.15998
286.22        45.22898
286.68        45.70149
287.13        46.40565
287.59        47.03264
288.04        47.07201
288.50        46.49469
288.95         45.4557
289.41        44.29949
289.86        43.38696
290.32        42.90905
290.77        42.73329
291.22        42.81958
291.68        43.05257
292.13        43.38656
292.59        43.88872
293.04        44.55535
293.50        45.37971
293.95        46.32673
294.40        47.34022
294.86        48.40284
295.31        49.50734
295.77        50.65824
296.22        51.86228
296.68        53.07057
297.13        54.17048
297.58        55.16258
298.04        56.09679
298.49        57.11113
298.95        58.48727
299.40        60.24594
299.85        62.28676
300.31        64.39175
300.76        66.20121
301.21         67.6007
301.67        68.74579
302.12        69.69884
302.58        70.69642
303.03        71.76961
303.48        72.89227
303.94        74.16249
304.39        75.64957
304.84        77.36438
305.30        79.28445
305.75        81.17321
306.20        82.70517
306.66        83.84085
307.11        84.60486
307.57        85.27518
308.02        86.12309
308.47        87.27611
308.93         88.6589
309.38        90.06522
309.83        91.23685
310.29        92.11001
310.74        92.73879
311.19        93.31335
311.65        94.11305
312.10        95.17858
312.55        96.43363
313.00        97.64325
313.46        98.43748
313.91        98.71851
314.36        98.62235
314.82        98.45809
315.27        98.63323
315.72        99.28617
316.18        100.2949
316.63        101.4271
317.08        102.2555
317.53        102.6545
317.99        102.7293
318.44        102.7398
318.89        103.1114
319.35        103.9055
319.80        105.0093
320.25        106.0584
320.70        106.4608
321.16        106.0971
321.61        105.1834
322.06        104.1329
322.51        103.5854
322.97          103.68
323.42        104.2738
323.87        105.0809
324.32        105.6046
324.78        105.6815
325.23        105.5193
325.68        105.2715
326.13        105.2171
326.59        105.4143
327.04         105.774
327.49        106.2339
327.94        106.7468
328.39        107.2648
328.85        107.7895
329.30         108.277
329.75        108.4535
330.20        108.3074
330.66         107.917
331.11        107.5874
331.56        107.7228
332.01        108.4468
332.46        109.6368
332.92        111.0709
333.37        112.5489
333.82        113.8189
334.27        114.9073
334.72        115.7154
335.17        116.1145
335.63        116.1127
336.08        115.8088
336.53        115.3656
336.98        115.1138
337.43        115.1712
337.88        115.4702
338.34        116.0137
338.79        116.8845
339.24        117.9974
339.69        119.3505
340.14        120.6296
340.59        121.2851
341.05        121.2106
341.50        120.5433
341.95        119.7242
342.40        119.4466
342.85        119.8663
343.30        120.7905
343.75        121.8791
344.20        122.5308
344.66        122.5823
345.11        122.2168
345.56        121.6895
346.01        121.3714
346.46        121.3767
346.91        121.5845
347.36        121.8775
347.81        122.0906
348.26        122.1765
348.72        122.2093
349.17        122.2423
349.62        122.3971
350.07        122.6782
350.52        123.0064
350.97        123.2731
351.42        123.3305
351.87        123.1488
352.32        122.7918
352.77        122.3214
353.22        121.8345
353.67        121.3812
354.13        120.9594
354.58        120.5718
355.03         120.284
355.48        120.0854
355.93        119.9449
356.38        119.7837
356.83        119.4727
357.28        118.9723
357.73        118.3158
358.18        117.5278
358.63        116.6563
359.08        115.7417
359.53        114.7933
359.98        113.8607
360.43        113.0143
360.88         112.263
361.33        111.5839
361.78        110.9516
362.23        110.3174
362.68        109.6662
363.13        109.0241
363.58        108.3499
364.03        107.5774
364.48        106.7032
364.93        105.7344
365.38        104.7816
365.83        104.0333
366.28        103.5089
366.73        103.1313
367.18        102.7482
367.63         102.111
368.08          101.18
368.53        100.0826
368.98        98.92073
369.43        97.83429
369.88        96.88236
370.33        96.01543
370.78        95.31583
371.23        94.92299
371.68        94.83515
372.13        95.00778
372.58         95.2245
373.03         95.1139
373.48        94.58943
373.93        93.76017
374.38        92.83366
374.83          92.138
375.28        91.75133
375.72         91.5518
376.17        91.44512
376.62        91.25547
377.07        90.91357
377.52        90.47047
377.97        89.93661
378.42        89.32338
378.87        88.66454
379.32        87.98161
379.77        87.29586
380.22        86.63261
380.67        85.99635
381.11        85.37959
381.56         84.8308
382.01        84.43159
382.46        84.19743
382.91        84.11868
383.36        84.05973
383.81        83.80656
384.26        83.32201
384.71        82.65589
385.15        81.98009
385.60        81.63383
386.05        81.61506
386.50        81.80805
386.95        81.97489
387.40        81.72355
387.85        81.02155
388.29        80.03862
388.74        79.11334
389.19        78.40897
389.64        77.96425
390.09        77.66541
390.54        77.55434
390.98        77.70244
391.43        78.05611
391.88        78.54772
392.33        78.91525
392.78        78.69079
393.23        77.86108
393.67        76.81259
394.12        75.89435
394.57        74.86662
395.02        74.05148
395.47        74.44367
395.91        75.81509
396.36        76.59204
396.81        76.55624
397.26        76.47548
397.71        76.40147
398.15        76.02486
398.60        75.48371
399.05        74.91016
399.50        74.37384
399.95        73.65218
400.39        73.15534
400.84        72.90713
401.29        72.94794
401.74        72.93686
402.18         72.8521
402.63         72.8154
403.08        72.89817
403.53        73.11939
403.97        73.45686
404.42        73.85027
404.87        74.14019
405.32        74.01897
405.76        73.43842
406.21        72.71802
406.66        72.00912
407.11        71.26569
407.55         70.7355
408.00        70.88548
408.45        71.58414
408.90        72.24178
409.34        72.48545
409.79        71.90063
410.24        70.80559
410.68        70.25803
411.13        70.37208
411.58          70.521
412.03        70.65026
412.47        70.96893
412.92        71.38216
413.37         71.8475
413.81        72.22311
414.26        72.34199
414.71        72.15611
415.15        71.70156
415.60        71.14148
416.05        70.76328
416.49        70.65224
416.94        70.76161
417.39        70.90929
417.83        70.76127
418.28        70.27704
418.73        69.59341
419.17        68.98466
419.62        68.88081
420.07         69.3111
420.51        70.10594
420.96        70.98164
421.41        71.39127
421.85        71.16976
422.30        70.80135
422.74        70.35479
423.19        69.58005
423.64        68.73418
424.08        68.83997
424.53        69.76733
424.98        70.29178
425.42        70.27602
425.87         70.6431
426.31        71.28986
426.76        71.15883
427.21        70.49693
427.65        70.64965
428.10        71.58261
428.54        72.33893
428.99        72.86298
429.44        73.28654
429.88        73.53643
430.33        74.22852
430.77        74.81753
431.22        73.56102
431.66        71.03575
432.11        69.76297
432.56        69.95905
433.00        70.56208
433.45        71.56227
433.89        73.33996
434.34         74.3722
434.78        76.65578
435.23        72.68156
435.67        70.26388
436.12        72.49012
436.57        73.59029
437.01        74.53619
437.46          74.882
437.90        74.81788
438.35        74.21635
438.79        74.80174
439.24        74.69788
439.68        74.43555
440.13        74.04297
440.57        73.86626
441.02        74.70933
441.46        76.20454
441.91        77.30446
442.35        77.58258
442.80        76.64162
443.24        75.02303
443.69         75.3622
444.13        77.27792
444.58        77.38663
445.02        75.40939
445.47        75.22462
445.91         76.5508
446.36        77.00883
446.80         76.4986
447.24        76.26189
447.69        76.39211
448.13        76.49447
448.58        76.61562
449.02        76.89143
449.47        77.26885
449.91        77.58386
450.36         77.8018
450.80        77.97542
451.25         78.0652
451.69        77.95024
452.13        77.65431
452.58        77.22789
453.02        76.79768
453.47         76.6064
453.91        76.67664
454.36        76.93865
454.80        77.25621
455.24        77.30284
455.69        77.02988
456.13        76.68716
456.58        76.39997
457.02        75.86409
457.46        75.34137
457.91        75.59332
458.35        76.40443
458.79        76.76871
459.24        76.62355
459.68        76.45822
460.13        76.30097
460.57        75.99915
461.01        75.65292
461.46        75.08372
461.90        74.31592
462.34        74.81989
462.79        74.31621
463.23        74.72752
463.68         75.2411
464.12         75.7048
464.56        75.93288
465.01        75.93927
465.45        75.67119
465.89        75.19695
466.34        74.53259
466.78        73.61993
467.22        72.96968
467.67        71.87133
468.11        73.43027
468.55        73.88123
468.99        73.88462
469.44        73.45093
469.88         72.8232
470.32        72.79951
470.77        73.25755
471.21        73.27153
471.65        72.78258
472.10        72.47645
472.54        72.44322
472.98        72.45142
473.42        72.49422
473.87        72.85182
474.31        73.28548
474.75        73.00822
475.20        72.25789
475.64         71.9609
476.08        72.59852
476.52         72.6335
476.97        72.16204
477.41        72.10796
477.85        72.53938
478.29        71.93851
478.74        72.21191
479.18         72.3975
479.62        71.56514
480.06        72.25066
480.50        72.41943
480.95        72.80018
481.39        73.00167
481.83        71.73618
482.27        71.77772
482.72        72.12538
483.16        70.50311
483.60        70.72749
484.04        72.37246
484.48        72.72125
484.93        72.38422
485.37        74.04284
485.81        74.58436
486.25        73.50325
486.69        100.6647
487.14        81.67146
487.58        50.22345
488.02        61.39621
488.46        69.57526
488.90        69.25443
489.34        70.77301
489.79        69.54205
490.23        71.80885
490.67        72.55348
491.11        71.46878
491.55        71.34609
491.99        71.77221
492.43        71.55008
492.88        70.77885
493.32        70.75715
493.76        70.97826
494.20        71.27734
494.64        71.38438
495.08        71.62208
495.52        71.96919
495.96        71.77445
496.41        71.12009
496.85        71.53258
497.29        72.66303
497.73         71.4304
498.17        68.91328
498.61        69.05414
499.05        71.84454
499.49        72.44503
499.93        72.35083
500.37        72.07919
500.82        71.53663
501.26        71.47932
501.70        71.71106
502.14        71.93261
502.58        71.96502
503.02        71.86993
503.46        71.63181
503.90         71.1991
504.34        70.73417
504.78        70.51948
505.22        70.59789
505.66        70.91228
506.10         71.3271
506.54        71.49499
506.98        71.31318
507.42        71.31632
507.86        70.87453
508.30        70.63671
508.74         70.6575
509.18        70.71548
509.62        70.81483
510.06        70.87257
510.50        70.87249
510.94        70.83786
511.38        70.81033
511.82        70.84956
512.26        70.96601
512.70        71.13381
513.14        71.30019
513.58        71.39153
514.02        71.38889
514.46        71.28619
514.90        71.13725
515.34         71.0769
515.78         71.1295
516.22        71.07462
516.66        71.29984
517.10        71.16024
517.54        70.77277
517.98        70.77332
518.42         70.4242
518.86        70.47769
519.30          70.695
519.74        71.08636
520.18        71.52029
520.62        71.77872
521.06        71.81369
521.50        71.69054
521.93         71.4705
522.37        71.25529
522.81        71.09787
523.25        70.97048
523.69        70.90799
524.13        70.96528
524.57        71.13837
525.01        71.41174
525.45        71.70468
525.89        71.87864
526.32        71.89011
526.76        71.77364
527.20        71.58723
527.64        71.44805
528.08        71.40744
528.52         71.3739
528.96        71.29607
529.40        71.29493
529.83        71.39603
530.27        70.84489
530.71        71.07214
531.15         70.9965
531.59        71.04633
532.03        71.15832
532.46        71.33817
532.90        71.56387
533.34        71.79706
533.78        72.03432
534.22        72.21249
534.66        72.24633
535.09        72.11538
535.53        71.87539
535.97        71.57956
536.41        71.33703
536.85        71.18723
537.28         71.1083
537.72        71.08065
538.16        71.08108
538.60        71.09647
539.04        71.08251
539.47        71.03056
539.91        71.11555
540.35        71.25697
540.79        71.15587
541.22        70.86884
541.66        70.77652
542.10        70.89215
542.54        71.00366
542.97        71.07867
543.41        71.17883
543.85        71.28029
544.29        71.39359
544.72         71.4426
545.16        71.34038
545.60        71.07821
546.04        70.67912
546.47        70.31394
546.91        70.29109
547.35        70.63889
547.79        71.23333
548.22        71.80669
548.66        72.01381
549.10        71.74267
549.53         70.9901
549.97        70.08871
550.41        69.61446
550.84        69.68738
551.28          70.082
551.72        70.61633
552.15        71.00959
552.59        71.15614
553.03        71.15638
553.46        71.06191
553.90        70.94897
554.34        70.96531
554.77          70.904
555.21        70.78561
555.65        70.78609
556.08        71.00835
556.52        70.48633
556.96        70.87219
557.39        70.79234
557.83        70.75819
558.27        70.72429
558.70        70.73936
559.14         70.8658
559.57        71.06924
560.01        71.31728
560.45        71.52979
560.88        71.60918
561.32        71.53472
561.75        71.28938
562.19        70.98386
562.63        70.56031
563.06        70.16779
563.50        70.28404
563.93        70.76257
564.37        70.96452
564.80        70.81223
565.24        70.68958
565.68        70.63596
566.11        70.58363
566.55        70.60039
566.98        70.64291
567.42        70.72742
567.85        70.97682
568.29        71.38131
568.72        71.49019
569.16        71.47237
569.60        71.98156
570.03        72.59857
570.47        72.58218
570.90        72.16203
571.34        70.82299
571.77        71.24386
572.21        71.48788
572.64        70.90079
573.08        69.92839
573.51        66.69721
573.95        69.37884
574.38        74.01482
574.82         72.1654
575.25        71.53252
575.69        69.29623
576.12         68.0481
576.56         67.5062
576.99        68.69997
577.42        72.26089
577.86        72.24947
578.29        71.71712
578.73        75.35726
579.16         69.5538
579.60        63.43356
580.03        66.09422
580.47        70.37968
580.90        72.47069
581.33        71.07943
581.77        70.21833
582.20        77.37753
582.64        77.25767
583.07        66.07477
583.51        64.65575
583.94        63.04552
584.37        65.57669
584.81        68.94926
585.24        72.85945
585.68        74.89391
586.11        73.66721
586.54        68.43143
586.98        66.31596
587.41        66.92372
587.85        70.11143
588.28        73.16891
588.71        69.39267
589.15        67.00343
589.58        68.47987
590.01        68.81086
590.45        69.56462
590.88        70.56534
591.31        69.72646
591.75         69.0922
592.18        69.05952
592.61        70.65189
593.05        71.35835
593.48        74.38335
593.91        75.56838
594.35        69.17852
594.78        67.64359
595.21        67.26414
595.65        70.34579
596.08        73.20629
596.51        70.23071
596.94        68.04124
597.38        68.56528
597.81        71.30782
598.24        73.04996
598.68        71.62188
599.11        70.25136
599.54        73.52137
599.97        75.00283
600.41        69.85241
600.84         69.9993
601.27        71.52389
601.70        70.18018
602.14        70.15588
602.57        68.98399
603.00        69.50287
603.43        71.15117
603.87        72.82114
604.30        72.72205
604.73        70.41698
605.16        68.84138
605.60        69.64905
606.03        70.70058
606.46        71.76378
606.89        71.38853
607.32        69.21983
607.76        68.90738
608.19        71.30766
608.62        70.68013
609.05        69.50076
609.48         70.0028
609.92        69.68208
610.35        69.56795
610.78        71.76066
611.21        72.19696
611.64        69.12383
612.07        69.75374
612.50         70.1179
612.94        70.52358
613.37        69.92293
613.80        70.20325
614.23         70.6714
614.66        70.56985
615.09        70.69737
615.52        70.69402
615.96        70.68479
616.39        70.66794
616.82        69.46044
617.25        69.40343
617.68        70.01115
618.11        70.64895
618.54         70.9815
618.97        70.42099
619.40        69.37385
619.84        69.35346
620.27        70.30137
620.70        71.02438
621.13        71.30031
621.56        70.65277
621.99        69.40052
622.42        70.19559
622.85        72.63019
623.28        71.62113
623.71          71.215
624.14        71.33372
624.57         70.8304
625.00        70.25864
625.43        70.69128
625.86        70.10491
626.29        70.31657
626.72        70.68269
627.15        70.51337
627.58        70.72324
628.01        70.92467
628.44         70.9532
628.87         70.8929
629.30        71.08282
629.73        71.34959
630.16        71.92996
630.59        71.18436
631.02        70.77531
631.45        70.37827
631.88        70.11421
632.31        70.02322
632.74        70.12138
633.17        70.30262
633.60        70.43266
634.03        70.44745
634.46        70.46094
634.89        70.47013
635.32        70.31533
635.75        70.08517
636.18        70.12122
636.61        70.38737
637.04        70.52174
637.47        70.49866
637.89        70.54031
638.32        70.61382
638.75        70.60899
639.18        70.52155
639.61        70.38864
640.04        70.23887
640.47        70.11891
640.90        70.04802
641.33        70.00779
641.76        69.97251
642.18         70.0011
642.61        70.08588
643.04        70.05511
643.47         69.8633
643.90        70.34528
644.33        70.04874
644.76        70.14716
645.18        70.19872
645.61        70.21027
646.04        70.16229
646.47        70.04329
646.90        69.94268
647.33        69.95176
647.75        70.10788
648.18        70.43317
648.61        70.71334
649.04        70.62601
649.47        70.14626
649.89         69.2179
650.32        68.29971
650.75        68.33324
651.18        69.20956
651.61        70.02417
652.03        70.42812
652.46        70.25072
652.89        69.83315
653.32         69.7094
653.74        69.28471
654.17        70.36944
654.60        70.80186
655.03        68.53512
655.46        69.32467
655.88        73.49432
656.31        78.99504
656.74        183.9489
657.16        119.7142
657.59        41.94956
658.02        30.93467
658.45        52.91693
658.87        67.32142
659.30        70.29566
659.73        69.54366
660.15        66.86101
660.58        69.38556
661.01        71.27046
661.44         69.3188
661.86        68.72536
662.29        68.67234
662.72         69.3308
663.14        70.47855
663.57         70.3301
664.00         69.1698
664.42        68.91693
664.85        69.64815
665.27        70.14555
665.70        70.18909
666.13         70.1173
666.55        69.89864
666.98        69.42442
667.41        68.88502
667.83        68.65159
668.26        68.80491
668.69        69.20054
669.11        69.60313
669.54         69.9798
669.96        69.60251
670.39        69.10622
670.82        68.53366
671.24        68.30887
671.67        68.53676
672.09        69.02861
672.52        69.49054
672.94        69.99423
673.37        69.32755
673.80        69.09068
674.22        69.02304
674.65        68.94501
675.07        68.86066
675.50        68.76733
675.92        68.70148
676.35        68.75475
676.77        68.92951
677.20        69.12394
677.62         69.3031
678.05        69.41537
678.47         69.4332
678.90        69.38267
679.32         69.3091
679.75        69.15841
680.17         69.2217
680.60        69.26341
681.02        69.30106
681.45        69.20648
681.87        68.97548
682.30        68.65387
682.72        68.36088
683.15        68.28146
683.57        68.47592
684.00        68.83349
684.42        69.35915
684.85        69.61208
685.27        69.56622
685.70        69.34092
686.12         69.0386
686.54        68.86225
686.97        68.86422
687.39        68.96182
687.82        69.07017
688.24        69.21807
688.66        69.38058
689.09         69.1281
689.51        69.29202
689.94        69.25269
690.36        69.26625
690.78        69.29306
691.21        69.32535
691.63        69.34575
692.06        69.34631
692.48        69.35052
692.90        69.37151
693.33        69.41293
693.75        69.48029
694.17        69.57911
694.60        69.69727
695.02        69.80661
695.44        69.86337
695.87        70.00484
696.29         70.2292
696.71        70.08337
697.14        69.73291
697.56        70.17742
697.98        71.13035
698.41        71.02859
698.83        70.04629
699.25        69.44379
699.68        69.36522
700.10        69.22105
700.52         69.0445
700.94        69.19352
701.37        69.60122
701.79        70.03291
702.21        70.38797
702.64        70.73255
703.06        70.96299
703.48        70.91016
703.90        70.57639
704.33          70.011
704.75        69.39555
705.17        69.11527
705.59        69.26543
706.01        69.63132
706.44        70.02018
706.86        70.71321
707.28        70.68091
707.70        70.73144
708.12        70.64659
708.55        70.52915
708.97        70.39361
709.39        70.21454
709.81        70.05792
710.23        70.03036
710.66         70.1526
711.08        70.43188
711.50        70.72661
711.92         70.8194
712.34        70.66507
712.76        70.30982
713.19        69.92413
713.61        69.82001
714.03        70.04926
714.45        70.51902
714.87        71.00476
715.29        71.14835
715.71        70.87816
716.13        70.32042
716.56        69.69694
716.98        69.39338
717.40        69.50329
717.82        69.90212
718.24        70.42268
718.66          70.786
719.08        70.90285
719.50         70.8379
719.92        70.64471
720.34        70.49535
720.76        70.45499
721.19        70.09549
721.61          70.139
722.03        70.11152
722.45        70.22213
722.87        70.44141
723.29        70.72039
723.71        70.95102
724.13        71.08749
724.55        71.15097
724.97        71.15302
725.39        71.12347
725.81        71.07836
726.23        71.01298
726.65        70.93529
727.07        70.85767
727.49        70.79299
727.91        70.75533
728.33        70.75889
728.75        70.82001
729.17        70.93354
729.59        71.07904
730.01        71.24835
730.43        71.42086
730.85        71.58878
731.27        71.78216
731.69        71.94248
732.10        71.95703
732.52        71.81358
732.94        71.58636
733.36        71.42616
733.78         71.4379
734.20        71.64458
734.62        72.31288
735.04        73.19287
735.46        73.14432
735.88        72.40221
736.30        72.62384
736.72        73.75305
737.13        74.13354
737.55        73.54166
737.97        73.34705
738.39        73.59766
738.81         72.9006
739.23        71.69948
739.65         72.5235
740.06         74.8463
740.48        75.12083
740.90        73.42522
741.32        72.62264
741.74        72.98779
742.16        73.15408
742.57        73.18288
742.99         73.8443
743.41        74.90694
743.83        75.55273
744.25        75.63401
744.67        75.35435
745.08        74.95543
745.50        74.82773
745.92        75.09136
746.34        75.61223
746.75        76.18478
747.17        76.46798
747.59        76.40045
748.01        76.09399
748.42        75.79908
748.84        75.89401
749.26        76.46319
749.68        77.35278
750.09        78.30068
750.51        78.87846
750.93        78.98207
751.35        78.68559
751.76         78.1722
752.18        77.92048
752.60        77.93879
753.01        77.77716
753.43        77.49326
753.85        77.57136
754.27          78.046
754.68          78.706
755.10        79.37944
755.52        79.93459
755.93        80.27317
756.35        80.36032
756.77        80.34163
757.18         80.3196
757.60         80.3252
758.02        80.74842
758.43        81.28238
758.85        80.57249
759.26        78.89077
759.68        78.87138
760.10        80.27433
760.51        80.86268
760.93        80.29679
761.34        79.48569
761.76        78.76688
762.18        78.42274
762.59        78.55631
763.01        78.78082
763.42        79.10449
763.84         79.5352
764.26        80.03716
764.67        80.45226
765.09        80.62036
765.50         80.4519
765.92        79.91624
766.33        78.63553
766.75        77.11452
767.16        76.63373
767.58        77.34212
768.00        78.68224
768.41        80.30954
768.83        81.66959
769.24        82.22974
769.66        81.59892
770.07        80.26903
770.49        78.95309
770.90        78.02031
771.32        78.79964
771.73        80.68205
772.15        80.06932
772.56        77.46336
772.97        77.05437
773.39        78.72057
773.80        79.31028
774.22        78.59579
774.63        78.50168
775.05        79.00726
775.46        79.26796
775.88        79.18994
776.29        79.01001
776.70        78.79649
777.12        78.68823
777.53        78.73749
777.95        78.85525
778.36        78.93277
778.77        78.77926
779.19        78.41074
779.60        77.89526
780.02        77.44604
780.43        77.48053
780.84        78.11324
781.26        78.75956
781.67        79.31368
782.09        80.53687
782.50        81.84583
782.91        80.80993
783.33        78.18235
783.74        77.24745
784.15         78.1971
784.57        78.93316
784.98        79.09338
785.39        79.14173
785.81        78.97878
786.22        78.34212
786.63        77.62148
787.04        77.53862
787.46        78.17602
787.87        79.29176
788.28        80.50068
788.70        81.15286
789.11        81.07181
789.52        80.47301
789.93        79.67348
790.35        79.11309
790.76        78.93468
791.17        79.06912
791.58        79.34777
792.00        79.46658
792.41        79.34438
792.82        79.02522
793.23        78.77763
793.65        78.81786
794.06        79.21951
794.47        80.39554
794.88        81.65597
795.29        81.09618
795.71        78.97559
796.12        77.00404
796.53        75.81318
796.94        75.44013
797.35        76.00294
797.76        77.40881
798.18        79.01431
798.59        79.97918
799.00         79.9267
799.41        78.91319
799.82        77.46465
800.23        76.59338
800.64        76.53812
801.06        76.91407
801.47        77.55573
801.88        78.08119
802.29        78.33033
802.70         78.4566
803.11        78.47784
803.52        78.38865
803.93        78.23337
804.34         77.9724
804.75        77.71375
805.17        77.75374
805.58        78.18125
805.99        78.59664
806.40        78.86099
806.81        79.52159
807.22        80.12309
807.63        78.96956
808.04        76.66083
808.45        75.64641
808.86        76.15737
809.27        76.98528
809.68        77.73843
810.09        78.21905
810.50        78.22897
810.91        77.85253
811.32        77.32688
811.73        77.03357
812.14        77.07428
812.55        77.28986
812.96        77.60662
813.37        77.88981
813.78        78.07148
814.19        78.25961
814.60        78.31168
815.01        77.98817
815.42          77.286
815.83        76.23466
816.24        75.24435
816.65        75.03631
817.05        75.80659
817.46        77.31991
817.87        78.96563
818.28        79.64725
818.69         79.0756
819.10        77.51682
819.51        75.70375
819.92        74.88582
820.33        75.38691
820.74        76.83822
821.14        78.52744
821.55        79.18661
821.96        78.54464
822.37         77.0494
822.78        75.36232
823.19        74.45649
823.60        74.59114
824.00        75.50243
824.41        76.73953
824.82        77.62855
825.23        77.87093
825.64        77.69569
826.04        77.29932
826.45        76.96362
826.86        76.78194
827.27        76.61445
827.68        76.44961
828.08        76.33356
828.49         76.2056
828.90        76.15565
829.31        76.10398
829.72        75.87374
830.12        75.47828
830.53         74.9647
830.94        74.55502
831.35        74.54543
831.75        75.02278
832.16        75.83197
832.57        76.80053
832.97        77.54556
833.38        77.85013
833.79        77.80582
834.20        77.56821
834.60         77.3853
835.01        77.35847
835.42        77.40496
835.82        77.42477
836.23        77.17971
836.64        76.67592
837.04        76.03603
837.45        75.44887
837.86        75.20157
838.26        75.36514
838.67        75.80827
839.08        76.38791
839.48        76.83543
839.89        77.01023
840.29        76.99338
840.70        76.81247
841.11        76.49854
841.51        76.10292
841.92        75.60606
842.33        75.12935
842.73        74.88907
843.14        74.89926
843.54        75.14568
843.95        75.47043
844.35        75.66027
844.76        75.63203
845.17        75.45948
845.57        75.21337
845.98        75.01685
846.38        74.91212
846.79        74.83116
847.19        74.79881
847.60        74.78035
848.00        74.79943
848.41        74.84114
848.81        74.90054
849.22        74.88641
849.62        74.83507
850.03        74.77666
850.43        74.77883
850.84        74.87961
851.24        75.13719
851.65        75.36257
852.05        75.70706
852.46        76.24531
852.86        76.95381
853.27        77.81374
853.67        78.32346
854.07        77.83511
854.48        76.37956
854.88         74.2056
855.29        72.08932
855.69        71.14722
856.10        71.59885
856.50        73.29707
856.90        75.63496
857.31        77.17814
857.71        77.44637
858.12        76.75421
858.52        75.64266
858.92        74.83347
859.33        74.50572
859.73        74.45596
860.13        74.62215
860.54        74.90321
860.94        75.31433
861.34        75.87408
861.75        76.47623
862.15        77.01611
862.55        77.40949
862.96        77.65639
863.36        77.77298
863.76        77.76864
864.17        77.67231
864.57        77.53368
864.97        77.45493
865.38        77.58705
865.78        77.99771
866.18        78.57187
866.58        79.20693
866.99        79.70794
867.39        80.05584
867.79        80.31733
868.19        80.38129
868.60        80.04639
869.00        79.33376
869.40        78.32171
869.80        77.52534
870.21        77.72852
870.61        79.15154
871.01        81.54115
871.41        84.18068
871.81        85.82748
872.22        86.12853
872.62        85.41911
873.02         84.3114
873.42        83.95918
873.82        84.47519
874.22        85.20227
874.63        85.89745
875.03        86.15725
875.43        85.74044
875.83        85.68478
876.23        84.44579
876.63        83.94266
877.03        84.06501
877.44         84.9867
877.84        103.9233
878.24         91.0843
878.64        91.61848
879.04        91.89356
879.44        88.32413
879.84        86.57925
880.24        90.23518
880.64        92.11214
881.04        92.88762
881.44        93.03451
881.84        92.08214
882.24        90.29368
882.65         88.7174
883.05         88.3654
883.45        89.39542
883.85        91.78037
884.25        94.60397
884.65        95.97161
885.05        95.35133
885.45        93.40411
885.85        91.20225
886.25        90.22094
886.65        90.75785
887.05        92.30486
887.45        94.26881
887.85        95.58833
888.25        95.85759
888.65        95.45885
889.04        94.62214
889.44        93.73566
889.84        92.96799
890.24        92.16338
890.64        91.49365
891.04        91.25755
891.44        91.46243
891.84        92.07301
892.24        92.74947
892.64        92.82885
893.04        92.21842
893.44        91.22347
893.83        90.22787
894.23        89.79855
894.63        90.03857
895.03        90.68047
895.43        91.71568
895.83        93.09927
896.23        94.66397
896.63        96.42141
897.02        97.74007
897.42        97.60848
897.82         95.9542
898.22        93.15884
898.62        90.31613
899.01        89.04169
899.41        89.66836
899.81        91.66318
900.21        94.16902
900.61        95.77068
901.00        96.04891
901.40        95.44949
901.80        94.46857
902.20        93.88222
902.59        93.92255
902.99        94.28981
903.39        94.75217
903.79        94.94875
904.18        94.77542
904.58        94.47609
904.98        94.17278
905.38        94.01641
905.77        94.04015
906.17          94.127
906.57        94.31762
906.96         94.7504
907.36        95.32186
907.76        95.98608
908.15        96.43809
908.55        96.05967
908.95         94.8172
909.34        92.91065
909.74        90.88367
910.14        89.40579
910.53        88.72557
910.93        88.73964
911.33        89.32598
911.72        90.23166
912.12        91.17522
912.52        92.08429
912.91        92.92263
913.31        93.69994
913.70        94.47733
914.10        95.23766
914.49         95.6525
914.89        94.97561
915.29        93.17072
915.68        90.61549
916.08        88.40836
916.47        87.51247
916.87        87.97229
917.26        89.49165
917.66         91.2331
918.05        91.81895
918.45        90.92068
918.84        89.05896
919.24        87.09943
919.64        86.31156
920.03        87.03072
920.42        88.80386
920.82        91.13528
921.21        93.26692
921.61        94.64432
922.00        95.50426
922.40        95.70161
922.79        95.06302
923.19          93.729
923.58        91.62278
923.98        89.17155
924.37        87.79281
924.77        88.14006
925.16        87.55951
925.55        89.84052
925.95        90.93734
926.34        91.79739
926.74         92.3287
927.13        92.62686
927.52        92.48929
927.92        91.99238
928.31        91.21264
928.70        90.24561
929.10        89.32592
929.49        88.50072
929.89        87.76962
930.28        87.46667
930.67        88.12762
931.07        89.66202
931.46        91.92295
931.85        94.04057
932.24        94.74356
932.64        93.79969
933.03        91.43923
933.42        88.34591
933.82        86.09546
934.21          85.206
934.60        85.31989
934.99         85.8028
935.39         85.9957
935.78        85.79257
936.17        85.00299
936.56        83.43002
936.96        84.40166
937.35        83.20145
937.74        83.56474
938.13        84.03335
938.53        84.94973
938.92        86.35029
939.31        88.31918
939.70        90.36463
940.09        91.01205
940.49        89.82957
940.88        87.46802
941.27        85.00187
941.66        83.68707
942.05        83.69034
942.44        84.59058
942.84        86.03745
943.23        87.48576
943.62        88.55487
944.01        89.37165
944.40        89.80155
944.79        89.63225
945.18        88.82965
945.57        87.32935
945.97        85.35081
946.36        83.67493
946.75        82.82244
947.14        82.68112
947.53          82.999
947.92        83.43696
948.31        83.90356
948.70        84.52274
949.09        85.18971
949.48        85.60471
949.87        85.62602
950.26        85.23713
950.65        84.68916
951.04         84.4317
951.43        84.55148
951.82         84.9238
952.21        85.26154
952.60        85.09518
952.99        84.33102
953.38        83.15806
953.77        81.89414
954.16        80.97034
954.55         80.5071
954.94        80.44001
955.33        80.52798
955.72         80.3592
956.11        79.85843
956.50        79.15116
956.89        78.65939
957.28        79.11725
957.66        80.73316
958.05        82.99707
958.44        85.27802
958.83        86.67111
959.22        86.92809
959.61         86.2429
960.00        84.98692
960.39        83.77866
960.78        82.85696
961.16        82.14922
961.55         81.4211
961.94        80.30898
962.33        78.83055
962.72        77.23122
963.11        75.98488
963.49        75.66148
963.88        76.30923
964.27        77.81878
964.66        79.62046
965.04        80.49037
965.43        79.92838
965.82        78.39053
966.21        76.75061
966.60        76.16954
966.98        76.85054
967.37        78.37089
967.76        80.20268
968.15        81.29187
968.53        81.25542
968.92        80.44907
969.31        79.26994
969.69        78.19115
970.08        77.38874
970.47        76.73591
970.86        76.20995
971.24        75.81893
971.63        75.56118
972.02        75.46248
972.40        75.63142
972.79        76.17213
973.17        77.14969
973.56        78.39541
973.95        79.50867
974.33        79.75288
974.72        78.89251
975.11        77.16901
975.49         75.3319
975.88        74.42741
976.26        74.57893
976.65        75.60754
977.04        76.75941
977.42        76.26762
977.81        73.67984
978.19        69.80386
978.58        66.50174
978.96        65.61118
979.35        67.37893
979.74        71.43654
980.12          76.889
980.51        80.51653
980.89        81.22528
981.28        79.78886
981.66        77.55549
982.05        76.29587
982.43        76.32557
982.82        76.97299
983.20         78.0489
983.59        79.38525
983.97        80.94991
984.35        82.98561
984.74        84.85098
985.12        85.36407
985.51        83.81878
985.89        80.32608
986.28        76.13382
986.66        73.24699
987.04         72.4296
987.43        73.22999
987.81        74.35498
988.20         74.1247
988.58        72.01437
988.96        67.67041
989.35        61.86331
989.73        59.44724
990.12        63.73789
990.50         72.5273
990.88        80.19434
991.27        82.53543
991.65        80.10423
992.03         74.1897
992.42        67.37769
992.80        64.34663
993.18        66.41126
993.56        71.07874
993.95        75.94973
994.33        78.86652
994.71         79.3916
995.10         78.6949
995.48        77.10559
995.86         74.8263
996.24        72.06337
996.63        68.41685
997.01        64.77899
997.39        64.03146
997.77         67.2393
998.15        73.64918
998.54        80.31838
998.92        83.38457
999.30        81.69425
999.68        76.24639
1000.06        68.38684
1000.45        61.76456
1000.83        58.21631
1001.21        56.81452
1001.59        57.24461
1001.97         59.1836
1002.35         62.3848
1002.73        67.64912
1003.12        73.61703
1003.50        75.42911
1003.88        70.97308
1004.26        62.51044
1004.64        54.38644
1005.02        50.39493
1005.40        50.84767
1005.78        55.37932
1006.16        64.77631
1006.54        74.97284
1006.92        79.68691
1007.30        79.85367
1007.69        78.24188
1008.07        77.01364
1008.45        76.24948
1008.83        74.80284
1009.21        70.07506
1009.59        52.14469
1009.97        -1.06138
1010.35       -76.26798
1010.73       -64.36246
1011.11       -17.83027
1011.49        15.75186
1011.86        39.79295
1012.24        53.72673
1012.62        60.58499
1013.00        63.55457
1013.38        64.11236
1013.76        64.46007
1014.14        70.42758
1014.52        86.32029
1014.90        112.9802
1015.28        142.9008
1015.66        156.6196
1016.04        142.5833
1016.41        104.7313
1016.79        63.64519
1017.17        41.13552
1017.55        36.62279
1017.93        39.82027
1018.31          45.028
1018.69        49.41882
1019.06        53.08779
1019.44        56.91187
1019.82        62.59002
1020.20        72.41257
1020.58        88.99391
1020.95        117.1091
1021.33        165.3422
1021.71       -339.4538
1022.09        81.37483
1022.46        109.8385
1022.84        122.8354
1023.22        135.2939
1023.60        160.6632
1023.97        397.5367
1024.35      0.03040259
1024.73        49.20496
