SpectraSmart Spectrum 2.9.0.0
--------- Device Information -----------
Spectrum Name :  反射率_0
Saving Time :  2024/04/26 01:37:33
Spectro-Module Model Name : SE2030-DUVN
Spectro-Module Serial Number : OS361AC55029948
Wavelength Start : 200
Wavelength End : 1025
Wavelength Unit : Wavelength(nm)
Spectrum Unit : Reflectance(%)
-----------Spectrum Setting ------------
Integration Time : 20ms
Average : 10
Boxcar : 0
Background removal :  enabled
linearity correction :  enabled
SC :  disabled
Intensity correction :  disabled
DWT denoise :  enabled
savitzky-golay :  disabled
FFT :  disabled
Running average :  disabled
Kalman :  disabled
High pass :  disabled
---------------BEGIN--------------------
Wavelength(nm)             Reflectance(%)
200.29               0
200.75        88.38897
201.21        80.38475
201.67        71.24555
202.13        65.14758
202.58        62.57441
203.04        62.81614
203.50        64.62836
203.96        65.80943
204.42        65.67727
204.88        64.92719
205.34        64.24886
205.80         64.3608
206.26        65.66553
206.72        68.95456
207.18        75.17338
207.64        79.55517
208.10        73.91068
208.55        64.75898
209.01         59.7677
209.47        59.57307
209.93        62.42888
210.39        67.83721
210.85        73.22531
211.31        72.83181
211.77        65.27274
212.23        52.95593
212.69         41.1309
213.14        37.84183
213.60        44.40413
214.06        58.56194
214.52        75.14247
214.98        86.03139
215.44          88.909
215.90        86.19643
216.36        80.83322
216.81        76.89697
217.27        75.74164
217.73        75.86557
218.19         75.5969
218.65         72.6885
219.11        66.04514
219.57        54.93875
220.02        40.28048
220.48        29.58483
220.94        27.98519
221.40        34.62935
221.86        42.46694
222.32         43.5336
222.77        38.25756
223.23        30.41672
223.69        24.31563
224.15        24.43618
224.61        30.08019
225.06        38.87656
225.52        47.05831
225.98         49.7904
226.44        46.38959
226.90        39.09658
227.36        30.94731
227.81        26.04616
228.27        25.58894
228.73        27.99087
229.19        31.81302
229.65        34.89665
230.10        36.52026
230.56         37.3683
231.02         37.8027
231.48        38.16127
231.93        38.54742
232.39        38.77508
232.85         38.8014
233.31        38.67671
233.77        38.40154
234.22        37.98483
234.68         37.5191
235.14        37.07803
235.60        36.73013
236.05        36.54245
236.51        36.41571
236.97        36.10789
237.43         35.6159
237.88        35.07727
238.34        34.81779
238.80        35.67025
239.26        37.97306
239.71        41.49548
240.17        45.67134
240.63        49.93612
241.08        53.94695
241.54        57.50887
242.00        60.52406
242.46        63.32602
242.91        66.84496
243.37         72.5805
243.83        87.79915
244.28        136.5428
244.74        192.3282
245.20        162.1776
245.66        134.0011
246.11        125.4466
246.57        127.6285
247.03        142.5569
247.48        185.5927
247.94        149.8671
248.40        100.0878
248.85        86.47011
249.31        83.23894
249.77        83.75673
250.22         86.5662
250.68        92.00248
251.14        99.73026
251.59        104.0762
252.05         99.9888
252.51        90.36937
252.96        80.48776
253.42        75.42316
253.88        74.54735
254.33        75.87936
254.79        78.95312
255.25        82.49892
255.70        85.53397
256.16        88.42879
256.62        89.78494
257.07        88.12175
257.53          84.304
257.99        78.80183
258.44        73.36572
258.90         70.9661
259.35        70.64541
259.81        71.28059
260.27        70.92686
260.72        67.70635
261.18        62.44995
261.63        56.07704
262.09        50.26788
262.55        46.30144
263.00        44.14325
263.46        43.20731
263.91        42.58893
264.37        41.58516
264.83        39.98867
265.28        37.95333
265.74        35.98191
266.19        34.59377
266.65        33.98613
267.11        33.84311
267.56        33.70643
268.02         33.0102
268.47        31.65373
268.93        29.84729
269.38        27.91335
269.84        26.63678
270.30        26.22773
270.75        26.46069
271.21        26.93814
271.66        27.06745
272.12        26.67251
272.57        25.93445
273.03        25.10717
273.48        24.49549
273.94        24.20526
274.39        24.08739
274.85        23.99606
275.31        23.72754
275.76         23.2304
276.22        22.60853
276.67        21.97228
277.13        21.55112
277.58        21.33876
278.04        21.28142
278.49        21.20528
278.95        20.91382
279.40        20.36079
279.86        19.67461
280.31        18.97124
280.77        18.52073
281.22        18.33773
281.68        18.35132
282.13        18.44499
282.59        18.47798
283.04        18.41025
283.50        18.31301
283.95        18.19809
284.41        18.09319
284.86        18.00685
285.32        17.92905
285.77        17.89925
286.22        18.03725
286.68        18.32508
287.13        18.70124
287.59        19.03115
288.04        19.11233
288.50         18.9338
288.95        18.55618
289.41        18.12572
289.86        17.76594
290.32          17.576
290.77        17.51522
291.22        17.60307
291.68        17.82816
292.13        18.18559
292.59        18.68027
293.04         19.3014
293.50        20.02399
293.95        20.81572
294.40        21.64693
294.86        22.47321
295.31        23.24669
295.77        23.96902
296.22        24.66109
296.68        25.35854
297.13        26.08823
297.58        26.88104
298.04        27.74773
298.49        28.71492
298.95        29.86506
299.40        31.19375
299.85        32.66897
300.31        34.20872
300.76         35.6806
301.21        37.02302
301.67        38.29618
302.12        39.47785
302.58         40.6235
303.03        41.74098
303.48        42.83506
303.94        44.03331
304.39        45.48056
304.84        47.19069
305.30        49.10158
305.75        50.97649
306.20        52.46824
306.66        53.53181
307.11        54.24588
307.57        54.86225
308.02        55.65924
308.47         56.7578
308.93         58.0712
309.38         59.4766
309.83        60.82232
310.29        62.03791
310.74        63.14364
311.19        64.16997
311.65        65.16069
312.10        66.12428
312.55        67.05188
313.00         67.8811
313.46         68.5266
313.91        68.96285
314.36         69.2327
314.82        69.49146
315.27        69.93539
315.72        70.63312
316.18        71.53168
316.63        72.47674
317.08        73.17229
317.53        73.53597
317.99        73.63299
318.44        73.66912
318.89        73.98319
319.35        74.63384
319.80        75.54877
320.25        76.44296
320.70        76.84422
321.16        76.65435
321.61        76.02879
322.06        75.32104
322.51        75.08202
322.97        75.42057
323.42         76.2053
323.87        77.11636
324.32        77.60308
324.78        77.50513
325.23        77.02902
325.68        76.43678
326.13        76.17728
326.59        76.36165
327.04        76.86786
327.49        77.52534
327.94         78.0797
328.39        78.43621
328.85         78.6675
329.30        78.85309
329.75         78.9832
330.20        79.09868
330.66        79.17209
331.11        79.33519
331.56        79.74394
332.01        80.43433
332.46        81.34899
332.92        82.34778
333.37        83.31625
333.82        84.10426
334.27        84.74506
334.72        85.17171
335.17        85.30211
335.63        85.16107
336.08        84.82069
336.53        84.49004
336.98        84.54079
337.43        85.05783
337.88        85.94358
338.34        86.98766
338.79        87.91106
339.24        88.57001
339.69        89.05482
340.14         89.3809
340.59         89.5862
341.05        89.71226
341.50        89.71954
341.95        89.72387
342.40        89.93063
342.85        90.37273
343.30        91.00756
343.75        91.66557
344.20        92.03251
344.66        92.04156
345.11        91.77921
345.56        91.41251
346.01         91.1939
346.46         91.1999
346.91         91.3574
347.36        91.59787
347.81        91.81777
348.26        91.98095
348.72         92.1364
349.17        92.27273
349.62        92.41998
350.07        92.57563
350.52        92.71081
350.97        92.79787
351.42        92.80872
351.87        92.74005
352.32        92.60739
352.77        92.43288
353.22         92.2495
353.67        92.07159
354.13         91.9076
354.58        91.73011
355.03        91.54855
355.48         91.3567
355.93        91.14923
356.38        90.91729
356.83        90.64574
357.28         90.3289
357.73        89.97319
358.18        89.57076
358.63        89.11037
359.08        88.60217
359.53        88.06013
359.98        87.51987
360.43        87.03535
360.88        86.60889
361.33        86.21004
361.78        85.81419
362.23        85.38068
362.68         84.9006
363.13        84.40571
363.58        83.86463
364.03        83.22526
364.48        82.49297
364.93         81.6779
365.38         80.9019
365.83        80.36383
366.28        80.08768
366.73        80.00328
367.18        79.93114
367.63        79.57655
368.08        78.88322
368.53        77.96989
368.98        76.99229
369.43        76.18155
369.88        75.60722
370.33        75.19512
370.78        74.91355
371.23        74.71409
371.68        74.55614
372.13        74.44831
372.58        74.33606
373.03         74.1209
373.48        73.78729
373.93        73.36852
374.38        72.90561
374.83        72.46784
375.28        72.07967
375.72        71.70658
376.17        71.40267
376.62        71.22462
377.07        71.16074
377.52        71.17528
377.97        71.15374
378.42        70.91434
378.87         70.4309
379.32        69.78318
379.77         69.0688
380.22        68.42387
380.67        67.88506
381.11        67.41147
381.56        67.00643
382.01        66.68173
382.46        66.43709
382.91        66.29148
383.36        66.16932
383.81        65.94438
384.26        65.59485
384.71        65.13851
385.15        64.68066
385.60        64.44638
386.05        64.42459
386.50        64.53835
386.95        64.61478
387.40        64.37119
387.85         63.7941
388.29        63.00978
388.74        62.27852
389.19        61.73308
389.64        61.39492
390.09        61.16188
390.54        61.06755
390.98        61.16732
391.43        61.43276
391.88        61.82983
392.33        62.11589
392.78         61.9182
393.23        61.24063
393.67        60.25014
394.12        59.34762
394.57        58.83823
395.02        58.83419
395.47        59.34903
395.91        60.18872
396.36        60.76302
396.81        60.90871
397.26        60.80138
397.71        60.52863
398.15        60.09366
398.60        59.62881
399.05        59.26061
399.50        58.95369
399.95        58.25765
400.39        57.57084
400.84        57.25645
401.29        57.40616
401.74        57.66702
402.18        57.93351
402.63        58.09015
403.08         58.1634
403.53         58.3554
403.97        58.65466
404.42        58.86783
404.87        58.89843
405.32        58.69136
405.76        58.23903
406.21        57.64744
406.66        57.08995
407.11        56.74769
407.55        56.71749
408.00        57.09749
408.45        57.70178
408.90        57.94696
409.34        57.70597
409.79        57.25195
410.24         56.7706
410.68        56.45924
411.13        56.39432
411.58        56.48033
412.03        56.69903
412.47        57.03531
412.92        57.40197
413.37        57.81993
413.81        58.15073
414.26        58.21891
414.71        57.98947
415.15        57.50867
415.60         56.9493
416.05         56.6181
416.49        56.60197
416.94        56.83764
417.39        57.15423
417.83        57.24458
418.28        57.04151
418.73        56.63887
419.17         56.2429
419.62        56.18151
420.07        56.49249
420.51        57.06533
420.96        57.65766
421.41        57.85988
421.85        57.56974
422.30        57.04483
422.74        56.47256
423.19        56.13623
423.64         56.1104
424.08         56.4935
424.53        57.12322
424.98        57.57552
425.42        57.74654
425.87        57.92256
426.31          58.122
426.76        58.01945
427.21        57.79655
427.65        58.08991
428.10        58.82074
428.54        59.49829
428.99        60.08371
429.44        60.39212
429.88        60.42461
430.33        61.19738
430.77        62.11154
431.22        60.91545
431.66        58.28632
432.11         57.2615
432.56        58.01298
433.00        58.94018
433.45         59.8091
433.89        61.18323
434.34        61.95889
434.78        63.00844
435.23        59.85557
435.67        58.18213
436.12        60.58785
436.57        61.60502
437.01         61.9653
437.46        62.27748
437.90        62.74253
438.35        62.05689
438.79         62.7743
439.24        62.67256
439.68        62.54293
440.13        62.23274
440.57        62.06203
441.02        62.89996
441.46        64.35065
441.91         65.1822
442.35        65.13916
442.80        64.25591
443.24        63.01818
443.69        63.59302
444.13        65.58169
444.58        65.70567
445.02        64.14299
445.47        63.90474
445.91        64.94032
446.36        65.29214
446.80        64.90437
447.24        64.77848
447.69        64.97504
448.13        65.18197
448.58        65.40488
449.02        65.67776
449.47        65.95695
449.91        66.18528
450.36        66.34666
450.80        66.43881
451.25        66.46201
451.69        66.39523
452.13        66.26415
452.58        66.07314
453.02         65.9024
453.47        65.91447
453.91        66.11334
454.36        66.45751
454.80        66.80093
455.24        66.82421
455.69        66.47231
456.13        65.98209
456.58         65.5742
457.02        65.07523
457.46        64.63248
457.91        65.39581
458.35        65.74417
458.79         66.1077
459.24        66.03321
459.68        65.74808
460.13        65.32541
460.57        65.21352
461.01        64.95675
461.46        64.36401
461.90        64.37463
462.34        64.36057
462.79        64.41145
463.23        64.60015
463.68        64.82893
464.12        65.12327
464.56        65.38744
465.01        65.53542
465.45        65.40091
465.89        65.14967
466.34        64.77037
466.78         63.7369
467.22        62.54513
467.67          62.401
468.11        63.59858
468.55         64.2887
468.99        64.27202
469.44        63.93906
469.88        63.47736
470.32         63.3994
470.77        63.67669
471.21        63.67131
471.65         63.3665
472.10        63.30769
472.54         63.4893
472.98        63.62626
473.42        63.69355
473.87        63.84003
474.31        63.97554
474.75        63.89456
475.20        63.65045
475.64        63.40649
476.08        63.34827
476.52        63.26706
476.97        63.19995
477.41        63.39725
477.85        63.80882
478.29        63.55049
478.74        63.92787
479.18        63.69334
479.62        63.15417
480.06        63.63739
480.50        63.76091
480.95         63.9496
481.39        63.84063
481.83        63.08376
482.27        63.19872
482.72        63.10887
483.16        62.02982
483.60        62.34042
484.04        63.63966
484.48        63.86536
484.93        63.54814
485.37        64.96886
485.81        65.15234
486.25        64.60017
486.69        86.53046
487.14        69.72354
487.58        43.78165
488.02        54.31499
488.46        61.99747
488.90        61.12843
489.34        63.02705
489.79        61.94275
490.23        63.53918
490.67        64.42251
491.11        64.01671
491.55        64.08685
491.99        64.22588
492.43        63.95807
492.88        63.38645
493.32        63.28926
493.76        63.23755
494.20        63.37131
494.64        63.49529
495.08          63.691
495.52        63.97014
495.96        64.12736
496.41        64.08042
496.85        64.43533
497.29         64.9921
497.73        63.86334
498.17        61.98783
498.61        62.31802
499.05        64.77573
499.49        65.09956
499.93        64.74564
500.37         64.4763
500.82        64.20354
501.26        64.29883
501.70        64.55115
502.14         64.8285
502.58        64.94482
503.02        64.88309
503.46        64.62125
503.90        64.10078
504.34        63.52921
504.78        63.28556
505.22        63.43139
505.66        63.88027
506.10         64.4407
506.54        64.68536
506.98          64.493
507.42        64.39706
507.86        63.82913
508.30         63.6297
508.74        63.65139
509.18        63.83278
509.62        64.06666
510.06        64.19991
510.50        64.19643
510.94        64.11007
511.38        64.02151
511.82        64.04551
512.26        64.20634
512.70        64.45255
513.14        64.71223
513.58        64.87775
514.02        64.90999
514.46        64.83701
514.90        64.70734
515.34        64.57865
515.78        64.46354
516.22        64.42506
516.66        64.44263
517.10        64.27712
517.54        63.92365
517.98        64.14571
518.42        63.94641
518.86        64.12022
519.30        64.35397
519.74        64.70003
520.18        65.06785
520.62        65.30375
521.06        65.38026
521.50        65.33568
521.93        65.21295
522.37        65.08695
522.81        64.99543
523.25        64.91912
523.69        64.88444
524.13        64.93185
524.57        65.05896
525.01         65.2552
525.45        65.45982
525.89        65.56897
526.32        65.55019
526.76        65.43096
527.20        65.25861
527.64        65.12912
528.08        65.08541
528.52        65.04828
528.96        64.97039
529.40        64.96022
529.83        65.04234
530.27        64.52956
530.71        64.72827
531.15        64.66016
531.59        64.71501
532.03        64.82965
532.46        65.00809
532.90        65.22875
533.34        65.45403
533.78         65.6835
534.22        65.84768
534.66        65.85077
535.09        65.67513
535.53        65.37891
535.97        65.03969
536.41        64.80195
536.85        64.71061
537.28        64.73324
537.72        64.81729
538.16        64.88462
538.60        64.90752
539.04        64.85876
539.47        64.76397
539.91        64.83397
540.35        65.00618
540.79        64.99312
541.22        64.80936
541.66        64.74493
542.10          64.803
542.54         64.8111
542.97        64.78608
543.41         64.8558
543.85          65.011
544.29        65.23359
544.72        65.40772
545.16        65.38321
545.60        65.13301
546.04        64.70087
546.47        64.27234
546.91        64.17461
547.35         64.4519
547.79        64.98388
548.22        65.51432
548.66        65.70828
549.10        65.45783
549.53        64.76659
549.97        63.96696
550.41        63.59173
550.84         63.7429
551.28        64.26784
551.72        64.96436
552.15        65.18156
552.59        65.35288
553.03        65.16102
553.46        64.87567
553.90        64.70936
554.34        64.71838
554.77        64.75102
555.21         64.7589
555.65        64.88167
556.08        65.12846
556.52        64.70941
556.96        65.11207
557.39        64.97544
557.83        64.80951
558.27        64.76235
558.70        64.86649
559.14        64.97939
559.57          65.082
560.01        65.31549
560.45        65.59582
560.88        65.70739
561.32        65.60876
561.75        65.33564
562.19        64.99729
562.63        64.48919
563.06        64.00311
563.50        64.15119
563.93        64.77113
564.37        65.06297
564.80        64.93288
565.24        64.86584
565.68        64.89266
566.11        64.83698
566.55        64.78283
566.98        64.83633
567.42        64.97761
567.85        65.15146
568.29        65.38221
568.72        65.38323
569.16        65.26693
569.60        65.85302
570.03        66.12229
570.47        65.96284
570.90        65.43323
571.34        64.27548
571.77        64.65473
572.21        64.84985
572.64        64.54171
573.08        63.43385
573.51        60.86576
573.95         63.2394
574.38        67.26543
574.82        65.37347
575.25        64.62621
575.69        62.68221
576.12        61.53414
576.56        61.08118
576.99        62.27243
577.42        65.24374
577.86        65.10634
578.29          64.466
578.73        67.51212
579.16        62.66306
579.60        57.41104
580.03        59.89077
580.47        63.85064
580.90         65.3855
581.33        64.18678
581.77        63.12533
582.20        69.34901
582.64        68.78418
583.07        58.90593
583.51         57.9944
583.94        57.21536
584.37        59.90857
584.81        62.45137
585.24        65.79957
585.68        67.65774
586.11        66.64656
586.54        61.75976
586.98        59.50737
587.41        60.30428
587.85        63.58908
588.28        65.67094
588.71        62.83602
589.15        60.78335
589.58        62.00986
590.01        62.52145
590.45         63.5547
590.88        64.06957
591.31        63.37806
591.75        62.98413
592.18        62.95572
592.61        64.16869
593.05        64.88574
593.48        67.30043
593.91          68.402
594.35         62.6915
594.78        61.22939
595.21        61.05149
595.65        63.81866
596.08        66.38658
596.51         63.7344
596.94         62.1687
597.38        62.81425
597.81        65.29417
598.24        66.92692
598.68        65.33035
599.11        64.30887
599.54        66.64513
599.97        67.62048
600.41         63.3936
600.84        63.57202
601.27        64.91665
601.70        63.64865
602.14        63.96416
602.57         63.1208
603.00        63.71129
603.43         65.2279
603.87         66.6172
604.30        66.10735
604.73        64.11118
605.16         62.6815
605.60         63.7048
606.03        64.68808
606.46         65.5437
606.89        65.05455
607.32        63.52701
607.76        63.32031
608.19        65.41418
608.62        64.81438
609.05        63.65421
609.48        64.14448
609.92        63.89941
610.35        63.85957
610.78        65.37927
611.21        66.15623
611.64        63.22013
612.07        63.99864
612.50         64.4423
612.94        64.92648
613.37        64.48827
613.80        64.46774
614.23         64.9352
614.66        64.82739
615.09        65.06268
615.52         65.0512
615.96        64.92654
616.39         64.9627
616.82         64.0494
617.25        63.94388
617.68        64.55814
618.11        65.07851
618.54        65.33302
618.97        64.92433
619.40        64.20634
619.84         64.0258
620.27        65.03306
620.70        65.55795
621.13        65.64821
621.56        65.22509
621.99        64.54467
622.42         65.2086
622.85        66.72937
623.28        66.46149
623.71        65.86474
624.14        65.77901
624.57        65.51115
625.00        65.56245
625.43        65.66784
625.86        65.22031
626.29        65.42336
626.72        65.97047
627.15        65.63546
627.58        65.67028
628.01        65.59902
628.44        65.79169
628.87         65.8517
629.30        65.77065
629.73        66.38813
630.16        66.47746
630.59        66.31467
631.02        66.07215
631.45          65.832
631.88        65.61945
632.31        65.46037
632.74        65.35754
633.17        65.30653
633.60        65.30192
634.03        65.33977
634.46        65.41316
634.89        65.48769
635.32        65.54699
635.75        65.58777
636.18        65.44028
636.61        65.44301
637.04        65.41256
637.47          65.452
637.89        65.54179
638.32        65.63209
638.75        65.67864
639.18        65.66311
639.61        65.60921
640.04        65.53009
640.47        65.44595
640.90        65.37135
641.33        65.29595
641.76        65.21336
642.18        65.20892
642.61        65.28386
643.04        65.26922
643.47        65.11031
643.90         65.5638
644.33        65.26945
644.76        65.32985
645.18        65.33527
645.61        65.29448
646.04         65.1946
646.47        65.02879
646.90        64.89031
647.33        64.87828
647.75        65.03075
648.18        65.36591
648.61        65.67904
649.04        65.64705
649.47        65.23041
649.89        64.41319
650.32        63.62114
650.75        63.61417
651.18        64.35889
651.61        65.28208
652.03        65.92426
652.46        65.80467
652.89         65.3149
653.32        64.60085
653.74        63.98871
654.17        65.54334
654.60        66.11034
655.03        63.91361
655.46        64.67505
655.88        68.59827
656.31        72.54632
656.74        158.8747
657.16        102.8136
657.59        36.52125
658.02        27.91853
658.45        49.05778
658.87        62.70723
659.30        65.46695
659.73         64.3473
660.15        62.32935
660.58        64.85719
661.01         66.7106
661.44        64.59167
661.86        63.79627
662.29        63.65326
662.72        64.27875
663.14        65.48232
663.57        65.53148
664.00        64.61514
664.42          64.487
664.85        65.20139
665.27        65.61192
665.70        65.54459
666.13        65.38378
666.55        65.12251
666.98        64.64749
667.41        64.13103
667.83        63.90641
668.26        64.04578
668.69        64.42503
669.11        64.82423
669.54        65.20521
669.96        64.88725
670.39        64.45421
670.82        63.94117
671.24        63.75386
671.67        63.98942
672.09        64.41843
672.52         64.8495
672.94        65.29611
673.37        64.65623
673.80        64.42756
674.22        64.36191
674.65        64.27682
675.07        64.17536
675.50        64.06083
675.92        63.98669
676.35        64.06598
676.77        64.29963
677.20        64.58423
677.62        64.86313
678.05        64.98764
678.47        64.90784
678.90        64.78977
679.32        64.73769
679.75        64.20782
680.17        64.43243
680.60        64.42495
681.02        64.47591
681.45        64.43563
681.87        64.29906
682.30        64.09013
682.72        63.89725
683.15         63.9085
683.57        64.16095
684.00        64.48154
684.42        64.92189
684.85        65.12624
685.27        65.08828
685.70        64.88112
686.12        64.58738
686.54        64.38085
686.97        64.29925
687.39           64.31
687.82         64.3575
688.24        64.39967
688.66        64.39871
689.09        64.37984
689.51        64.38456
689.94        64.42985
690.36        64.52318
690.78        64.67738
691.21        64.85568
691.63        64.82016
692.06         64.8608
692.48        64.76728
692.90        64.67874
693.33        64.65272
693.75        64.70976
694.17        64.83025
694.60        64.98098
695.02        65.09957
695.44        65.13081
695.87        65.24307
696.29        65.43335
696.71        65.19592
697.14        64.70795
697.56        65.07372
697.98        66.05829
698.41        65.84136
698.83        65.10693
699.25        64.64452
699.68        64.71496
700.10        64.67573
700.52        64.54218
700.94        64.66708
701.37        64.98874
701.79        65.31052
702.21        65.55094
702.64        65.76559
703.06        65.89205
703.48        65.82535
703.90        65.57475
704.33        65.17668
704.75        64.74365
705.17         64.5415
705.59         64.6389
706.01        64.85882
706.44         65.0854
706.86        65.69048
707.28        65.74046
707.70        65.94373
708.12        66.03025
708.55        65.99749
708.97        65.83621
709.39        65.55676
709.81        65.25977
710.23        65.11186
710.66         65.1591
711.08        65.38832
711.50         65.6586
711.92        65.75192
712.34        65.61977
712.76        65.31814
713.19        64.99563
713.61        64.92162
714.03        65.13967
714.45        65.55911
714.87        65.99423
715.29        66.15403
715.71        65.97312
716.13        65.55243
716.56        65.05642
716.98        64.75948
717.40        64.73217
717.82        64.92124
718.24        65.22878
718.66         65.3204
719.08        65.40353
719.50        65.32857
719.92         65.2168
720.34         65.1441
720.76        65.14275
721.19        65.06934
721.61        65.13131
722.03        65.22201
722.45        65.39078
722.87        65.62076
723.29         65.8597
723.71        66.01204
724.13        66.04996
724.55        65.99775
724.97        65.89349
725.39        65.80676
725.81        65.76143
726.23        65.73814
726.65        65.73122
727.07        65.72815
727.49        65.72697
727.91        65.74648
728.33        65.77281
728.75        65.77866
729.17        65.75835
729.59         65.7056
730.01         65.6657
730.43        65.72571
730.85        65.90229
731.27         66.1578
731.69        66.37691
732.10        66.55038
732.52        66.32751
732.94        66.05903
733.36         65.8183
733.78        65.75851
734.20        65.91547
734.62        66.51583
735.04        67.33423
735.46         67.3238
735.88        66.69795
736.30         66.9864
736.72        68.10841
737.13        68.49775
737.55        67.93968
737.97        67.64907
738.39        67.72681
738.81        67.12834
739.23        66.21714
739.65        66.97478
740.06        68.93347
740.48        69.15678
740.90        67.72932
741.32        67.09199
741.74        67.49463
742.16        67.75683
742.57        67.92621
742.99        68.68648
743.41        69.79185
743.83        70.43269
744.25        70.46362
744.67        70.09407
745.08        69.59441
745.50        69.40257
745.92        69.65169
746.34         70.1982
746.75        70.82121
747.17        71.15041
747.59        71.11127
748.01        70.82375
748.42        70.52848
748.84        70.58989
749.26        71.09303
749.68        71.88913
750.09        72.73932
750.51         73.2559
750.93        73.34457
751.35        73.07294
751.76        72.60788
752.18        72.38562
752.60        72.41179
753.01        72.27053
753.43         72.0117
753.85        72.07983
754.27        72.50466
754.68         73.0861
755.10        73.67886
755.52        74.18392
755.93        74.51846
756.35        74.65093
756.77        74.68338
757.18        74.66864
757.60        74.63131
758.02         74.8836
758.43        75.20774
758.85        74.53123
759.26        73.30609
759.68        73.14426
760.10        74.25634
760.51        74.67577
760.93        74.39706
761.34        72.83137
761.76        72.97369
762.18        72.65569
762.59        72.75159
763.01        73.01512
763.42        73.46722
763.84        73.96372
764.26        74.42392
764.67        74.79025
765.09        74.93388
765.50        74.75009
765.92        74.24783
766.33        73.18902
766.75        71.99476
767.16        71.67271
767.58        72.36865
768.00        73.66756
768.41        75.25063
768.83        76.68128
769.24        77.35861
769.66         76.4964
770.07         74.7102
770.49         73.3002
770.90        72.60725
771.32         73.4371
771.73        75.16805
772.15        74.60503
772.56        72.19672
772.97        71.75874
773.39        73.21356
773.80        73.73336
774.22        73.12907
774.63        73.16064
775.05        73.76482
775.46        74.07735
775.88        73.99241
776.29        73.75993
776.70        73.49673
777.12        73.41417
777.53        73.57788
777.95        73.87267
778.36        74.14098
778.77        74.11298
779.19         73.7689
779.60        73.20057
780.02        72.64269
780.43        72.50561
780.84        72.91203
781.26        73.41229
781.67        73.90008
782.09        74.83829
782.50         75.7979
782.91         75.0407
783.33        73.15849
783.74        72.60275
784.15        73.50267
784.57        74.20686
784.98           74.41
785.39        74.46484
785.81        74.29002
786.22        73.65695
786.63        72.92112
787.04        72.74641
787.46        73.21474
787.87          74.113
788.28        75.10655
788.70        75.62921
789.11         75.5274
789.52        74.98688
789.93         74.2874
790.35         73.8163
790.76         73.6972
791.17        73.86848
791.58        74.16023
792.00        74.28612
792.41        74.16747
792.82        73.79585
793.23        73.45206
793.65        73.49321
794.06        73.95683
794.47        74.99681
794.88        75.98418
795.29        75.39491
795.71        73.48563
796.12        71.62038
796.53        70.42894
796.94        70.28562
797.35         71.2206
797.76        72.62376
798.18        73.88023
798.59        74.66572
799.00        74.65786
799.41        73.62924
799.82        72.11499
800.23        71.27003
800.64        71.33421
801.06        71.88963
801.47        72.73021
801.88        73.39912
802.29        73.71381
802.70        73.85691
803.11        73.85841
803.52        73.73553
803.93        73.53547
804.34        73.19617
804.75         72.8677
805.17        72.86695
805.58        73.27632
805.99        73.85645
806.40        74.34599
806.81        74.70348
807.22        74.62783
807.63        73.33301
808.04        71.40328
808.45         70.5432
808.86        70.96069
809.27        71.89144
809.68        72.91823
810.09         73.5475
810.50        73.53784
810.91        73.05402
811.32        72.35838
811.73        71.87402
812.14        71.72851
812.55        71.74963
812.96        71.88911
813.37        72.06838
813.78        72.23196
814.19         72.4707
814.60        72.61946
815.01        72.39688
815.42        71.78596
815.83        70.83468
816.24        69.92148
816.65        69.71844
817.05        70.41364
817.46        71.77169
817.87        73.27845
818.28        74.00729
818.69         73.6983
819.10        72.57433
819.51        71.19122
819.92        70.50093
820.33        70.76087
820.74        71.68921
821.14        72.78024
821.55        73.11979
821.96        72.52325
822.37         71.3204
822.78        69.99458
823.19        69.24375
823.60        69.25301
824.00        69.84853
824.41        70.67129
824.82        71.20915
825.23        71.24946
825.64        70.96671
826.04        70.56655
826.45        70.34677
826.86         70.3795
827.27        70.52303
827.68         70.6761
828.08        70.71585
828.49        70.54468
828.90        70.29001
829.31        69.95591
829.72        69.53718
830.12        69.11353
830.53        68.68008
830.94        68.43357
831.35        68.63611
831.75        69.34865
832.16        70.43386
832.57        71.65775
832.97        72.51021
833.38         72.7478
833.79        72.49693
834.20         72.0005
834.60        71.64665
835.01        71.57526
835.42        71.66709
835.82         71.7981
836.23        71.68635
836.64        71.30801
837.04        70.79812
837.45        70.31374
837.86        70.09065
838.26        70.18824
838.67        70.47886
839.08        70.86398
839.48        71.16504
839.89        71.27643
840.29        71.26656
840.70        71.11167
841.11        70.76122
841.51         70.2498
841.92        69.58201
842.33        68.94671
842.73        68.66399
843.14        68.77522
843.54        69.23977
843.95        69.80733
844.35         70.1087
844.76        70.02306
845.17        69.65814
845.57        69.21394
845.98        69.01085
846.38        69.12376
846.79        69.42704
847.19        69.77387
847.60        69.83595
848.00        69.56924
848.41        69.07158
848.81        68.53853
849.22        68.17154
849.62        68.07423
850.03        68.19098
850.43        68.46996
850.84        68.74795
851.24        68.99389
851.65        69.09757
852.05        69.24289
852.46        69.56417
852.86        70.08205
853.27        70.76151
853.67        71.15116
854.07         70.6844
854.48        69.38559
854.88        67.46432
855.29        65.63316
855.69        64.91716
856.10        65.50845
856.50        67.27767
856.90        69.58649
857.31        70.94907
857.71        70.90515
858.12        69.82553
858.52        68.38586
858.92        67.46247
859.33        67.25837
859.73        67.52143
860.13        68.13196
860.54        68.83519
860.94        69.54014
861.34        70.30505
861.75        70.98965
862.15        71.45135
862.55        71.63086
862.96        71.53915
863.36        71.32968
863.76        71.26968
864.17        71.43832
864.57        71.79945
864.97        72.30016
865.38        72.84525
865.78         73.4285
866.18        73.99818
866.58        74.48724
866.99        74.77277
867.39        74.86542
867.79        74.79745
868.19        74.50468
868.60        73.88911
869.00        73.00011
869.40        71.93491
869.80        71.13952
870.21        71.25122
870.61        72.47001
871.01        74.61073
871.41        77.05894
871.81        78.74287
872.22        79.35118
872.62        79.11224
873.02        78.55809
873.42        78.80504
873.82        79.85934
874.22         80.9682
874.63        81.86755
875.03         82.0615
875.43        81.31135
875.83        80.98101
876.23        79.00599
876.63        77.85091
877.03        77.24911
877.44        77.29263
877.84        106.5389
878.24        83.75948
878.64        84.82133
879.04        86.39264
879.44        81.59362
879.84        79.08766
880.24        84.25699
880.64        86.17547
881.04        85.94611
881.44        85.57998
881.84        85.02376
882.24        84.19302
882.65        83.62225
883.05        83.61286
883.45        84.22536
883.85        85.67393
884.25        87.41402
884.65        88.18372
885.05         87.6665
885.45        86.29656
885.85        84.79651
886.25        84.16347
886.65        84.59737
887.05        85.77457
887.45        87.25754
887.85        88.25397
888.25        88.47171
888.65        88.17734
889.04        87.60744
889.44        87.17197
889.84        86.99184
890.24        86.89711
890.64        86.87774
891.04        86.95324
891.44        87.08926
891.84        87.31968
892.24        87.50108
892.64        87.34241
893.04         86.8422
893.44        86.16614
893.83        85.53787
894.23         85.2815
894.63        85.44937
895.03        85.88853
895.43        86.59925
895.83        87.55357
896.23        88.63727
896.63        89.84026
897.02         90.7365
897.42        90.65827
897.82        89.55549
898.22        87.68419
898.62        85.75172
899.01        84.80168
899.41        85.06033
899.81        86.16894
900.21        87.60841
900.61        88.51988
901.00        88.63324
901.40        88.22488
901.80        87.54592
902.20        86.98283
902.59        86.67215
902.99         86.4694
903.39        86.32989
903.79        86.19686
904.18        86.06871
904.58        86.08141
904.98        86.24185
905.38         86.5327
905.77        86.92307
906.17        87.33672
906.57        87.82911
906.96        88.55941
907.36        89.42945
907.76        90.36753
908.15        91.07017
908.55        90.93832
908.95        89.92558
909.34        88.20914
909.74        86.31028
910.14         84.8642
910.53        84.10658
910.93         83.9566
911.33        84.27845
911.72        84.81197
912.12        85.33341
912.52        85.83836
912.91          86.367
913.31        86.97733
913.70        87.73755
914.10        88.63151
914.49        89.33928
914.89        89.11726
915.29        87.82111
915.68        85.74697
916.08        83.89536
916.47        83.18275
916.87        83.66968
917.26        85.09735
917.66        86.64973
918.05        87.00532
918.45        85.86384
918.84        83.71372
919.24        81.50492
919.64        80.62433
920.03        81.41504
920.42        83.43337
920.82        85.95087
921.21         87.7877
921.61        88.34048
922.00        88.00662
922.40         87.0697
922.79        85.95853
923.19        84.93124
923.58        83.66157
923.98        82.14894
924.37        81.24481
924.77         81.4392
925.16        78.90829
925.55         80.7138
925.95        81.41634
926.34        83.05071
926.74         85.0857
927.13        87.13567
927.52        88.23995
927.92        88.23666
928.31        87.44204
928.70        86.09638
929.10        84.66704
929.49        83.32079
929.89        81.98325
930.28        81.06103
930.67        81.23827
931.07        82.47666
931.46        84.66143
931.85        86.83792
932.24        87.55168
932.64        86.51926
933.03        83.97393
933.42         80.7047
933.82        78.48638
934.21        77.87096
934.60        78.41294
934.99        79.23959
935.39        79.52563
935.78        79.14903
936.17        77.69484
936.56        75.03809
936.96        76.68201
937.35        75.58946
937.74         77.1132
938.13        78.49181
938.53         79.6832
938.92        80.75711
939.31        81.93204
939.70        82.98696
940.09        83.10062
940.49        82.13608
940.88         80.4927
941.27        78.89162
941.66        78.18781
942.05        78.47153
942.44        79.44307
942.84        80.83233
943.23        82.20836
943.62        83.23849
944.01        83.99695
944.40        84.29606
944.79        83.85331
945.18        82.60461
945.57        80.49354
945.97        77.87894
946.36        75.82543
946.75        75.00114
947.14        75.20794
947.53        75.91837
947.92        76.50424
948.31        76.85101
948.70        77.12766
949.09        77.44086
949.48        77.95022
949.87        78.63509
950.26         79.2963
950.65        79.76002
951.04        79.86298
951.43        79.57612
951.82        78.97684
952.21        78.14914
952.60        77.25246
952.99        76.39569
953.38        75.57664
953.77        74.91322
954.16         74.5371
954.55        74.46748
954.94        74.73801
955.33        75.12471
955.72        75.23406
956.11        74.98741
956.50        74.43591
956.89        74.00127
957.28        74.45866
957.66        76.02285
958.05        78.21066
958.44        80.32214
958.83        81.32647
959.22        80.99288
959.61        79.59293
960.00        77.69783
960.39        76.24525
960.78        75.54343
961.16        75.40579
961.55        75.42057
961.94        74.87433
962.33        73.64025
962.72        72.04829
963.11         70.6266
963.49        70.02517
963.88        70.32983
964.27        71.38754
964.66        72.70453
965.04        73.26856
965.43        72.66249
965.82         71.2781
966.21        69.86658
966.60        69.39745
966.98         70.0373
967.37        71.45209
967.76        73.09196
968.15        73.88438
968.53        73.49624
968.92        72.26966
969.31        70.81033
969.69        69.90231
970.08         69.7148
970.47        70.01978
970.86         70.4521
971.24        70.37642
971.63        69.62407
972.02         68.4229
972.40        67.20886
972.79        66.74047
973.17        67.34351
973.56        68.69141
973.95        70.42323
974.33         71.7869
974.72        72.33469
975.11        72.21454
975.49        71.71422
975.88        71.33602
976.26        71.17055
976.65        71.09376
977.04        70.74907
977.42        69.46392
977.81        67.23689
978.19        64.49844
978.58        62.44082
978.96        62.06051
979.35        63.46168
979.74         66.5592
980.12         70.6666
980.51        73.18076
980.89        73.37337
981.28        71.76894
981.66        69.78468
982.05        69.27791
982.43        70.43247
982.82        72.50044
983.20        74.79875
983.59        76.37073
983.97        77.00703
984.35        77.02758
984.74        76.30206
985.12        75.01336
985.51        73.22887
985.89        70.80243
986.28        68.41796
986.66        66.90382
987.04        66.59132
987.43        67.35394
987.81        68.16766
988.20        67.62828
988.58        65.26574
988.96        60.53212
989.35         54.0777
989.73          50.667
990.12        53.94103
990.50        62.00703
990.88        69.41142
991.27        71.79169
991.65        69.64989
992.03        64.30241
992.42        58.15799
992.80        55.47845
993.18        57.52303
993.56        61.96359
993.95        66.69529
994.33        70.00114
994.71        71.43043
995.10        71.93577
995.48        71.66587
995.86        70.56093
996.24        68.70679
996.63        65.76518
997.01        62.44815
997.39        61.27095
997.77         63.2135
998.15        67.72356
998.54        72.22556
998.92        73.26731
999.30        69.79449
999.68         62.6932
1000.06        53.74813
1000.45        47.39125
1000.83        45.44818
1001.21         46.5583
1001.59        49.25368
1001.97        51.97168
1002.35        54.29055
1002.73        56.99332
1003.12        59.42258
1003.50        59.26049
1003.88        55.86628
1004.26        50.59829
1004.64         45.7258
1005.02        43.07845
1005.40        42.75077
1005.78        44.47484
1006.16        49.59277
1006.54        58.11127
1006.92        65.64481
1007.30        70.09285
1007.69        71.81832
1008.07        72.15186
1008.45        71.41782
1008.83        68.54298
1009.21         59.1436
1009.59        28.36219
1009.97       -52.59997
1010.35       -158.3627
1010.73       -132.5582
1011.11       -61.25482
1011.49       -12.07111
1011.86        22.00981
1012.24        40.88145
1012.62        48.30995
1013.00        48.58811
1013.38        43.31379
1013.76         34.2701
1014.14        29.36553
1014.52         35.7859
1014.90        55.56042
1015.28        82.79228
1015.66         96.8288
1016.04        85.58616
1016.41        54.56164
1016.79         22.9118
1017.17        9.475158
1017.55         11.4486
1017.93        18.36288
1018.31        25.28322
1018.69        30.04933
1019.06        32.91344
1019.44         34.4475
1019.82        35.09784
1020.20         34.6876
1020.58        31.80737
1020.95        23.24917
1021.33       -18.44477
1021.71        921.8992
1022.09        186.7818
1022.46        154.9747
1022.84        150.1918
1023.22        158.7408
1023.60         191.661
1023.97        538.7382
1024.35       -52.31554
1024.73         14.2855
