SpectraSmart Spectrum 2.9.0.0
--------- Device Information -----------
Spectrum Name :  反射率_0
Saving Time :  2024/04/26 01:48:31
Spectro-Module Model Name : SE2030-DUVN
Spectro-Module Serial Number : OS361AC55029948
Wavelength Start : 200
Wavelength End : 1025
Wavelength Unit : Wavelength(nm)
Spectrum Unit : Reflectance(%)
-----------Spectrum Setting ------------
Integration Time : 20ms
Average : 10
Boxcar : 0
Background removal :  enabled
linearity correction :  enabled
SC :  disabled
Intensity correction :  disabled
DWT denoise :  enabled
savitzky-golay :  disabled
FFT :  disabled
Running average :  disabled
Kalman :  disabled
High pass :  disabled
---------------BEGIN--------------------
Wavelength(nm)             Reflectance(%)
200.29               0
200.75        94.89301
201.21        87.41879
201.67        77.94978
202.13        71.33673
202.58        68.35398
203.04        68.00603
203.50        69.21043
203.96        70.20489
204.42        70.36604
204.88        70.28033
205.34        70.44523
205.80        71.45998
206.26        73.93908
206.72        79.29929
207.18        89.60131
207.64        99.04649
208.10        93.99359
208.55        81.81335
209.01        74.42612
209.47        73.37527
209.93        76.38025
210.39        82.43679
210.85        88.79668
211.31        89.27027
211.77         82.1432
212.23        69.94854
212.69        57.82608
213.14        53.60651
213.60        58.58747
214.06        70.57724
214.52        84.66219
214.98        93.18575
215.44        94.03624
215.90        89.57027
216.36        82.91472
216.81        78.34216
217.27        77.22901
217.73        78.15595
218.19        78.88065
218.65        76.42306
219.11        69.63324
219.57        57.72635
220.02        42.85446
220.48        35.62509
220.94        41.52992
221.40        57.08522
221.86        71.11449
222.32        72.41351
222.77        62.60937
223.23        48.18199
223.69        35.61323
224.15        31.39344
224.61        34.87616
225.06        42.78985
225.52        50.90498
225.98        53.83735
226.44        50.67473
226.90        43.83137
227.36        36.25259
227.81         31.8489
228.27         31.7574
228.73        34.33722
229.19         38.1181
229.65        40.98555
230.10        42.26872
230.56        42.70202
231.02        42.75703
231.48         42.8965
231.93        43.21646
232.39         43.5076
232.85        43.62459
233.31        43.45401
233.77        42.97769
234.22         42.2831
234.68        41.58659
235.14        41.19164
235.60        41.25587
236.05         41.7803
236.51        42.58092
236.97        43.36886
237.43        44.17771
237.88        45.21956
238.34        46.85209
238.80        49.79813
239.26        54.08789
239.71        59.36896
240.17        64.55177
240.63         68.4899
241.08        70.86868
241.54        71.73501
242.00        71.89274
242.46        72.72265
242.91          75.409
243.37        81.67104
243.83        100.2184
244.28        156.5815
244.74        212.8311
245.20        173.0607
245.66        140.8755
246.11        132.0805
246.57        136.4512
247.03         158.157
247.48        223.7442
247.94        189.1175
248.40         118.531
248.85        97.20941
249.31         91.1852
249.77        90.76033
250.22        93.50692
250.68        99.38721
251.14         108.463
251.59         115.563
252.05         114.956
252.51        108.8254
252.96        101.1984
253.42        96.77033
253.88        95.30296
254.33        94.93466
254.79        96.41872
255.25        100.1062
255.70         104.864
256.16        110.3167
256.62        113.8575
257.07        112.8245
257.53        108.4012
257.99        101.6176
258.44        94.93331
258.90        92.26675
259.35        92.37978
259.81         93.6923
260.27        93.75727
260.72        90.24683
261.18        84.21017
261.63        76.78575
262.09        69.88787
262.55        64.90165
263.00         61.8455
263.46        60.17313
263.91        58.97393
264.37        57.68238
264.83        55.98731
265.28        53.95362
265.74        51.96585
266.19        50.30311
266.65         49.2084
267.11        48.47237
267.56        47.70809
268.02        46.46194
268.47        44.60024
268.93        42.29402
269.38        39.89062
269.84        38.24895
270.30        37.60436
270.75        37.71647
271.21        38.10103
271.66        38.01201
272.12        37.25049
272.57        36.04284
273.03        34.73919
273.48        33.77559
273.94        33.29734
274.39        33.10115
274.85        32.98732
275.31        32.65902
275.76        32.03801
276.22        31.26533
276.67        30.47813
277.13        29.96698
277.58        29.71794
278.04        29.65504
278.49        29.55885
278.95        29.19969
279.40        28.51468
279.86        27.66609
280.31        26.77466
280.77         26.1392
281.22        25.77866
281.68        25.62198
282.13        25.57032
282.59        25.52574
283.04        25.44097
283.50         25.3914
283.95        25.32628
284.41        25.18777
284.86        24.97397
285.32        24.71238
285.77        24.52848
286.22        24.68219
286.68        25.17227
287.13        25.87043
287.59        26.54488
288.04        26.83809
288.50        26.70778
288.95        26.25386
289.41        25.69062
289.86         25.2275
290.32        24.99977
290.77        24.94224
291.22        25.05376
291.68        25.28752
292.13        25.63919
292.59        26.15098
293.04        26.85352
293.50        27.78053
293.95        28.90957
294.40        30.18606
294.86         31.5365
295.31        32.86967
295.77        34.16824
296.22        35.45242
296.68        36.74672
297.13        38.05923
297.58        39.41008
298.04        40.80967
298.49        42.28456
298.95        43.93723
299.40        45.77066
299.85        47.75121
300.31        49.80841
300.76        51.81598
301.21        53.70205
301.67        55.52552
302.12        57.22384
302.58        58.83058
303.03        60.34121
303.48        61.78638
303.94        63.32941
304.39        65.14948
304.84        67.27827
305.30        69.64533
305.75        71.98437
306.20        73.91758
306.66        75.38922
307.11        76.46114
307.57        77.40897
308.02        78.51279
308.47        79.90765
308.93        81.50942
309.38        83.15682
309.83        84.65706
310.29        85.93998
310.74        87.02943
311.19        88.02569
311.65        89.07444
312.10        90.19389
312.55         91.3508
313.00        92.39088
313.46        93.07912
313.91        93.36263
314.36        93.34351
314.82        93.28957
315.27        93.54658
315.72        94.23148
316.18        95.24528
316.63        96.37407
317.08        97.21468
317.53        97.65009
317.99        97.77895
318.44        97.83884
318.89        98.22379
319.35        98.99408
319.80        100.0457
320.25        101.0632
320.70        101.5331
321.16        101.3458
321.61        100.6859
322.06        99.89394
322.51        99.49939
322.97        99.61691
323.42        100.1303
323.87        100.8095
324.32         101.257
324.78        101.3392
325.23        101.2299
325.68        101.0445
326.13        100.9975
326.59        101.1327
327.04        101.3944
327.49        101.7407
327.94        102.1504
328.39        102.5937
328.85        103.0663
329.30        103.5497
329.75        103.8211
330.20        103.8679
330.66        103.7445
331.11        103.6891
331.56        104.0058
332.01        104.7838
332.46        105.9124
332.92        107.2094
333.37        108.5462
333.82        109.7113
334.27        110.7351
334.72        111.4875
335.17        111.7833
335.63         111.626
336.08        111.1293
336.53        110.5606
336.98        110.4057
337.43        110.7973
337.88        111.6181
338.34        112.6804
338.79        113.7507
339.24        114.6746
339.69        115.5386
340.14        116.2569
340.59        116.6874
341.05        116.8273
341.50        116.6684
341.95         116.447
342.40        116.5593
342.85        117.0855
343.30        117.9394
343.75        118.8469
344.20        119.3143
344.66        119.2361
345.11        118.7545
345.56        118.1648
346.01        117.9101
346.46        118.0964
346.91        118.5759
347.36        119.1413
347.81        119.4763
348.26        119.4994
348.72        119.3337
349.17        119.0855
349.62        118.9738
350.07        119.0498
350.52        119.2145
350.97        119.3876
351.42        119.4577
351.87        119.3933
352.32        119.2574
352.77         119.042
353.22         118.727
353.67        118.3322
354.13        117.8682
354.58         117.418
355.03        117.1827
355.48        117.1732
355.93        117.3137
356.38        117.4106
356.83        117.1548
357.28        116.4794
357.73        115.4897
358.18        114.3474
358.63        113.3121
359.08        112.4736
359.53        111.7687
359.98        111.1451
360.43        110.5145
360.88        109.8372
361.33          109.14
361.78        108.4353
362.23        107.7346
362.68        107.0482
363.13        106.3792
363.58        105.6883
364.03        104.9184
364.48        104.0666
364.93        103.1459
365.38        102.2592
365.83        101.5746
366.28        101.1062
366.73         100.781
367.18        100.4488
367.63        99.86826
368.08        98.99812
368.53        97.95485
368.98        96.84306
369.43        95.80834
369.88        94.91071
370.33         94.1058
370.78        93.45345
371.23        93.05602
371.68        92.90692
372.13        92.96808
372.58        93.08055
373.03        92.96687
373.48        92.55991
373.93         91.9464
374.38        91.24208
374.83        90.63496
375.28        90.17627
375.72        89.77778
376.17        89.45751
376.62        89.22482
377.07        89.04577
377.52        88.90966
377.97        88.68352
378.42        88.15169
378.87        87.30894
379.32        86.26507
379.77        85.17744
380.22        84.29824
380.67        83.68101
381.11        83.18254
381.56        82.75492
382.01        82.64967
382.46        82.31982
382.91        82.22904
383.36        82.11138
383.81        81.80114
384.26        81.27853
384.71        80.57672
385.15        79.90584
385.60        79.65501
386.05        79.82272
386.50         80.2756
386.95        80.69573
387.40        80.54928
387.85        79.77398
388.29        78.59251
388.74        77.43011
389.19        76.56597
389.64        76.05691
390.09         75.7534
390.54        75.65896
390.98         75.7799
391.43        76.05786
391.88        76.46864
392.33         76.7746
392.78        76.55984
393.23        75.81849
393.67        74.84039
394.12        73.99593
394.57          73.229
395.02        72.78814
395.47        73.34235
395.91        74.64017
396.36        75.36569
396.81        75.30287
397.26        75.04293
397.71         74.7121
398.15        74.17247
398.60        73.57913
399.05        73.10962
399.50         72.7355
399.95        71.90587
400.39        71.10517
400.84        70.82869
401.29        71.10911
401.74        71.24773
402.18        71.15868
402.63        71.04004
403.08        71.01152
403.53        71.20881
403.97        71.62336
404.42         72.1046
404.87         72.4641
405.32        72.38187
405.76        71.78965
406.21        71.04987
406.66        70.33159
407.11        69.47881
407.55        68.79337
408.00        69.08352
408.45        70.14218
408.90         70.7773
409.34        70.66992
409.79        70.07506
410.24        69.29853
410.68        68.91987
411.13        69.04472
411.58        69.30334
412.03        69.60992
412.47        69.98844
412.92        70.32279
413.37        70.62695
413.81        70.80877
414.26        70.77502
414.71        70.50642
415.15         70.0259
415.60        69.48145
416.05        69.13654
416.49        69.06723
416.94        69.22858
417.39        69.45699
417.83        69.44977
418.28        69.15316
418.73        68.66805
419.17        68.21555
419.62        68.15639
420.07        68.51959
420.51        69.17302
420.96        69.86266
421.41        70.13883
421.85        69.87788
422.30        69.41444
422.74        68.87234
423.19        68.35774
423.64        67.98247
424.08        68.10761
424.53        68.63943
424.98        69.00382
425.42        69.10896
425.87        69.54579
426.31        70.16924
426.76        69.91943
427.21        69.13453
427.65        69.44391
428.10        70.69644
428.54        71.85349
428.99        72.04484
429.44        72.29999
429.88        72.39986
430.33        73.03631
430.77        73.64709
431.22        72.38911
431.66        69.86425
432.11        68.58797
432.56         68.8062
433.00        69.73535
433.45        71.22177
433.89        72.91488
434.34         73.3269
434.78        75.42191
435.23        71.10524
435.67        69.04801
436.12        71.79612
436.57        72.93655
437.01        73.41305
437.46        73.63004
437.90        73.80708
438.35        73.36211
438.79        73.78827
439.24        73.62079
439.68        73.34342
440.13        72.83109
440.57        72.50124
441.02        73.42597
441.46        75.13897
441.91        76.21454
442.35        76.34966
442.80        75.04594
443.24        73.94978
443.69         74.5284
444.13        76.64509
444.58        76.93589
445.02        75.02949
445.47         74.7711
445.91         75.9091
446.36        76.21838
446.80        75.62941
447.24        75.33923
447.69        75.45391
448.13        75.45425
448.58        75.70042
449.02        75.94707
449.47        76.24818
449.91        76.53537
450.36        76.78104
450.80        76.96737
451.25         77.0611
451.69        76.99541
452.13        76.79156
452.58        76.47771
453.02        76.16165
453.47        76.05399
453.91        76.17529
454.36        76.48244
454.80        76.84908
455.24        76.92538
455.69        76.71043
456.13        76.39388
456.58        76.17357
457.02        75.67431
457.46        75.60439
457.91         75.9077
458.35        76.52808
458.79        76.79385
459.24        76.67982
459.68        76.38938
460.13         75.9987
460.57        75.71864
461.01        75.69197
461.46        74.81022
461.90         74.8034
462.34        74.92173
462.79        74.51109
463.23         74.7139
463.68        75.09419
464.12        75.53406
464.56        75.84898
465.01        75.79339
465.45        75.40178
465.89        75.31597
466.34        75.33943
466.78        74.55432
467.22        73.53098
467.67         72.1628
468.11        73.79279
468.55        74.41117
468.99        74.64259
469.44        74.29921
469.88         73.6052
470.32        73.53796
470.77         73.9978
471.21        73.98751
471.65        73.46137
472.10        73.14223
472.54        73.12384
472.98        73.18533
473.42         73.3131
473.87        73.74582
474.31        74.25887
474.75        74.13125
475.20        73.50378
475.64        73.36631
476.08        73.80211
476.52        73.73656
476.97        73.06403
477.41        73.44787
477.85        74.21741
478.29        72.67568
478.74        73.78523
479.18        74.09549
479.62          72.672
480.06        73.23901
480.50        73.46255
480.95        73.97378
481.39        74.33211
481.83        72.64108
482.27        73.10023
482.72         73.0451
483.16        71.58062
483.60        71.67583
484.04        73.42107
484.48        73.92162
484.93        73.85509
485.37        75.32646
485.81        75.78372
486.25        74.86181
486.69        101.0053
487.14        81.94475
487.58        50.71366
488.02        62.39626
488.46        71.02281
488.90        70.35762
489.34        72.21461
489.79         71.0689
490.23        73.51656
490.67        74.43536
491.11        73.43043
491.55         73.3634
491.99         73.8041
492.43        73.58281
492.88        72.80212
493.32        72.74975
493.76        72.90213
494.20        73.11905
494.64         73.1264
495.08        73.25874
495.52         73.5412
495.96        73.31181
496.41        72.68291
496.85        73.38104
497.29        74.92416
497.73        73.70463
498.17        70.89033
498.61        70.94794
499.05        73.90051
499.49        74.67085
499.93         74.7058
500.37        74.23607
500.82        73.28403
501.26        73.20351
501.70        73.76822
502.14        74.19572
502.58          74.181
503.02        74.12159
503.46        74.02632
503.90         73.6246
504.34        73.11359
504.78        72.88279
505.22        72.98901
505.66        73.34429
506.10        73.81818
506.54        73.98357
506.98        73.72012
507.42         73.6398
507.86        73.56593
508.30        72.65854
508.74        73.18319
509.18        73.21693
509.62        73.36664
510.06        73.45454
510.50        73.46207
510.94        73.40952
511.38        73.32018
511.82        73.28329
512.26        73.31481
512.70        73.38783
513.14        73.47604
513.58        73.54397
514.02        73.57447
514.46        73.57071
514.90        73.55857
515.34        73.56432
515.78        73.58308
516.22        73.66191
516.66         73.7552
517.10        73.63824
517.54        73.30276
517.98        73.33274
518.42        73.03475
518.86        73.07331
519.30        73.23324
519.74        73.53201
520.18        73.87992
520.62        74.12325
521.06        74.22604
521.50        74.23111
521.93         74.1612
522.37        74.05441
522.81         73.9427
523.25        73.81564
523.69        73.72652
524.13        73.75906
524.57         73.9221
525.01        74.19426
525.45        74.49187
525.89        74.67394
526.32        74.69423
526.76        74.58469
527.20         74.4118
527.64        74.30553
528.08        74.31274
528.52        74.33031
528.96        74.27149
529.40        74.21213
529.83        74.17581
530.27        73.40487
530.71        73.42953
531.15        73.19878
531.59        73.17759
532.03        73.28596
532.46        73.51364
532.90        73.80605
533.34        74.10973
533.78        74.42812
534.22        74.69272
534.66         74.8121
535.09         74.7607
535.53        74.58537
535.97        74.34084
536.41        74.14402
536.85        74.03626
537.28          73.999
537.72        73.99825
538.16        73.98856
538.60        73.95692
539.04        73.86385
539.47        73.73933
539.91        73.82318
540.35        74.03757
540.79         74.0528
541.22        73.87183
541.66        73.80125
542.10        73.84123
542.54        73.80796
542.97        73.72312
543.41        73.73872
543.85         73.8512
544.29        74.03365
544.72         74.1879
545.16         74.1955
545.60        74.02971
546.04        73.72443
546.47        73.41742
546.91        73.37888
547.35        73.64151
547.79        74.05644
548.22        74.42556
548.66        74.62292
549.10        74.50734
549.53        73.80495
549.97        72.85899
550.41        72.45633
550.84          72.702
551.28        73.25585
551.72        73.90395
552.15        74.30769
552.59        74.34311
553.03        74.40468
553.46        74.04954
553.90        73.90582
554.34         73.8766
554.77        73.78129
555.21        73.61544
555.65        73.75077
556.08        74.16747
556.52        73.61841
556.96        73.84946
557.39        73.72398
557.83        73.78982
558.27        73.83127
558.70        73.87921
559.14        74.05596
559.57        74.32087
560.01        74.58331
560.45        74.77328
560.88        74.90353
561.32        74.90907
561.75        74.56818
562.19        74.03972
562.63        73.49383
563.06        73.10636
563.50        73.26857
563.93        73.81256
564.37        74.08285
564.80        73.98589
565.24        73.91991
565.68        73.91495
566.11        73.87912
566.55         73.8783
566.98        73.87492
567.42         73.8957
567.85        74.06632
568.29        74.36777
568.72        74.40662
569.16        74.41315
569.60        74.78175
570.03        75.10348
570.47        75.40076
570.90        75.18461
571.34        72.99015
571.77        73.96991
572.21        74.24721
572.64         73.5072
573.08        72.65514
573.51        69.57753
573.95        72.20029
574.38         76.5041
574.82        74.62579
575.25        74.21206
575.69        72.07124
576.12        70.70556
576.56        69.76462
576.99        71.25611
577.42        74.91915
577.86        74.36536
578.29        73.99953
578.73        77.73376
579.16        71.95068
579.60        65.73447
580.03        68.58067
580.47        73.30859
580.90        74.75801
581.33        73.53629
581.77        72.45628
582.20        79.87527
582.64        79.37925
583.07        67.85749
583.51        66.54652
583.94          65.318
584.37        68.19827
584.81        71.60533
585.24        75.56316
585.68         76.9734
586.11        75.93114
586.54         70.6796
586.98        68.44421
587.41        69.12726
587.85        72.83215
588.28        75.52021
588.71        71.75049
589.15        69.51659
589.58        70.91588
590.01        71.04196
590.45        72.41541
590.88         73.3746
591.31        72.62094
591.75        71.80891
592.18        71.92083
592.61        73.81861
593.05        74.17017
593.48        77.46767
593.91        78.29901
594.35        72.12073
594.78        70.37491
595.21         70.0625
595.65         73.1131
596.08        75.75027
596.51        72.85249
596.94        70.84629
597.38        71.61805
597.81        74.55391
598.24         76.0214
598.68        74.62199
599.11          73.324
599.54        76.37329
599.97        77.87362
600.41          72.224
600.84        72.17964
601.27         73.9042
601.70        72.92522
602.14        72.99777
602.57        72.00037
603.00         72.6537
603.43        74.29128
603.87        75.88053
604.30        75.63096
604.73        73.15143
605.16        71.56093
605.60        72.66087
606.03        73.82864
606.46        74.84943
606.89        74.66538
607.32        72.42656
607.76        72.39558
608.19        74.70033
608.62        73.96078
609.05        72.60842
609.48        73.05881
609.92        72.76111
610.35        72.40604
610.78        74.86721
611.21        75.46736
611.64        72.19885
612.07        72.90338
612.50        73.30271
612.94        73.75983
613.37        73.19167
613.80        73.17843
614.23        73.73295
614.66          73.616
615.09        73.90448
615.52              74
615.96         73.9833
616.39        74.19498
616.82        73.40601
617.25        72.63136
617.68        73.66137
618.11         74.1689
618.54        74.47776
618.97        73.95486
619.40        73.07699
619.84        72.59338
620.27         73.9438
620.70         74.5779
621.13        74.70961
621.56        73.94254
621.99        72.73813
622.42        73.60467
622.85        75.90804
623.28         75.8159
623.71        75.22083
624.14        74.59297
624.57        74.65174
625.00        74.32496
625.43        74.50836
625.86        73.86015
626.29        74.01209
626.72        74.55087
627.15        74.22047
627.58        74.36488
628.01         74.4844
628.44        74.65959
628.87        74.74279
629.30        75.00706
629.73        75.42593
630.16        75.51494
630.59        75.24997
631.02        74.75532
631.45        74.20302
631.88         73.8193
632.31         73.6544
632.74        73.85818
633.17         73.9092
633.60        74.06035
634.03        74.12562
634.46        74.22734
634.89        74.32902
635.32        74.20958
635.75        73.97875
636.18        73.94962
636.61        74.32319
637.04        74.47104
637.47        74.43693
637.89        74.48302
638.32        74.57961
638.75        74.59803
639.18        74.52819
639.61        74.41129
640.04        74.26669
640.47        74.12714
640.90        74.01144
641.33        73.90868
641.76        73.79996
642.18        73.76158
642.61        73.79515
643.04        73.71971
643.47        73.49957
643.90         74.0309
644.33        73.78397
644.76         73.9836
645.18        74.14311
645.61        74.23251
646.04         74.2197
646.47        74.10242
646.90        73.97716
647.33        73.94785
647.75        74.05885
648.18        74.32768
648.61         74.5546
649.04        74.43353
649.47        73.94228
649.89        73.04457
650.32        72.17345
650.75        72.18475
651.18        73.01411
651.61        73.82394
652.03        74.21594
652.46        74.17686
652.89        74.03948
653.32        73.36772
653.74        72.59556
654.17        74.16759
654.60        74.50952
655.03        72.57104
655.46        73.62598
655.88        77.42242
656.31        82.58168
656.74        185.7196
657.16        120.6671
657.59         42.6277
658.02        32.20565
658.45        55.71501
658.87        71.16705
659.30        74.72054
659.73        73.34148
660.15        71.16111
660.58        73.53421
661.01        75.44688
661.44        73.08675
661.86        72.35591
662.29        72.42093
662.72        73.34078
663.14        74.81248
663.57        74.69542
664.00        73.30058
664.42        72.95415
664.85        73.74716
665.27        74.19648
665.70        74.09541
666.13        73.94559
666.55        73.72878
666.98        73.29469
667.41        72.80963
667.83        72.60555
668.26        72.75186
668.69        73.11848
669.11        73.48723
669.54        73.86958
669.96        73.51043
670.39        73.06355
670.82        72.54677
671.24        72.37077
671.67        72.63029
672.09        73.12514
672.52         73.5733
672.94        74.09797
673.37        73.42683
673.80        73.24893
674.22        73.24081
674.65        73.12792
675.07        72.90471
675.50          72.602
675.92        72.34112
676.35        72.34438
676.77         72.6364
677.20        73.06737
677.62        73.51389
678.05        73.76533
678.47        73.73548
678.90        73.55527
679.32        73.34765
679.75        72.99897
680.17        72.81195
680.60        73.21212
681.02        72.99635
681.45        72.98632
681.87         72.8055
682.30        72.56946
682.72        72.36822
683.15        72.29787
683.57        72.45007
684.00        72.84193
684.42        73.46524
684.85        73.78252
685.27        73.75571
685.70        73.57692
686.12        73.32494
686.54        73.13001
686.97        73.03249
687.39        73.00899
687.82        73.02355
688.24        73.07576
688.66        73.13232
689.09        73.20378
689.51        73.29408
689.94         73.3732
690.36        73.44179
690.78        73.49699
691.21        73.52792
691.63        73.52544
692.06        73.49767
692.48        73.47063
692.90        73.45651
693.33        73.50908
693.75        73.62479
694.17        73.79324
694.60        73.98498
695.02        74.11655
695.44        74.12803
695.87        74.25905
696.29        74.48898
696.71        74.12668
697.14        73.43174
697.56        73.86639
697.98        75.13371
698.41        75.09746
698.83        74.19954
699.25        73.73898
699.68        73.88854
700.10        73.80897
700.52        73.50978
700.94        73.43236
701.37        73.58306
701.79        73.85547
702.21        74.18803
702.64        74.60464
703.06        74.95941
703.48        75.01463
703.90        74.74535
704.33        74.22456
704.75        73.62463
705.17        73.31716
705.59        73.40476
706.01        73.66882
706.44        73.95612
706.86        74.65468
707.28         74.6965
707.70        74.90066
708.12        74.99168
708.55        75.01087
708.97         74.9502
709.39        74.80032
709.81        74.62572
710.23        74.53223
710.66        74.54952
711.08        74.68922
711.50        74.83577
711.92        74.81443
712.34        74.59353
712.76         74.2165
713.19          73.841
713.61         73.7524
714.03        73.99267
714.45         74.4755
714.87        74.97958
715.29        75.15311
715.71        74.92158
716.13        74.40125
716.56        73.81361
716.98         73.5255
717.40        73.62272
717.82        74.03222
718.24        74.59083
718.66        74.77745
719.08        74.88621
719.50        74.70295
719.92        74.43487
720.34        74.23597
720.76        74.16795
721.19        74.05363
721.61        74.10986
722.03        74.18426
722.45         74.3259
722.87        74.52865
723.29        74.76052
723.71        74.95302
724.13        75.07866
724.55        75.14651
724.97        75.15508
725.39        75.11388
725.81        75.03549
726.23        74.92219
726.65         74.8105
727.07        74.75478
727.49         74.7734
727.91         74.8678
728.33        75.00246
728.75        75.11073
729.17        75.16889
729.59        75.18021
730.01        75.19836
730.43        75.30351
730.85        75.50944
731.27        75.81216
731.69         76.0975
732.10        76.16006
732.52        75.96429
732.94        75.62496
733.36        75.32557
733.78         75.2164
734.20        75.34194
734.62        75.96607
735.04        76.85018
735.46        76.83838
735.88        76.17657
736.30        76.59808
736.72        77.98725
737.13        78.49754
737.55        77.86541
737.97        77.52064
738.39        77.59241
738.81        76.85929
739.23        75.76799
739.65        76.68222
740.06        79.05064
740.48        79.37705
740.90        77.74047
741.32        77.01588
741.74        77.46091
742.16        77.63853
742.57        77.60459
742.99        78.17406
743.41        79.13911
743.83        79.70043
744.25        79.72603
744.67        79.42201
745.08        79.03064
745.50        78.93515
745.92        79.25058
746.34        79.84204
746.75        80.49144
747.17        80.83754
747.59        80.81124
748.01        80.52171
748.42        80.22597
748.84         80.3185
749.26        80.89146
749.68        81.78115
750.09        82.71835
750.51         83.2914
750.93        83.38577
751.35        83.01431
751.76        82.40754
752.18        82.18129
752.60        82.34973
753.01        82.38392
753.43         82.2845
753.85        82.48492
754.27        82.99421
754.68        83.60446
755.10        84.18639
755.52        84.69382
755.93        85.05566
756.35        85.20349
756.77        85.22768
757.18        85.26498
757.60        85.36125
758.02        85.67413
758.43         85.8671
758.85        85.70587
759.26        83.76044
759.68        83.66336
760.10        84.73863
760.51        85.29747
760.93        84.69671
761.34        84.01135
761.76        83.41627
762.18         82.7814
762.59        82.38014
763.01        82.72744
763.42        83.77692
763.84        84.50623
764.26        84.78947
764.67        85.07475
765.09        85.26711
765.50         85.1194
765.92        84.61362
766.33        83.36691
766.75        81.90552
767.16        81.56091
767.58         82.4667
768.00        84.08659
768.41         85.9955
768.83        87.29533
769.24        87.46968
769.66        86.63155
770.07        85.29205
770.49        83.62753
770.90        82.17132
771.32        83.10786
771.73        85.69219
772.15        85.28194
772.56        82.33354
772.97        81.72077
773.39        83.37666
773.80         83.9166
774.22        83.13637
774.63        83.08012
775.05        83.69023
775.46        84.01924
775.88        83.95236
776.29         83.7543
776.70        83.53072
777.12        83.48126
777.53        83.66958
777.95        83.97779
778.36        84.24139
778.77        84.17806
779.19        83.77542
779.60         83.1264
780.02        82.51172
780.43        82.40866
780.84        82.95173
781.26        83.65586
781.67        84.35685
782.09        85.42236
782.50        86.38551
782.91        85.47903
783.33        83.37292
783.74         82.6922
784.15        83.58855
784.57        84.29072
784.98        84.47679
785.39        84.53306
785.81        84.37169
786.22        83.73254
786.63        83.00246
787.04          82.912
787.46        83.53983
787.87        84.64154
788.28        85.82257
788.70        86.40698
789.11        86.22536
789.52        85.54018
789.93        84.68277
790.35        84.06052
790.76        83.83839
791.17        84.04283
791.58        84.51232
792.00        84.79578
792.41        84.77641
792.82        84.71246
793.23        84.77072
793.65        84.59612
794.06        84.42636
794.47        85.58785
794.88         87.3035
795.29        86.77137
795.71         84.2598
796.12        82.03267
796.53        80.76452
796.94        80.35608
797.35        80.89458
797.76        82.16334
798.18        83.57164
798.59        84.54888
799.00        84.73576
799.41        84.02681
799.82         82.8425
800.23        82.11084
800.64        82.03819
801.06        82.25419
801.47        82.67807
801.88        83.07302
802.29        83.32915
802.70        83.57077
803.11        83.75239
803.52         83.7565
803.93        83.58718
804.34        83.23408
804.75        82.87403
805.17        82.86288
805.58        83.30142
805.99        83.90675
806.40        84.43131
806.81        84.88406
807.22         84.9488
807.63        83.79348
808.04        81.94543
808.45        81.05162
808.86        81.31084
809.27        81.96726
809.68        82.69028
810.09        83.15736
810.50        83.18529
810.91        82.90253
811.32         82.4894
811.73        82.23338
812.14        82.21747
812.55         82.2937
812.96        82.46726
813.37        82.75394
813.78        83.11255
814.19        83.58809
814.60        83.92303
815.01        83.71098
815.42        82.91215
815.83        81.61034
816.24         80.2953
816.65        79.82787
817.05         80.4629
817.46        81.93079
817.87        83.59612
818.28        84.31258
818.69        83.77011
819.10        82.25369
819.51        80.50067
819.92        79.76137
820.33        80.35223
820.74        81.88479
821.14        83.62294
821.55        84.27044
821.96        83.54897
822.37        81.91304
822.78        80.04695
823.19        78.95362
823.60        78.90337
824.00        79.64141
824.41        80.70374
824.82        81.40686
825.23        81.47138
825.64        81.15225
826.04        80.69328
826.45         80.4409
826.86        80.48972
827.27        80.66438
827.68        80.89696
828.08        81.14081
828.49        81.28867
828.90        81.45051
829.31         81.5263
829.72        81.31598
830.12        80.84088
830.53         80.1512
830.94        79.55694
831.35        79.48415
831.75        80.04341
832.16        81.05508
832.57        82.25134
832.97        83.05982
833.38         83.2076
833.79        82.85527
834.20        82.27349
834.60         81.8808
835.01        81.82045
835.42        81.95513
835.82        82.12378
836.23        81.97868
836.64        81.49063
837.04        80.82249
837.45        80.18374
837.86        79.89325
838.26        80.03323
838.67         80.4424
839.08        80.99772
839.48        81.46799
839.89        81.71613
840.29        81.83162
840.70        81.77237
841.11        81.45722
841.51        80.92418
841.92        80.17438
842.33        79.46346
842.73        79.23093
843.14        79.52624
843.54        80.26837
843.95         81.0916
844.35        81.43899
844.76        81.15385
845.17        80.42958
845.57         79.5642
845.98        79.02562
846.38        78.93995
846.79        79.13535
847.19        79.49654
847.60        79.72746
848.00        79.76495
848.41        79.68574
848.81        79.56774
849.22         79.4369
849.62        79.37408
850.03        79.36478
850.43        79.46606
850.84        79.69676
851.24        80.09683
851.65        80.46063
852.05        80.94308
852.46        81.60719
852.86        82.42274
853.27        83.38815
853.67        83.91923
854.07        83.25693
854.48        81.43985
854.88        78.74522
855.29        76.15102
855.69        75.07529
856.10        75.79343
856.50        78.12159
856.90        81.17419
857.31        82.90247
857.71        82.65395
858.12        80.97176
858.52        78.83884
858.92        77.54984
859.33        77.38803
859.73        78.00263
860.13        79.10957
860.54        80.11422
860.94         80.8161
861.34        81.35716
861.75        81.78386
862.15        82.25928
862.55        82.77525
862.96        83.19307
863.36        83.47781
863.76        83.56523
864.17         83.4605
864.57        83.30365
864.97        83.13338
865.38        82.97583
865.78        82.90823
866.18        82.83449
866.58        82.90718
866.99        83.36827
867.39        84.29009
867.79        85.63361
868.19        86.87923
868.60         87.0538
869.00        85.95529
869.40        83.87048
869.80        81.77438
870.21        81.21122
870.61        82.63061
871.01        85.56227
871.41        89.01701
871.81        91.28393
872.22        91.82116
872.62        91.10364
873.02        89.87238
873.42        89.40239
873.82        89.91367
874.22        90.84097
874.63        91.76727
875.03        91.94979
875.43        91.08701
875.83        90.15673
876.23        88.57397
876.63        88.10217
877.03        88.84444
877.44        91.10438
877.84        101.4814
878.24        98.51384
878.64        98.34736
879.04        96.88612
879.44        93.82999
879.84         92.3905
880.24        94.91747
880.64        96.92561
881.04        98.81335
881.44        99.82343
881.84        99.02229
882.24        96.97966
882.65        94.88955
883.05        94.04706
883.45        94.66848
883.85         96.4987
884.25        98.85011
884.65        100.3306
885.05        100.4565
885.45         99.7215
885.85        98.67279
886.25        98.04798
886.65          98.048
887.05        98.37835
887.45        98.94661
887.85         99.6171
888.25        100.2593
888.65         100.955
889.04        101.4659
889.44        101.4446
889.84        100.8488
890.24        99.76437
890.64        98.60523
891.04        98.02226
891.44        98.14214
891.84        98.81194
892.24         99.6264
892.64        99.82974
893.04        99.29609
893.44        98.38883
893.83        97.52875
894.23        97.33168
894.63        97.89774
895.03        98.91516
895.43        100.3147
895.83        101.9512
896.23        103.6037
896.63        105.2969
897.02         106.404
897.42        105.9286
897.82        103.8423
898.22        100.5599
898.62        97.24022
899.01        95.58007
899.41        95.93207
899.81        97.73282
900.21        100.1207
900.61        101.6639
901.00        101.9239
901.40        101.3625
901.80        100.3944
902.20        99.66586
902.59        99.40552
902.99         99.3535
903.39        99.44009
903.79        99.58986
904.18        99.75026
904.58        100.0365
904.98        100.3907
905.38        100.6881
905.77        100.8667
906.17        100.8993
906.57        100.8504
906.96        100.8901
907.36        100.9838
907.76        101.1159
908.15        101.0993
908.55        100.5162
908.95         99.3829
909.34        97.82962
909.74        96.34769
910.14        95.51049
910.53        95.50056
910.93         96.2282
911.33        97.38387
911.72        98.38663
912.12        98.93699
912.52        99.10782
912.91         99.2047
913.31        99.68855
913.70        100.6945
914.10        102.1131
914.49        103.4642
914.89        103.4545
915.29        101.7906
915.68        99.03548
916.08        96.48414
916.47        95.30167
916.87        95.61566
917.26        97.03004
917.66        98.78779
918.05        99.67753
918.45         99.3378
918.84        98.18961
919.24        96.88232
919.64        96.33725
920.03        96.81162
920.42        97.96992
920.82        99.37238
921.21        100.4573
921.61        100.8421
922.00        100.7533
922.40         100.284
922.79        99.52266
923.19        98.59316
923.58        97.47157
923.98        96.23827
924.37        95.22562
924.77        94.78421
925.16        93.76147
925.55        94.39751
925.95        95.31055
926.34        97.07176
926.74        99.25176
927.13        101.3163
927.52        102.1605
927.92        101.6639
928.31        100.1845
928.70        98.15662
929.10        96.34398
929.49        94.99877
929.89         93.9567
930.28        93.51601
930.67        94.16285
931.07        95.75832
931.46        98.20734
931.85        100.5596
932.24         101.379
932.64        100.3958
933.03        97.87843
933.42        94.55365
933.82        92.13238
934.21        91.18954
934.60        91.31555
934.99        91.92458
935.39        92.33682
935.78        92.43462
936.17         92.3032
936.56        91.76599
936.96        92.19093
937.35        91.20738
937.74         90.7482
938.13        90.53236
938.53        91.17622
938.92        92.70359
939.31        95.13878
939.70        97.76263
940.09        98.60605
940.49        97.06366
940.88        93.97211
941.27        90.82771
941.66        89.39186
942.05        89.87302
942.44        91.69471
942.84        94.13371
943.23        95.98241
943.62         96.6699
944.01         96.5392
944.40        95.88905
944.79        95.17311
945.18        94.54419
945.57        93.77885
945.97        92.80543
946.36        91.71354
946.75        90.72343
947.14         90.0511
947.53        89.73232
947.92        89.66724
948.31        89.80748
948.70        90.17728
949.09        90.73127
949.48        91.33482
949.87        91.86147
950.26        92.21613
950.65        92.48692
951.04         92.8802
951.43        93.41299
951.82        94.01379
952.21        94.33794
952.60        93.86925
952.99        92.55746
953.38        90.60697
953.77          88.616
954.16        87.42458
954.55        87.21442
954.94        87.85321
955.33        88.70181
955.72        88.66022
956.11        87.48447
956.50        85.44734
956.89        83.51698
957.28        83.45419
957.66         85.7487
958.05        89.55683
958.44        93.53923
958.83        95.73756
959.22        95.66817
959.61        93.84127
960.00        91.17461
960.39        89.18412
960.78        88.36301
961.16         88.3608
961.55        88.52552
961.94        87.77214
962.33        85.92847
962.72        83.56607
963.11        81.48792
963.49        80.66661
963.88        81.25566
964.27        82.98613
964.66        85.24794
965.04        86.72568
965.43        86.75072
965.82        85.73866
966.21        84.42375
966.60        83.79281
966.98        84.06078
967.37        84.88924
967.76        85.83163
968.15        86.05946
968.53        85.36082
968.92        84.06239
969.31        82.73137
969.69        82.06262
970.08        82.19685
970.47        82.93248
970.86         83.8447
971.24        84.20046
971.63        83.75142
972.02        82.68414
972.40        81.52523
972.79        81.17942
973.17        82.04741
973.56        83.78493
973.95        85.78065
974.33        86.83704
974.72        86.48367
975.11        85.05404
975.49        83.38816
975.88        82.67841
976.26        83.09427
976.65        84.41739
977.04         85.7253
977.42        84.91597
977.81        81.51701
978.19        76.60278
978.58        72.48327
978.96        71.48909
979.35        73.92242
979.74        79.26228
980.12         86.4249
980.51        91.51154
980.89        92.99313
981.28        91.81751
981.66        89.24638
982.05        86.99757
982.43        85.56115
982.82        84.40617
983.20        83.87707
983.59        84.65156
983.97        86.88139
984.35        90.67616
984.74        94.98891
985.12        97.49529
985.51        96.77583
985.89        93.21817
986.28         88.1628
986.66         84.0214
987.04        81.93633
987.43        81.43304
987.81        81.67299
988.20        81.60095
988.58        80.85165
988.96        79.39478
989.35        77.86063
989.73        78.81708
990.12        83.06383
990.50        89.02373
990.88        93.11245
991.27        92.97253
991.65        89.17088
992.03        82.51182
992.42         75.4515
992.80        72.55992
993.18        74.99773
993.56        80.23638
993.95        85.83723
994.33        89.52918
994.71        90.85191
995.10         90.9749
995.48        89.96342
995.86        87.65554
996.24         84.1672
996.63        79.03663
997.01        73.65591
997.39        72.10452
997.77        76.01665
998.15        84.43968
998.54        93.41467
998.92        97.52378
999.30        95.24818
999.68        87.89165
1000.06        77.58881
1000.45        69.80428
1000.83        66.93819
1001.21        67.25575
1001.59        69.45095
1001.97        72.12072
1002.35        74.82095
1002.73        78.64905
1003.12        82.33022
1003.50        81.93859
1003.88        76.24348
1004.26        67.40516
1004.64        59.61187
1005.02        56.47069
1005.40        58.33046
1005.78        65.31786
1006.16        78.31841
1006.54        91.23663
1006.92        96.02464
1007.30         94.6257
1007.69        91.53566
1008.07        89.90591
1008.45        90.08553
1008.83        91.54741
1009.21        94.19281
1009.59        93.18843
1009.97        68.63168
1010.35        8.476378
1010.73        -5.83215
1011.11        21.15997
1011.49        46.86074
1011.86        66.95863
1012.24        78.40245
1012.62        82.01612
1013.00        80.39342
1013.38        74.53534
1013.76        66.66852
1014.14        65.95914
1014.52        80.65777
1014.90        113.2847
1015.28        156.0093
1015.66        183.0468
1016.04        177.2453
1016.41        141.4659
1016.79        95.57823
1017.17        64.10596
1017.55        50.93575
1017.93        46.97443
1018.31        47.08463
1018.69        48.54638
1019.06        50.72856
1019.44        54.02205
1019.82        60.20696
1020.20        71.66382
1020.58        91.80183
1020.95        128.6935
1021.33        200.7179
1021.71       -664.3477
1022.09        46.64737
1022.46        91.51343
1022.84         108.673
1023.22        118.5562
1023.60        129.9982
1023.97        210.4608
1024.35        82.27502
1024.73        103.4745
