SpectraSmart Spectrum 2.9.0.0
--------- Device Information -----------
Spectrum Name :  反射率_0
Saving Time :  2024/04/26 01:32:32
Spectro-Module Model Name : SE2030-DUVN
Spectro-Module Serial Number : OS361AC55029948
Wavelength Start : 200
Wavelength End : 1025
Wavelength Unit : Wavelength(nm)
Spectrum Unit : Reflectance(%)
-----------Spectrum Setting ------------
Integration Time : 20ms
Average : 10
Boxcar : 0
Background removal :  enabled
linearity correction :  enabled
SC :  disabled
Intensity correction :  disabled
DWT denoise :  enabled
savitzky-golay :  disabled
FFT :  disabled
Running average :  disabled
Kalman :  disabled
High pass :  disabled
---------------BEGIN--------------------
Wavelength(nm)             Reflectance(%)
200.29               0
200.75        94.88364
201.21        85.81801
201.67        75.78563
202.13        70.09632
202.58         69.3659
203.04        72.48633
203.50        77.28708
203.96        79.95988
204.42        79.50057
204.88        77.23849
205.34          75.065
205.80        75.00274
206.26        77.86196
206.72        85.26048
207.18        99.06822
207.64        106.7789
208.10        90.83006
208.55        69.72672
209.01        58.35837
209.47        55.87846
209.93        58.65458
210.39        65.38096
210.85        73.47282
211.31        76.97224
211.77        73.73359
212.23         65.7264
212.69        57.47307
213.14        56.08486
213.60        62.60152
214.06        74.82876
214.52        87.73611
214.98        93.71902
215.44        91.20187
215.90        83.07079
216.36        73.39358
216.81         67.7719
217.27         67.5497
217.73        70.51807
218.19          73.875
218.65        74.08588
219.11        69.99308
219.57         61.4234
220.02         49.6662
220.48        42.42369
220.94        44.07697
221.40        52.51829
221.86        60.68319
222.32        61.25611
222.77        55.00801
223.23        46.14929
223.69        38.68311
224.15        36.65508
224.61        39.56344
225.06        45.29948
225.52        50.93933
225.98        52.91965
226.44        50.64413
226.90        45.76752
227.36        40.27231
227.81        36.75356
228.27        36.11913
228.73        37.29521
229.19        39.48808
229.65        41.53288
230.10        42.93457
230.56        43.99049
231.02         44.8117
231.48        45.48946
231.93        46.06343
232.39        46.49641
232.85        46.71579
233.31        46.69582
233.77          46.445
234.22        45.97682
234.68        45.50152
235.14        45.34146
235.60        45.61101
236.05        46.28231
236.51        47.07489
236.97        47.54224
237.43        47.64635
237.88        47.56104
238.34        47.65265
238.80        48.95088
239.26        51.79419
239.71        55.88788
240.17        60.22976
240.63        63.63349
241.08        65.72611
241.54        66.65624
242.00        66.94311
242.46         67.4516
242.91        68.96166
243.37        72.15102
243.83         82.4956
244.28        121.0483
244.74        173.6819
245.20         156.103
245.66        134.6199
246.11        128.8345
246.57          133.08
247.03        151.1428
247.48        201.0549
247.94        160.9241
248.40        103.9271
248.85        88.17356
249.31        84.27961
249.77        84.63367
250.22        87.53361
250.68        93.33961
251.14         101.993
251.59        108.0264
252.05        106.0497
252.51        98.65565
252.96         90.5608
253.42        86.84872
253.88        87.18848
254.33        89.48784
254.79        93.78979
255.25        99.46504
255.70        105.0629
256.16        110.4293
256.62        113.5526
257.07        112.3371
257.53        107.9887
257.99        101.4657
258.44        94.69551
258.90        91.02775
259.35        89.56981
259.81        89.23808
260.27         88.3058
260.72        85.09923
261.18        80.36284
261.63        74.72755
262.09         69.4699
262.55        65.28148
263.00        62.19564
263.46        60.02727
263.91        58.26211
264.37        56.72448
264.83        55.12976
265.28        53.41372
265.74         51.7363
266.19        50.05387
266.65        48.60741
267.11        47.36129
267.56        46.19532
268.02        44.94762
268.47        43.49229
268.93        41.88584
269.38        40.24441
269.84        39.00333
270.30         38.2748
270.75        37.96409
271.21        37.81818
271.66        37.44331
272.12        36.73308
272.57        35.79412
273.03        34.86178
273.48        34.20314
273.94        33.90464
274.39        33.82034
274.85        33.77093
275.31         33.4797
275.76        32.87816
276.22        32.08997
276.67         31.2581
277.13        30.69304
277.58         30.3905
278.04        30.28605
278.49        30.15789
278.95        29.76964
279.40        29.05694
279.86        28.18023
280.31        27.27682
280.77        26.67134
281.22        26.37711
281.68        26.30958
282.13        26.32576
282.59        26.26682
283.04        26.08227
283.50        25.87578
283.95        25.64489
284.41        25.40897
284.86        25.17952
285.32         24.9497
285.77        24.81876
286.22        25.00593
286.68        25.49612
287.13        26.18372
287.59        26.81776
288.04        27.00822
288.50        26.72404
288.95        26.08046
289.41         25.3591
289.86        24.87378
290.32        24.76287
290.77        24.90845
291.22        25.22991
291.68        25.55989
292.13        25.86194
292.59        26.22052
293.04        26.68777
293.50        27.33495
293.95        28.16926
294.40        29.13083
294.86        30.19373
295.31        31.34005
295.77        32.55671
296.22        33.84021
296.68        35.14592
297.13        36.36555
297.58        37.48769
298.04        38.55436
298.49        39.63695
298.95        40.90749
299.40        42.39434
299.85        44.04714
300.31         45.7886
300.76        47.48685
301.21        49.07024
301.67        50.60221
302.12        52.03069
302.58        53.38731
303.03        54.66352
303.48        55.87975
303.94        57.16962
304.39        58.67709
304.84        60.42893
305.30        62.36756
305.75        64.27238
306.20        65.83218
306.66        67.00874
307.11         67.8581
307.57        68.61459
308.02        69.50558
308.47        70.64918
308.93        71.97599
309.38        73.36765
309.83        74.69179
310.29        75.88757
310.74        76.96082
311.19        77.95663
311.65        78.93985
312.10        79.91419
312.55        80.86738
313.00        81.70402
313.46        82.28615
313.91        82.58195
314.36        82.65838
314.82        82.71702
315.27        83.01131
315.72        83.63312
316.18        84.51736
316.63        85.49392
317.08        86.23399
317.53        86.64459
317.99        86.79964
318.44        86.91477
318.89        87.34866
319.35        88.15224
319.80        89.23304
320.25        90.27912
320.70        90.77885
321.16        90.62173
321.61         89.9818
322.06        89.20809
322.51        88.84749
322.97        89.01669
323.42         89.5912
323.87         90.3149
324.32        90.74409
324.78        90.74029
325.23        90.49417
325.68         90.1627
326.13        90.02267
326.59         90.1405
327.04        90.44106
327.49         90.8662
327.94        91.36083
328.39         91.8792
328.85        92.42644
329.30        92.97003
329.75        93.28309
330.20          93.347
330.66        93.20795
331.11        93.10539
331.56        93.35672
332.01        94.05538
332.46        95.09708
332.92        96.29893
333.37        97.50212
333.82        98.50908
334.27        99.36533
334.72        99.98854
335.17        100.2653
335.63        100.2151
336.08        99.92406
336.53        99.59953
336.98        99.62907
337.43        100.1124
337.88        100.9443
338.34        101.9786
338.79        103.0493
339.24        104.0217
339.69        104.9627
340.14        105.7391
340.59        106.1269
341.05        106.1185
341.50        105.7626
341.95        105.3709
342.40        105.4406
342.85         106.073
343.30        107.1409
343.75        108.3434
344.20        109.1326
344.66        109.3572
345.11        109.1628
345.56        108.7907
346.01        108.6092
346.46        108.7272
346.91        109.0274
347.36        109.3929
347.81        109.6542
348.26        109.7669
348.72        109.8159
349.17        109.8517
349.62        109.9905
350.07        110.2488
350.52        110.5636
350.97         110.855
351.42        111.0176
351.87        111.0239
352.32        110.9098
352.77        110.7167
353.22        110.5099
353.67        110.3161
354.13        110.1355
354.58        109.9345
355.03        109.7201
355.48        109.4879
355.93        109.2407
356.38        108.9772
356.83         108.691
357.28         108.374
357.73        108.0201
358.18        107.6135
358.63        107.1324
359.08        106.5799
359.53        105.9744
359.98         105.337
360.43         104.698
360.88        104.0659
361.33        103.4282
361.78        102.8018
362.23        102.2136
362.68        101.6695
363.13        101.1753
363.58        100.6741
364.03        100.0701
364.48        99.34934
364.93        98.53674
365.38        97.72747
365.83        97.08108
366.28        96.61963
366.73        96.27491
367.18        95.94138
367.63        95.44898
368.08        94.76658
368.53        93.98463
368.98         93.1496
369.43        92.31896
369.88        91.52769
370.33        90.74943
370.78        90.08125
371.23        89.68884
371.68        89.58753
372.13        89.72901
372.58        89.91824
373.03        89.81837
373.48        89.35431
373.93        88.63654
374.38        87.85431
374.83        87.30093
375.28        87.04794
375.72        86.98182
376.17        87.02276
376.62        87.01923
377.07        86.89832
377.52        86.68636
377.97        86.36958
378.42        85.92486
378.87         85.3726
379.32        84.74641
379.77        84.06454
380.22        83.34997
380.67        82.61613
381.11        81.85915
381.56        81.17068
382.01        80.70082
382.46        80.48277
382.91        80.49909
383.36        80.55669
383.81        80.34347
384.26        79.80502
384.71        79.02181
385.15        78.24319
385.60        77.92017
386.05        78.07076
386.50        78.53914
386.95        79.00093
387.40        78.91551
387.85         78.2096
388.29        77.10516
388.74        76.01996
389.19        75.22903
389.64        74.78963
390.09        74.55396
390.54         74.5119
390.98        74.64896
391.43        74.89767
391.88        75.23845
392.33        75.47849
392.78        75.20512
393.23        74.41048
393.67        73.50475
394.12        72.81948
394.57         71.7247
395.02        71.25266
395.47        71.61101
395.91        72.82828
396.36        73.56149
396.81        73.61196
397.26        73.58167
397.71        73.52762
398.15        73.18958
398.60        72.69238
399.05         72.2847
399.50        71.93221
399.95        71.02956
400.39        70.11012
400.84        69.75717
401.29        70.02428
401.74        70.28608
402.18         70.3687
402.63        70.14293
403.08        69.78745
403.53        69.84027
403.97        70.33157
404.42        70.89449
404.87         71.2867
405.32        71.26219
405.76        70.74603
406.21        69.92295
406.66        69.07527
407.11        68.52887
407.55        68.43566
408.00        68.87362
408.45        69.60372
408.90        69.92989
409.34        69.66826
409.79        69.08203
410.24        68.41689
410.68        68.00356
411.13        67.93809
411.58        68.04969
412.03        68.30186
412.47        68.68031
412.92        69.07772
413.37        69.52054
413.81        69.85765
414.26         69.9002
414.71        69.60838
415.15        69.02564
415.60        68.34886
416.05        67.92532
416.49         67.8525
416.94        68.06127
417.39        68.34634
417.83        68.33528
418.28        67.96073
418.73        67.35633
419.17        66.78449
419.62        66.65971
420.07        67.02062
420.51        67.71368
420.96        68.46739
421.41        68.77957
421.85        68.50837
422.30        68.07029
422.74        67.57914
423.19        66.96663
423.64        66.42695
424.08         66.6823
424.53        67.57661
424.98         68.0962
425.42        68.09883
425.87        68.37554
426.31        68.87355
426.76        68.63677
427.21        67.98585
427.65        68.39155
428.10         69.6593
428.54        70.63802
428.99        70.83933
429.44        70.84844
429.88        70.65345
430.33        71.25153
430.77          72.041
431.22        70.83453
431.66        68.21961
432.11        66.94202
432.56        67.25963
433.00        68.14217
433.45        69.39877
433.89        71.14104
434.34        71.98112
434.78        73.54018
435.23        69.30944
435.67        67.84407
436.12        69.65825
436.57        70.88469
437.01        71.64645
437.46        71.99757
437.90        72.13931
438.35        71.17048
438.79        71.82492
439.24        71.63625
439.68        71.45082
440.13         71.0061
440.57        70.72065
441.02        71.91513
441.46        74.00845
441.91        75.01222
442.35        74.63917
442.80        73.32392
443.24         71.7147
443.69        72.25877
444.13        74.47236
444.58        74.80602
445.02        72.84499
445.47        72.51828
445.91        73.60399
446.36        73.92625
446.80        73.42276
447.24        73.18463
447.69         73.3077
448.13        73.50432
448.58        73.78723
449.02        74.16959
449.47        74.56179
449.91        74.83923
450.36         74.9668
450.80        74.95628
451.25        74.84886
451.69        74.68654
452.13        74.51358
452.58        74.32039
453.02        74.15376
453.47        74.13028
453.91        74.24604
454.36        74.48216
454.80        74.73755
455.24        74.74342
455.69        74.47352
456.13        74.11293
456.58        73.84773
457.02        73.35634
457.46        73.35434
457.91        73.57451
458.35         74.0218
458.79        74.21632
459.24        74.12839
459.68        73.93188
460.13        73.66931
460.57        73.32434
461.01        72.98848
461.46        72.39114
461.90        71.98221
462.34        72.05391
462.79        72.03999
463.23         72.3995
463.68        72.80543
464.12        73.12044
464.56        73.24107
465.01        73.27321
465.45        73.10074
465.89        72.80569
466.34        72.30125
466.78        71.43702
467.22        69.80714
467.67        69.54507
468.11        71.08527
468.55        71.93373
468.99        71.94292
469.44        71.56242
469.88        71.00697
470.32        70.83903
470.77         71.0279
471.21        70.87389
471.65         70.3726
472.10        70.13721
472.54        70.20921
472.98        70.31847
473.42        70.43587
473.87        70.77911
474.31        71.17165
474.75        71.08362
475.20         70.6263
475.64        70.44776
476.08        70.59762
476.52        70.52917
476.97        70.23676
477.41        70.25261
477.85        70.58652
478.29        70.14246
478.74        70.48768
479.18        70.37175
479.62        69.58196
480.06        70.19028
480.50        70.47845
480.95        70.90018
481.39        71.00782
481.83        70.11412
482.27        70.09754
482.72        69.87328
483.16        68.76414
483.60        68.37815
484.04         70.1923
484.48        70.55252
484.93        70.46528
485.37        71.69648
485.81        72.72241
486.25        71.13828
486.69        97.75111
487.14          79.266
487.58        49.05894
488.02        59.91494
488.46         68.0284
488.90        67.38304
489.34        68.98888
489.79        68.11799
490.23        70.14558
490.67        70.92973
491.11        69.89706
491.55        69.86333
491.99        70.38068
492.43        70.16658
492.88        69.31988
493.32        69.17379
493.76        69.25623
494.20        69.45658
494.64        69.54514
495.08         69.7214
495.52        70.00066
495.96        70.09543
496.41         69.9556
496.85        70.35201
497.29         71.0358
497.73        69.85482
498.17        67.79219
498.61        67.97267
499.05        70.36108
499.49        70.63407
499.93        70.38234
500.37        70.09599
500.82        69.69989
501.26         69.8911
501.70        70.36732
502.14        70.68697
502.58        70.71625
503.02        70.29885
503.46        70.37397
503.90        69.78861
504.34        69.24122
504.78        68.91666
505.22        68.96023
505.66        69.24788
506.10        69.63422
506.54        69.81904
506.98        69.70592
507.42        69.52557
507.86        69.43544
508.30        68.94944
508.74        69.26702
509.18         69.3983
509.62        69.59376
510.06        69.68463
510.50        69.64225
510.94        69.50848
511.38         69.3485
511.82        69.28708
512.26        69.35154
512.70        69.50213
513.14        69.67892
513.58        69.78828
514.02        69.79824
514.46        69.73283
514.90        69.64246
515.34        69.58967
515.78        69.58166
516.22        69.66158
516.66        69.78269
517.10        69.69662
517.54        69.38805
517.98        69.51781
518.42        69.26559
518.86        69.34931
519.30        69.51635
519.74        69.80251
520.18        70.11994
520.62        70.31969
521.06        70.37164
521.50        70.31271
521.93         70.1879
522.37        70.07126
522.81        69.99729
523.25         69.9473
523.69        69.92491
524.13        69.93686
524.57        69.97921
525.01        70.05197
525.45        70.13818
525.89         70.2058
526.32        70.23534
526.76        70.23035
527.20        70.18613
527.64        70.11719
528.08        70.04737
528.52        69.91862
528.96        69.72015
529.40        69.63227
529.83        69.69856
530.27        69.16157
530.71        69.40041
531.15        69.33413
531.59        69.37475
532.03        69.47436
532.46        69.64727
532.90        69.88308
533.34         70.1459
533.78        70.42153
534.22        70.64634
534.66        70.73708
535.09        70.67019
535.53        70.50046
535.97        70.26469
536.41        70.04497
536.85        69.87906
537.28        69.75629
537.72        69.68507
538.16        69.68276
538.60        69.73447
539.04        69.80473
539.47        69.87103
539.91        69.99354
540.35        70.06467
540.79        70.17258
541.22        69.73021
541.66        69.60786
542.10        69.63686
542.54        69.62994
542.97        69.59267
543.41        69.65614
543.85        69.81226
544.29         70.0441
544.72        70.22509
545.16        70.18571
545.60        69.89574
546.04        69.40266
546.47        68.91692
546.91        68.80267
547.35        69.10612
547.79        69.70956
548.22        70.32076
548.66        70.50165
549.10        70.15828
549.53        69.42217
549.97        68.61309
550.41        68.18215
550.84        68.24255
551.28         68.6358
551.72         69.1824
552.15        69.57548
552.59        69.71088
553.03        69.69912
553.46        69.59834
553.90        69.48299
554.34        69.48531
554.77         69.4453
555.21        69.38923
555.65         69.3353
556.08        69.64217
556.52         69.1514
556.96        69.56031
557.39         69.4687
557.83        69.39687
558.27        69.41213
558.70        69.50735
559.14        69.55456
559.57        69.54928
560.01        69.60047
560.45        69.69852
560.88        69.86599
561.32        70.01927
561.75         69.8489
562.19        69.46724
562.63        69.07554
563.06         68.8091
563.50        68.95016
563.93        69.36627
564.37        69.53429
564.80        69.38614
565.24         69.2924
565.68        69.27385
566.11         69.1263
566.55        69.11851
566.98        69.01784
567.42        68.96424
567.85        69.21483
568.29        69.79881
568.72        69.97592
569.16        69.93516
569.60         70.3522
570.03        70.86434
570.47         70.8054
570.90        70.54774
571.34        68.72482
571.77        69.59949
572.21        70.10179
572.64        69.51167
573.08        68.42655
573.51         65.5919
573.95        68.06905
574.38        72.32569
574.82        70.13859
575.25        69.66242
575.69        67.79197
576.12        66.63113
576.56        65.94124
576.99        67.22411
577.42        70.48604
577.86        70.76748
578.29        69.90936
578.73        73.96773
579.16        68.21339
579.60        62.06523
580.03        64.50632
580.47        68.91286
580.90        70.54287
581.33        69.23583
581.77        68.35953
582.20        75.38553
582.64        75.42085
583.07        64.46844
583.51        63.08958
583.94         61.4741
584.37        64.04372
584.81         67.3801
585.24        71.13734
585.68        72.86918
586.11        71.97039
586.54        66.71565
586.98        64.70367
587.41        65.10743
587.85        68.61904
588.28        71.34263
588.71        67.89715
589.15        65.70943
589.58        66.77573
590.01        67.29245
590.45        68.04274
590.88        68.60172
591.31        67.75227
591.75        67.28009
592.18        67.29538
592.61        68.77999
593.05        69.43825
593.48        72.69366
593.91         73.7311
594.35        67.59552
594.78        66.04974
595.21        65.35263
595.65        68.35564
596.08         71.4466
596.51        68.41898
596.94        66.40347
597.38         66.9792
597.81         69.9522
598.24        71.03255
598.68        69.75089
599.11        68.52274
599.54        71.98097
599.97        73.13129
600.41        68.11574
600.84        68.20567
601.27        69.82436
601.70        68.54845
602.14        68.63253
602.57         67.5078
603.00        67.96379
603.43        69.61091
603.87        71.48003
604.30        71.03263
604.73        68.65117
605.16        67.49783
605.60        68.06542
606.03        69.23097
606.46        70.28498
606.89        70.16777
607.32        67.76137
607.76         67.3791
608.19        69.91627
608.62        69.06696
609.05        67.83144
609.48        68.38311
609.92         68.4369
610.35        67.92521
610.78        69.77073
611.21        70.58559
611.64        67.27948
612.07        68.00297
612.50        68.38012
612.94        68.81476
613.37        68.26867
613.80        68.44929
614.23        68.95959
614.66        68.86687
615.09         69.0651
615.52        69.07209
615.96        68.97694
616.39        69.28023
616.82        68.22746
617.25        67.84834
617.68        68.65056
618.11        69.15701
618.54        69.41776
618.97        68.97372
619.40        68.19276
619.84        68.06319
620.27        69.02546
620.70        69.51463
621.13        69.51861
621.56        68.88918
621.99        67.97639
622.42         68.7002
622.85        70.49737
623.28         70.3572
623.71        69.77094
624.14        69.38191
624.57        69.31647
625.00        69.23405
625.43        69.23512
625.86        68.59861
626.29        68.71349
626.72        69.22066
627.15        69.02621
627.58        69.37836
628.01        69.67789
628.44        69.87121
628.87        69.30112
629.30        69.44588
629.73        69.91673
630.16        70.46082
630.59         69.6762
631.02        69.25906
631.45        68.94735
631.88        68.70984
632.31        68.58514
632.74        68.60658
633.17        68.73318
633.60        68.84928
634.03         68.9213
634.46        68.97249
634.89        69.00571
635.32        69.03296
635.75        69.05969
636.18        69.06747
636.61        69.07134
637.04        69.10813
637.47         69.1801
637.89        69.28426
638.32        69.37024
638.75        69.40023
639.18        69.36099
639.61        69.27172
640.04        69.14441
640.47        68.99734
640.90        68.84923
641.33        68.69755
641.76        68.54762
642.18        68.50612
642.61        68.58038
643.04        68.58843
643.47        68.46906
643.90        69.01198
644.33        68.77841
644.76        68.92409
645.18          69.006
645.61        69.01656
646.04        68.93637
646.47        68.75928
646.90        68.58838
647.33        68.54051
647.75        68.66328
648.18        68.97381
648.61        69.26273
649.04        69.21355
649.47         68.7941
649.89        67.94306
650.32        67.09885
650.75        67.17202
651.18        68.07918
651.61         68.9048
652.03        69.24894
652.46        69.13365
652.89        68.92661
653.32        68.26231
653.74        67.52828
654.17        69.09908
654.60         69.5962
655.03        67.48653
655.46        68.05799
655.88        72.20495
656.31        76.92417
656.74        176.6574
657.16        115.1381
657.59          40.511
658.02        30.22729
658.45        51.55143
658.87        66.09245
659.30        69.38965
659.73        68.21643
660.15        65.96706
660.58         68.2819
661.01        70.05633
661.44        67.89832
661.86        67.18751
662.29        67.15314
662.72        67.90432
663.14        69.19231
663.57        69.12236
664.00        67.96632
664.42        67.75362
664.85        68.55571
665.27        69.06773
665.70        69.06133
666.13        68.91385
666.55        68.60559
666.98        68.02896
667.41        67.39925
667.83         67.1244
668.26        67.28614
668.69        67.72644
669.11         68.2063
669.54        68.63257
669.96        68.26797
670.39        67.87435
670.82          67.442
671.24        67.00998
671.67        66.82155
672.09        67.37634
672.52        68.30731
672.94        68.98257
673.37        68.17386
673.80        67.85924
674.22         67.8148
674.65        67.73067
675.07          67.618
675.50        67.51521
675.92        67.46522
676.35        67.51596
676.77        67.65656
677.20        67.88443
677.62        68.19029
678.05        68.03504
678.47         68.2323
678.90        68.13234
679.32        68.02518
679.75         67.8223
680.17        67.81598
680.60        67.78875
681.02        67.77643
681.45        67.62608
681.87        67.47064
682.30        67.22876
682.72        67.03038
683.15        67.03545
683.57        67.28087
684.00        67.60926
684.42        68.06169
684.85        68.29974
685.27        68.31031
685.70        68.15718
686.12        67.91712
686.54        67.76333
686.97        67.73083
687.39        67.78601
687.82        67.85861
688.24        67.89995
688.66        67.84821
689.09        67.75076
689.51        67.66938
689.94        67.68195
690.36        67.81037
690.78        68.01799
691.21        68.22193
691.63          68.298
692.06        68.22076
692.48        68.03639
692.90        67.83319
693.33        67.73429
693.75        67.77475
694.17        67.92864
694.60        68.12728
695.02        68.23901
695.44         68.1965
695.87            68.2
696.29         68.3091
696.71        68.08504
697.14        67.73063
697.56        68.37832
697.98        69.69324
698.41        69.60923
698.83        68.81506
699.25        68.19124
699.68        68.07386
700.10        67.88734
700.52        67.68576
700.94        67.81656
701.37        68.18165
701.79        68.51682
702.21        68.72336
702.64         68.8843
703.06        68.96928
703.48        68.91917
703.90        68.74879
704.33        68.46725
704.75        68.15078
705.17        68.01585
705.59        68.11795
706.01         68.2939
706.44        68.44153
706.86        68.98582
707.28        68.96635
707.70        69.11985
708.12        69.18024
708.55        69.17131
708.97        69.07962
709.39        68.90427
709.81        68.71457
710.23        68.61891
710.66        68.64697
711.08        68.80738
711.50        68.97141
711.92        68.94444
712.34        68.69324
712.76        68.26717
713.19          67.852
713.61        67.77623
714.03        68.09077
714.45        68.69373
714.87        69.32822
715.29        69.58714
715.71        69.38074
716.13        68.83572
716.56        68.19639
716.98         67.8894
717.40        68.01918
717.82        68.45575
718.24         68.9972
718.66        69.30279
719.08        69.27338
719.50        69.02187
719.92        68.67917
720.34        68.46534
720.76        68.44807
721.19        68.44044
721.61        68.60442
722.03        68.72688
722.45        68.83596
722.87        68.95384
723.29        69.07406
723.71        69.17155
724.13        69.23756
724.55        69.26462
724.97        69.26625
725.39          69.276
725.81        69.30074
726.23        69.33468
726.65        69.35985
727.07        69.34282
727.49        69.28542
727.91        69.21267
728.33        69.15154
728.75        69.14575
729.17        69.20382
729.59        69.29848
730.01        69.43556
730.43        69.61499
730.85         69.8295
731.27        70.10577
731.69        70.35463
732.10        70.41129
732.52        70.25275
732.94        69.96428
733.36        69.72937
733.78        69.71673
734.20        69.95914
734.62        70.68575
735.04        71.62358
735.46        71.61147
735.88        70.87478
736.30        71.06446
736.72        72.11327
737.13        72.43044
737.55         71.8193
737.97        71.46136
738.39        71.49442
738.81        71.06377
739.23        70.45188
739.65        71.28454
740.06        73.08137
740.48         73.1748
740.90        71.68217
741.32        70.92745
741.74        71.16951
742.16         71.2907
742.57        71.35878
742.99        72.06144
743.41        73.16008
743.83        73.83177
744.25        73.92417
744.67        73.65709
745.08        73.25987
745.50        73.10072
745.92        73.29693
746.34        73.70995
746.75        74.18591
747.17        74.46754
747.59        74.50901
748.01        74.40593
748.42        74.29865
748.84        74.41679
749.26         74.8204
749.68        75.30828
750.09        75.78874
750.51        76.34553
750.93        76.82265
751.35        76.69642
751.76        76.10242
752.18        75.87953
752.60        76.02135
753.01        75.83818
753.43         75.4253
753.85        75.46395
754.27        76.00845
754.68        76.77609
755.10        77.55775
755.52        78.16463
755.93        78.49156
756.35        78.54363
756.77        78.45066
757.18        78.36391
757.60         78.3632
758.02        78.58144
758.43        78.77084
758.85         78.4584
759.26        77.43565
759.68        76.95765
760.10        78.54626
760.51        78.90498
760.93        78.37875
761.34        77.39913
761.76        77.04602
762.18        76.68078
762.59        76.65007
763.01        76.92876
763.42        77.49352
763.84        78.01966
764.26        78.44274
764.67        78.68404
765.09        78.68388
765.50        78.68694
765.92        78.55158
766.33        77.31477
766.75        75.53182
767.16        75.01871
767.58        75.94519
768.00        77.48311
768.41        79.19478
768.83        80.43095
769.24         80.6919
769.66        79.81606
770.07        78.36674
770.49        76.99668
770.90        76.07029
771.32        76.91045
771.73        78.86402
772.15        78.29972
772.56         75.6806
772.97        75.12375
773.39        76.55906
773.80        77.02968
774.22        76.35168
774.63        76.35402
775.05        76.97346
775.46        77.31701
775.88        77.27008
776.29        77.09187
776.70        76.86698
777.12        76.75974
777.53        76.82918
777.95        76.96481
778.36        77.07223
778.77        76.98869
779.19        76.72678
779.60         76.3511
780.02        76.00894
780.43        76.02123
780.84        76.49077
781.26        76.84684
781.67        77.08886
782.09        78.19913
782.50        79.62558
782.91        78.81255
783.33        76.40351
783.74        75.57971
784.15        76.49492
784.57        77.06344
784.98        77.01223
785.39        76.96729
785.81        76.87013
786.22        76.41331
786.63        75.87868
787.04         75.8273
787.46        76.30788
787.87        77.13307
788.28        78.03854
788.70        78.52654
789.11        78.46416
789.52        78.14098
789.93        77.72358
790.35        77.14988
790.76        76.63655
791.17        76.78772
791.58        77.45822
792.00        77.74351
792.41        77.52118
792.82        77.36698
793.23        77.44657
793.65        77.21188
794.06        76.93011
794.47        78.06625
794.88        79.85253
795.29        79.45496
795.71        77.09889
796.12        74.96838
796.53        73.74185
796.94        73.40822
797.35        74.06026
797.76        75.43291
798.18        76.89598
798.59        77.83359
799.00        77.88644
799.41        76.97014
799.82        75.59058
800.23        74.79967
800.64        74.82656
801.06        75.26719
801.47        75.94876
801.88        76.48138
802.29        76.70525
802.70        76.78603
803.11        76.74068
803.52        76.56155
803.93        76.29822
804.34        75.91217
804.75        75.55482
805.17         75.5771
805.58        76.07419
805.99        76.67184
806.40        77.14558
806.81        77.80901
807.22        78.21633
807.63        76.90335
808.04        74.53487
808.45        73.49586
808.86        74.03436
809.27        75.01535
809.68        75.96983
810.09         76.5032
810.50        76.37314
810.91        75.72715
811.32        74.89674
811.73        74.40829
812.14        74.40942
812.55        74.70721
812.96        75.16867
813.37        75.55136
813.78        75.74828
814.19        75.89384
814.60          75.902
815.01        75.61919
815.42        75.05518
815.83        74.20479
816.24        73.40002
816.65        73.23441
817.05        73.87085
817.46        75.11609
817.87         76.4525
818.28        76.93844
818.69        76.33552
819.10        74.87788
819.51        73.22526
819.92        72.49878
820.33        72.98497
820.74        74.35123
821.14        75.95071
821.55        76.62411
821.96        76.11723
822.37         74.8255
822.78        73.33474
823.19        72.51093
823.60        72.58791
824.00        73.33768
824.41        74.35659
824.82        75.05884
825.23        75.19064
825.64        74.95792
826.04        74.56052
826.45        74.27882
826.86        74.19772
827.27        74.18923
827.68        74.19441
828.08        74.17017
828.49        74.03889
828.90        73.90259
829.31        73.75533
829.72        73.56326
830.12        73.36256
830.53        73.13129
830.94        72.99741
831.35        73.12822
831.75        73.57928
832.16        74.24403
832.57        74.96761
832.97        75.40859
833.38        75.40242
833.79        75.04764
834.20        74.57166
834.60        74.32211
835.01         74.4058
835.42        74.71008
835.82        75.04788
836.23        75.02187
836.64        74.58297
837.04        73.89361
837.45        73.18104
837.86        72.80191
838.26        72.85815
838.67        73.19751
839.08        73.70386
839.48        74.16004
839.89        74.42874
840.29        74.57373
840.70        74.56701
841.11        74.34921
841.51        73.95129
841.92        73.38356
842.33         72.7896
842.73        72.42599
843.14        72.33163
843.54        72.48151
843.95        72.75185
844.35        72.98383
844.76        73.09351
845.17        73.13042
845.57        73.10345
845.98          73.038
846.38        72.95609
846.79        72.82248
847.19        72.68625
847.60        72.56783
848.00        72.51574
848.41         72.4912
848.81        72.52226
849.22        72.56685
849.62        72.66135
850.03         72.8368
850.43        73.06096
850.84        73.19395
851.24        73.24163
851.65        73.05106
852.05        72.93465
852.46        73.24192
852.86        74.01868
853.27        75.17911
853.67        76.03108
854.07        75.63261
854.48        73.96066
854.88        71.35547
855.29        68.80106
855.69        67.72798
856.10        68.43182
856.50        70.69642
856.90         73.6954
857.31        75.50572
857.71        75.48407
858.12        74.12679
858.52          72.313
858.92        71.19897
859.33        71.04697
859.73        71.52171
860.13        72.39033
860.54        73.18113
860.94        73.73319
861.34        74.17883
861.75        74.50716
862.15        74.77063
862.55         74.9537
862.96         74.9912
863.36        74.94447
863.76        74.91628
864.17        74.94775
864.57        75.09361
864.97        75.33068
865.38        75.60171
865.78        75.93011
866.18        76.22941
866.58         76.5583
866.99        77.00808
867.39        77.62389
867.79        78.40628
868.19        79.00056
868.60        78.76126
869.00         77.5879
869.40        75.69568
869.80        73.93649
870.21        73.63146
870.61        75.14192
871.01        78.06909
871.41        81.41532
871.81        83.45533
872.22        83.69582
872.62        82.62321
873.02        81.06356
873.42        80.51488
873.82         81.1358
874.22        82.07726
874.63        83.02571
875.03        83.41474
875.43        82.92966
875.83        82.83865
876.23        81.29363
876.63        80.58622
877.03        80.55292
877.44        81.34345
877.84        105.0596
878.24        87.97283
878.64        88.53364
879.04        89.11792
879.44        84.57327
879.84        82.12793
880.24        86.56068
880.64         88.4004
881.04        88.52265
881.44        88.33361
881.84        87.62355
882.24        86.47616
882.65        85.57829
883.05        85.44154
883.45        86.16086
883.85        87.84838
884.25        89.94381
884.65        91.16617
885.05        91.13719
885.45        90.28551
885.85        89.21265
886.25        88.76295
886.65          89.131
887.05        90.00629
887.45        91.14561
887.85        92.11638
888.25        92.69625
888.65        93.04021
889.04        93.07302
889.44        92.71047
889.84         91.9964
890.24        90.96287
890.64        89.91816
891.04         89.3512
891.44        89.34536
891.84        89.77802
892.24         90.3704
892.64        90.58194
893.04        90.30059
893.44        89.78516
893.83        89.22424
894.23        88.89011
894.63        88.84693
895.03         88.9194
895.43        89.26495
895.83        90.16651
896.23        91.58077
896.63        93.41936
897.02        94.99659
897.42        95.19253
897.82        93.85843
898.22        91.40966
898.62        88.80521
899.01        87.46386
899.41        87.70042
899.81        89.01296
900.21        90.77112
900.61        91.94431
901.00        92.18913
901.40        91.85194
901.80        91.16013
902.20        90.44196
902.59        89.86312
902.99        89.31637
903.39        88.86069
903.79        88.63955
904.18        88.68095
904.58         88.9894
904.98        89.54037
905.38          90.268
905.77        91.05556
906.17        91.83735
906.57        92.39781
906.96        92.48444
907.36        92.01585
907.76        91.10978
908.15        89.96646
908.55        88.82361
908.95        87.87232
909.34        87.07829
909.74        86.55437
910.14        86.25186
910.53        86.17293
910.93        86.38565
911.33        86.88956
911.72        87.67007
912.12        88.54876
912.52        89.35872
912.91        90.05698
913.31        90.65128
913.70        91.19994
914.10        91.72392
914.49        91.95477
914.89        91.27444
915.29        89.67874
915.68        87.48463
916.08        85.65691
916.47        85.03606
916.87         85.6537
917.26        87.24668
917.66        89.01953
918.05        89.67388
918.45        88.88391
918.84         87.1114
919.24        85.19727
919.64        84.37228
920.03        84.96554
920.42        86.57944
920.82        88.65238
921.21        90.32687
921.61        91.07787
922.00         91.1781
922.40        90.74876
922.79        89.98219
923.19        89.07176
923.58        87.83701
923.98        86.29964
924.37         85.1688
924.77        84.94729
925.16        82.47589
925.55        83.74311
925.95         84.4859
926.34         86.4085
926.74        88.93716
927.13        91.42795
927.52        92.53561
927.92        92.05648
928.31        90.44686
928.70        88.20094
929.10        86.19662
929.49        84.73109
929.89        83.60577
930.28        83.13371
930.67        83.83231
931.07         85.5612
931.46        88.22951
931.85        90.81256
932.24        91.75261
932.64        90.75552
933.03        88.08172
933.42        84.55968
933.82        82.09319
934.21         81.3074
934.60        81.73119
934.99        82.56794
935.39         83.0306
935.78        82.99512
936.17        82.23177
936.56        80.56023
936.96        81.90763
937.35         80.7163
937.74        81.27431
938.13        81.81568
938.53        82.65682
938.92        83.83366
939.31        85.44677
939.70        87.02642
940.09        87.19347
940.49        85.64276
940.88        83.05916
941.27        80.51965
941.66        79.25922
942.05        79.40929
942.44        80.51877
942.84        82.24174
943.23        84.01266
943.62        85.41096
944.01        86.55897
944.40        87.17154
944.79        86.81277
945.18         85.3991
945.57        82.86448
945.97        79.75346
946.36        77.60766
946.75        77.19788
947.14         78.0901
947.53        79.47371
947.92        80.46252
948.31         80.9438
948.70        81.20337
949.09         81.3787
949.48         81.6953
949.87        82.19505
950.26        82.64622
950.65        82.99696
951.04        83.26865
951.43        83.45021
951.82        83.58735
952.21        83.50949
952.60        82.94589
952.99        81.89445
953.38        80.44414
953.77        79.02538
954.16        78.24571
954.55        78.21371
954.94        78.84717
955.33        79.56347
955.72         79.3631
956.11        78.03889
956.50        75.83286
956.89        73.68427
957.28        73.31992
957.66        75.24524
958.05        78.67123
958.44        82.33823
958.83        84.38017
959.22         84.3292
959.61        82.67615
960.00        80.25099
960.39        78.42448
960.78        77.64977
961.16        77.59702
961.55        77.71972
961.94        77.09808
962.33        75.58327
962.72        73.66174
963.11        72.00022
963.49         71.4102
963.88        72.00336
964.27        73.53293
964.66        75.48058
965.04        76.72182
965.43        76.70747
965.82        75.85909
966.21        74.73223
966.60         74.0648
966.98        74.04464
967.37        74.36059
967.76        74.92159
968.15        75.53559
968.53        76.04244
968.92         76.4622
969.31        76.67577
969.69        76.45165
970.08        75.80907
970.47        74.84641
970.86         73.7275
971.24        72.78798
971.63        72.19099
972.02        71.86819
972.40        71.94998
972.79        72.60388
973.17        73.88837
973.56        75.65942
973.95        77.44147
974.33        78.29958
974.72        77.87888
975.11         76.4129
975.49        74.65359
975.88         73.6769
976.26        73.63866
976.65        74.36676
977.04        75.14761
977.42        74.35905
977.81        71.64761
978.19        67.78398
978.58        64.63165
978.96        64.03428
979.35        66.21437
979.74        70.80785
980.12        76.71752
980.51        80.27975
980.89        80.30019
981.28        77.77956
981.66        74.43006
982.05        72.43529
982.43        72.18409
982.82        72.87578
983.20        74.19939
983.59        75.80737
983.97         77.6005
984.35        79.85216
984.74        81.97221
985.12        82.81562
985.51         81.6774
985.89        78.64437
986.28        74.73788
986.66        71.65023
987.04        70.18129
987.43        70.02846
987.81        70.36182
988.20        70.04087
988.58        68.66116
988.96        65.99689
989.35        62.61054
989.73        61.55207
990.12        64.68266
990.50        70.54462
990.88        75.31968
991.27        76.12331
991.65        73.50716
992.03        68.46748
992.42        63.08888
992.80        61.06413
993.18        63.38071
993.56        67.78282
993.95        72.62421
994.33         76.7014
994.71        79.53343
995.10        81.89472
995.48        83.11002
995.86        81.82095
996.24        77.79179
996.63        70.77959
997.01        62.62208
997.39        58.83208
997.77        61.87775
998.15        70.55461
998.54        80.30505
998.92        84.64935
999.30         81.7473
999.68        73.29668
1000.06        61.72103
1000.45        53.06396
1000.83        50.04605
1001.21        50.68663
1001.59        53.56566
1001.97        57.30574
1002.35        61.50922
1002.73        67.41827
1003.12        73.72457
1003.50        75.54383
1003.88        70.76365
1004.26         61.4933
1004.64        52.47425
1005.02        47.86562
1005.40        47.95002
1005.78        52.45755
1006.16        61.76109
1006.54        70.68313
1006.92        73.19227
1007.30        71.17957
1007.69        68.19022
1008.07        66.68084
1008.45        66.59435
1008.83          67.518
1009.21        67.83195
1009.59        55.24156
1009.97       -7.639524
1010.35        -129.379
1010.73       -138.8369
1011.11       -71.45052
1011.49       -14.30809
1011.86        27.59412
1012.24        51.57506
1012.62         61.0536
1013.00        61.30385
1013.38        54.82465
1013.76        44.44906
1014.14        41.15863
1014.52        54.75424
1014.90        87.93409
1015.28        130.9569
1015.66        152.5595
1016.04         134.504
1016.41        85.00657
1016.79        33.23806
1017.17        9.542476
1017.55        10.45687
1017.93        19.88807
1018.31        30.47666
1018.69        39.22221
1019.06          46.834
1019.44        55.62179
1019.82        68.01044
1020.20        84.73492
1020.58        105.5751
1020.95        130.6586
1021.33        159.8136
1021.71       -144.4501
1022.09        105.2189
1022.46        122.4735
1022.84        130.9694
1023.22        140.6993
1023.60        162.4621
1023.97        363.8488
1024.35        25.52054
1024.73        64.78911
