SpectraSmart Spectrum 2.9.0.0
--------- Device Information -----------
Spectrum Name :  反射率_0
Saving Time :  2024/04/26 01:59:02
Spectro-Module Model Name : SE2030-DUVN
Spectro-Module Serial Number : OS361AC55029948
Wavelength Start : 200
Wavelength End : 1025
Wavelength Unit : Wavelength(nm)
Spectrum Unit : Reflectance(%)
-----------Spectrum Setting ------------
Integration Time : 20ms
Average : 10
Boxcar : 0
Background removal :  enabled
linearity correction :  enabled
SC :  disabled
Intensity correction :  disabled
DWT denoise :  enabled
savitzky-golay :  disabled
FFT :  disabled
Running average :  disabled
Kalman :  disabled
High pass :  disabled
---------------BEGIN--------------------
Wavelength(nm)             Reflectance(%)
200.29               0
200.75        101.3341
201.21        90.12675
201.67        77.27631
202.13        69.82571
202.58        68.65263
203.04        72.09881
203.50        77.51625
203.96        80.29814
204.42        79.37492
204.88        76.63548
205.34        74.17825
205.80        74.21957
206.26        77.75628
206.72        86.56467
207.18        104.2257
207.64        120.5007
208.10        111.5256
208.55        91.26566
209.01        77.86054
209.47        72.31054
209.93        71.05475
210.39        72.25515
210.85         74.0131
211.31        72.86739
211.77        68.10835
212.23        61.30242
212.69        55.52048
213.14        55.49865
213.60        61.68254
214.06        72.45724
214.52        84.36101
214.98         92.1693
215.44        94.31778
215.90        92.38205
216.36        88.06891
216.81        83.70154
217.27        80.58555
217.73        78.17999
218.19        75.82696
218.65        72.47839
219.11         67.4178
219.57        59.89787
220.02        50.80461
220.48        45.84932
220.94         47.9833
221.40         55.9763
221.86        63.17389
222.32        62.70307
222.77        55.60534
223.23        45.81652
223.69        37.91055
224.15        36.66039
224.61        41.33934
225.06        49.47306
225.52        57.25322
225.98        59.73424
226.44        56.18281
226.90        48.85125
227.36         40.6628
227.81        35.55401
228.27        34.70637
228.73        36.55989
229.19        39.82699
229.65        42.59614
230.10        44.15459
230.56        45.09579
231.02        45.61214
231.48        45.85577
231.93        45.90398
232.39        45.65171
232.85        45.14397
233.31        44.56835
233.77        43.97435
234.22        43.36129
234.68         42.7683
235.14        42.18538
235.60         41.6849
236.05        41.38068
236.51        41.28577
236.97        41.33844
237.43        41.57781
237.88        42.11518
238.34        43.11778
238.80        44.94813
239.26        47.57211
239.71        50.81054
240.17        54.03878
240.63        56.78491
241.08         58.9435
241.54        60.48323
242.00         61.6929
242.46        63.21951
242.91        65.99929
243.37        71.64639
243.83        88.67983
244.28        146.9784
244.74        219.4736
245.20        186.8273
245.66        153.6373
246.11        145.1054
246.57        151.9937
247.03        181.3761
247.48        265.7977
247.94        210.1994
248.40        116.8853
248.85         89.8159
249.31        82.54238
249.77        82.84135
250.22        87.62897
250.68        97.26775
251.14         111.461
251.59        120.8887
252.05        116.2351
252.51        101.8439
252.96        86.05298
253.42        76.60509
253.88        73.13284
254.33        72.97237
254.79        75.90213
255.25        81.03345
255.70        86.69974
256.16        92.43289
256.62        96.21558
257.07        95.94799
257.53        92.63098
257.99        87.21906
258.44        81.20268
258.90        77.38437
259.35        75.17157
259.81        73.76125
260.27        72.09049
260.72        69.11463
261.18        65.27951
261.63        60.87864
262.09        56.63596
262.55        52.71052
263.00        49.26427
263.46        46.45712
263.91        44.11707
264.37        42.28593
264.83        40.73659
265.28        39.27536
265.74        38.06169
266.19        37.09389
266.65        36.46333
267.11        36.07681
267.56        35.64978
268.02        34.80667
268.47        33.46788
268.93        31.75098
269.38        29.92915
269.84        28.72177
270.30        28.30553
270.75         28.4863
271.21         28.8625
271.66        28.82232
272.12        28.20303
272.57        27.20197
273.03        26.11786
273.48        25.32176
273.94        24.93874
274.39         24.8028
274.85        24.75014
275.31        24.54493
275.76        24.11813
276.22        23.57543
276.67        23.01299
277.13        22.64393
277.58        22.45567
278.04         22.3947
278.49        22.29417
278.95        21.97561
279.40        21.39458
279.86        20.67595
280.31        19.93158
280.77        19.42774
281.22        19.17983
281.68        19.12629
282.13        19.15387
282.59        19.12415
283.04        19.00285
283.50        18.86966
283.95        18.74162
284.41        18.65502
284.86        18.61764
285.32        18.60863
285.77         18.6719
286.22        18.93577
286.68        19.37334
287.13        19.91253
287.59        20.37835
288.04        20.50847
288.50        20.28849
288.95        19.80046
289.41        19.24556
289.86        18.82778
290.32        18.66311
290.77        18.68488
291.22        18.87341
291.68        19.15431
292.13        19.51134
292.59        19.98039
293.04        20.57614
293.50          21.312
293.95        22.16912
294.40        23.10144
294.86        24.06998
295.31        25.03721
295.77        25.99958
296.22        26.97439
296.68        27.96065
297.13        28.92256
297.58        29.87781
298.04        30.85487
298.49        31.92317
298.95        33.23873
299.40        34.81353
299.85        36.59047
300.31         38.4521
300.76        40.20648
301.21         41.7681
301.67        43.21137
302.12        44.52309
302.58        45.78405
303.03        47.00657
303.48        48.19266
303.94        49.46756
304.39        50.96688
304.84        52.71251
305.30        54.65878
305.75        56.58037
306.20        58.14836
306.66        59.32179
307.11        60.16174
307.57        60.92463
308.02        61.88711
308.47        63.16452
308.93        64.66717
309.38          66.231
309.83        67.64604
310.29        68.83505
310.74        69.83183
311.19        70.72482
311.65        71.64935
312.10        72.62705
312.55        73.61847
313.00        74.50544
313.46        75.10926
313.91        75.38797
314.36        75.43391
314.82        75.44345
315.27        75.66434
315.72        76.19138
316.18        76.95419
316.63        77.83012
317.08        78.57262
317.53        79.09629
317.99        79.44839
318.44        79.75175
318.89        80.21507
319.35        80.86302
319.80         81.6496
320.25        82.36652
320.70        82.68097
321.16        82.53471
321.61         82.0458
322.06        81.49012
322.51        81.29918
322.97        81.55326
323.42        82.15968
323.87        82.87856
324.32        83.29181
324.78        83.27333
325.23        82.99275
325.68        82.61607
326.13        82.43925
326.59        82.53579
327.04        82.83259
327.49        83.25764
327.94        83.72385
328.39        84.17936
328.85        84.63848
329.30        85.09386
329.75        85.37556
330.20        85.47552
330.66          85.423
331.11        85.40737
331.56        85.67036
332.01        86.28545
332.46        87.16889
332.92        88.19083
333.37        89.27013
333.82        90.24905
334.27        91.15748
334.72        91.87415
335.17        92.21664
335.63        92.17884
336.08        91.85431
336.53        91.49122
336.98        91.53831
337.43        92.10534
337.88        93.06953
338.34        94.21144
338.79        95.24335
339.24        96.00831
339.69        96.60279
340.14        97.01671
340.59        97.23865
341.05        97.30922
341.50        97.21455
341.95        97.10998
342.40        97.25789
342.85        97.71387
343.30        98.42577
343.75        99.22999
344.20        99.81612
344.66        100.0982
345.11        100.1383
345.56        100.0643
346.01         100.076
346.46        100.2343
346.91        100.4767
347.36        100.7349
347.81        100.9109
348.26        100.9853
348.72        101.0159
349.17        101.0393
349.62        101.1585
350.07        101.3865
350.52        101.6744
350.97        101.9504
351.42        102.1133
351.87        102.1392
352.32        102.0647
352.77        101.9251
353.22        101.7764
353.67        101.6433
354.13        101.5234
354.58        101.3988
355.03        101.2993
355.48        101.2186
355.93        101.1457
356.38         101.045
356.83        100.8579
357.28        100.5665
357.73        100.1847
358.18        99.72897
358.63        99.22906
359.08        98.70559
359.53        98.16425
359.98        97.61563
360.43        97.07273
360.88        96.53578
361.33        95.99619
361.78        95.46824
362.23        94.97253
362.68        94.51215
363.13        94.09281
363.58        93.65482
364.03        93.09995
364.48         92.4194
364.93        91.64371
365.38        90.88353
365.83        90.32256
366.28        89.98595
366.73        89.79363
367.18        89.62546
367.63        89.28614
368.08        88.73088
368.53        88.05353
368.98        87.29215
369.43        86.49408
369.88        85.69929
370.33         84.8891
370.78        84.18672
371.23        83.80007
371.68        83.75863
372.13        84.00785
372.58        84.33286
373.03        84.36014
373.48        83.99511
373.93        83.34444
374.38        82.60861
374.83        82.10307
375.28         81.9007
375.72        81.88196
376.17        81.93244
376.62        81.84466
377.07        81.54843
377.52        81.10524
377.97        80.57555
378.42        80.04987
378.87        79.57245
379.32        79.13415
379.77        78.69699
380.22        78.20248
380.67        77.63788
381.11        77.02067
381.56        76.44128
382.01        76.04839
382.46        75.87874
382.91        75.90765
383.36        75.96657
383.81        75.78868
384.26        75.32748
384.71        74.65285
385.15        73.98615
385.60        73.72929
386.05        73.89581
386.50        74.34969
386.95        74.78946
387.40        74.71225
387.85        74.05207
388.29        73.01324
388.74        72.00015
389.19        71.28706
389.64        70.93005
390.09        70.79212
390.54        70.83653
390.98        70.99976
391.43          71.209
391.88        71.45815
392.33        71.60491
392.78        71.34331
393.23        70.67501
393.67        69.93984
394.12        69.37199
394.57        68.53653
395.02        67.75927
395.47        68.22923
395.91        69.70866
396.36        70.48338
396.81        70.33427
397.26        70.10197
397.71        69.91958
398.15        69.56834
398.60        69.19629
399.05        68.91685
399.50        68.66721
399.95        68.08933
400.39        67.55695
400.84        67.03455
401.29        66.71928
401.74        66.87788
402.18        67.40335
402.63         67.5948
403.08        67.47666
403.53        67.64883
403.97        68.08945
404.42        68.37392
404.87        68.39246
405.32        68.13696
405.76        67.60066
406.21        66.97807
406.66        66.39368
407.11        65.82685
407.55        65.47057
408.00        65.69041
408.45          66.373
408.90        67.01158
409.34        67.29793
409.79        66.92826
410.24        66.14639
410.68        65.76931
411.13        65.89176
411.58        66.01791
412.03         66.1285
412.47        66.42757
412.92         66.8375
413.37        67.32268
413.81        67.70734
414.26        67.76615
414.71        67.45086
415.15        66.82635
415.60         66.1165
416.05        65.70329
416.49        65.69109
416.94        65.99843
417.39        66.38785
417.83        66.43389
418.28        66.05589
418.73        65.40524
419.17         64.7751
419.62         64.6242
420.07         65.0033
420.51        65.74508
420.96        66.56183
421.41        66.92133
421.85        66.67136
422.30         66.2419
422.74        65.75861
423.19        65.15211
423.64         64.6314
424.08        64.94701
424.53        65.92362
424.98        66.49945
425.42        66.52473
425.87         66.7547
426.31        67.17355
426.76        67.00961
427.21        66.51817
427.65        66.84324
428.10        67.86465
428.54        68.63855
428.99        69.08779
429.44        69.25946
429.88        69.22202
430.33        69.91307
430.77        70.73735
431.22        69.71298
431.66        67.33629
432.11        65.93304
432.56        65.81998
433.00        66.51398
433.45        67.88397
433.89        69.52749
434.34        70.12593
434.78        71.78122
435.23        68.30832
435.67         66.7402
436.12        68.36372
436.57        69.67068
437.01        70.90177
437.46        71.47491
437.90        71.55157
438.35         70.2539
438.79        70.93858
439.24        70.68278
439.68        70.48418
440.13        70.39441
440.57        70.61212
441.02        71.35486
441.46         72.3354
441.91        73.40293
442.35        74.09971
442.80        73.09749
443.24        71.35725
443.69        71.65397
444.13        73.75758
444.58        73.92062
445.02         72.2884
445.47        71.98351
445.91        72.94669
446.36        73.25597
446.80        72.85449
447.24        72.68506
447.69        72.82852
448.13        73.03384
448.58         73.3192
449.02        73.72604
449.47        74.17162
449.91        74.48011
450.36        74.60921
450.80        74.66188
451.25        74.64661
451.69        74.39499
452.13        74.02016
452.58        73.85551
453.02        73.90794
453.47        73.96336
453.91        73.99934
454.36        74.17135
454.80        74.41636
455.24          74.444
455.69        74.23134
456.13        74.00954
456.58        73.86478
457.02        73.41994
457.46        72.93369
457.91        73.24551
458.35        74.11431
458.79        74.44553
459.24        74.17585
459.68        73.83627
460.13         73.5409
460.57        73.20785
461.01        72.95387
461.46         72.6552
461.90        72.23966
462.34        72.59915
462.79        72.30421
463.23        72.23145
463.68        72.91911
464.12        73.36916
464.56        73.71577
465.01        73.61698
465.45        73.04156
465.89         72.8695
466.34        72.74258
466.78        71.65589
467.22        70.09605
467.67        69.95114
468.11        71.44685
468.55        72.29009
468.99        72.22775
469.44        71.86972
469.88        71.43094
470.32        71.43201
470.77        71.80473
471.21        71.77721
471.65        71.31892
472.10        71.06887
472.54        71.08813
472.98        71.11865
473.42        71.14118
473.87        71.41755
474.31        71.77169
474.75        71.55771
475.20        70.94028
475.64        70.85806
476.08         71.2988
476.52        71.32384
476.97        70.87112
477.41        71.03419
477.85        71.09604
478.29        70.84768
478.74        71.32387
479.18        71.60284
479.62         70.2305
480.06        70.81502
480.50         71.2986
480.95        71.72419
481.39        71.57876
481.83         71.2017
482.27        70.75199
482.72        71.10131
483.16        69.45451
483.60        69.79011
484.04        71.18481
484.48        71.66815
484.93        71.72718
485.37        72.76527
485.81        72.94468
486.25        72.30344
486.69        97.69193
487.14         79.3038
487.58         49.4337
488.02        60.40006
488.46        69.02108
488.90        68.19475
489.34        70.22683
489.79        69.32613
490.23        71.17236
490.67        71.93438
491.11        71.00121
491.55        71.01277
491.99         71.5039
492.43        71.32054
492.88        70.55295
493.32        70.47733
493.76        70.59631
494.20        70.76723
494.64        70.73663
495.08        70.82413
495.52        71.06038
495.96        70.87568
496.41        70.37495
496.85        71.05669
497.29         72.4829
497.73        71.50072
498.17        69.13892
498.61        69.15715
499.05        71.63162
499.49        72.33951
499.93        72.69054
500.37        72.27658
500.82        71.12835
501.26        71.07565
501.70        71.84084
502.14        72.12354
502.58        71.77077
503.02        71.58061
503.46        71.55599
503.90        71.27213
504.34        70.85943
504.78        70.68308
505.22        70.80302
505.66        71.18417
506.10        71.65317
506.54         71.8444
506.98        71.67986
507.42        71.31018
507.86        70.90031
508.30        70.67459
508.74        70.69785
509.18        70.89674
509.62        71.17145
510.06        71.36195
510.50        71.41749
510.94        71.39359
511.38        71.33927
511.82        71.32394
512.26        71.36914
512.70        71.44174
513.14        71.51811
513.58        71.57181
514.02        71.58663
514.46        71.56715
514.90        71.52782
515.34         71.4726
515.78        71.39697
516.22        71.36622
516.66         71.3601
517.10         71.1805
517.54        70.82803
517.98        70.92114
518.42        70.68184
518.86        70.79845
519.30        71.02332
519.74        71.39433
520.18        71.80088
520.62        72.03952
521.06        72.08032
521.50         72.0097
521.93        71.88448
522.37        71.76468
522.81        71.69271
523.25        71.66668
523.69        71.68825
524.13        71.75008
524.57        71.84479
525.01        71.97564
525.45        72.12144
525.89        72.24207
526.32        72.31448
526.76        72.34185
527.20        72.31873
527.64        72.26051
528.08        72.19407
528.52        72.06152
528.96        71.85612
529.40        71.77087
529.83        71.85134
530.27        71.31155
530.71        71.57169
531.15        71.51582
531.59        71.56344
532.03        71.66192
532.46        71.81702
532.90        72.00206
533.34        72.18571
533.78        72.37405
534.22        72.51087
534.66        72.52301
535.09        72.39289
535.53        72.16586
535.97        71.91275
536.41        71.76915
536.85        71.76981
537.28         71.8834
537.72        72.02483
538.16        72.06758
538.60        71.98324
539.04        71.75928
539.47        71.48112
539.91        71.46864
540.35        71.66685
540.79        71.73025
541.22        71.62921
541.66        71.60489
542.10        71.64465
542.54        71.59807
542.97        71.49297
543.41        71.48322
543.85        71.56461
544.29        71.70027
544.72        71.82413
545.16        71.82585
545.60        71.67255
546.04         71.5233
546.47         71.4355
546.91        71.23976
547.35        71.10383
547.79        71.60882
548.22        72.46991
548.66        72.82871
549.10        72.50681
549.53        71.61978
549.97        70.57709
550.41        70.11842
550.84        70.37628
551.28        70.99345
551.72        71.70746
552.15        72.17908
552.59         72.2806
553.03        72.12309
553.46        71.81965
553.90        71.61702
554.34        71.57391
554.77        71.52876
555.21        71.45827
555.65        71.54325
556.08        71.80053
556.52        71.37701
556.96        71.87934
557.39        71.68941
557.83        71.39795
558.27        71.32605
558.70        71.49695
559.14        71.65167
559.57        71.75814
560.01        71.92839
560.45        72.11684
560.88        72.32817
561.32        72.45422
561.75        72.14884
562.19        71.57944
562.63        71.02489
563.06        70.68103
563.50        70.93602
563.93        71.58905
564.37        71.88258
564.80        71.72513
565.24         71.5952
565.68        71.51246
566.11        71.39491
566.55        71.32961
566.98        71.11546
567.42        70.88271
567.85        71.32784
568.29        72.26901
568.72        72.33379
569.16        71.77985
569.60        72.13416
570.03        72.77249
570.47        72.82912
570.90        72.52784
571.34        70.74186
571.77        71.60086
572.21        71.76849
572.64        71.39755
573.08        70.08113
573.51        67.38419
573.95        69.92369
574.38        74.17924
574.82        72.08334
575.25        71.74622
575.69        69.32668
576.12        68.34566
576.56        67.84793
576.99        69.25255
577.42        72.20216
577.86        72.42495
578.29        71.60158
578.73        75.35811
579.16        69.50312
579.60        63.49879
580.03        66.37116
580.47         70.7207
580.90        72.29008
581.33         70.9436
581.77        70.18377
582.20        76.85094
582.64        76.69263
583.07        65.51466
583.51        64.31583
583.94        63.14465
584.37        66.13897
584.81        69.26131
585.24        73.13051
585.68        75.18662
586.11         73.6948
586.54        68.55843
586.98        66.17762
587.41        67.00541
587.85        70.68804
588.28        73.17524
588.71        69.50571
589.15        67.26965
589.58        68.74402
590.01        68.70323
590.45        70.08735
590.88        70.77045
591.31        70.25583
591.75        69.93463
592.18        69.91139
592.61        71.16698
593.05        71.74947
593.48        74.78421
593.91        75.50523
594.35        69.31951
594.78        67.93801
595.21        67.55851
595.65        70.63239
596.08        73.50359
596.51        70.03719
596.94        68.68421
597.38        69.28325
597.81        71.81473
598.24        73.70271
598.68        72.25492
599.11        70.64952
599.54        73.82327
599.97        75.11214
600.41         70.1366
600.84        70.08726
601.27        71.15305
601.70        70.38916
602.14        70.54636
602.57        69.55772
603.00        69.76963
603.43        71.73637
603.87        73.26712
604.30        72.92574
604.73        70.78041
605.16        69.30021
605.60        70.14884
606.03        71.28795
606.46        72.44117
606.89        72.07407
607.32        69.83409
607.76        69.71967
608.19        72.01628
608.62         71.1522
609.05        70.00987
609.48        70.42172
609.92        70.06316
610.35        70.02022
610.78        72.48938
611.21         73.0119
611.64        69.75256
612.07        70.40107
612.50        70.90324
612.94        71.40234
613.37        70.84607
613.80        70.89788
614.23        71.56763
614.66        71.38764
615.09        71.41579
615.52        71.40902
615.96        71.48007
616.39        71.55264
616.82        70.38988
617.25        70.23708
617.68        70.68721
618.11        71.45491
618.54        72.10893
618.97        71.64799
619.40        70.54484
619.84        70.02877
620.27        71.34412
620.70        72.12044
621.13        72.45181
621.56        71.66653
621.99        70.53093
622.42        71.23433
622.85        73.19908
623.28        73.08518
623.71        72.29987
624.14        72.21753
624.57        71.93113
625.00        71.59382
625.43        71.90182
625.86        71.39098
626.29        71.71551
626.72        71.98199
627.15        71.81423
627.58        71.82032
628.01        71.79828
628.44        71.89368
628.87        72.14783
629.30        72.21593
629.73        72.77197
630.16         72.8309
630.59        72.59076
631.02        72.19286
631.45        71.77428
631.88        71.48926
632.31        71.38607
632.74        71.42735
633.17        71.55254
633.60        71.65706
634.03        71.70174
634.46        71.72217
634.89        71.72025
635.32        71.69566
635.75        71.65582
636.18        71.59058
636.61        71.52612
637.04        71.51395
637.47        71.56236
637.89        71.66849
638.32        71.77575
638.75        71.83659
639.18        71.83247
639.61        71.77994
640.04        71.69663
640.47        71.61138
640.90        71.54146
641.33        71.47794
641.76        71.40162
642.18        71.38557
642.61        71.43002
643.04        71.35589
643.47        71.13475
643.90        71.64293
644.33        71.40015
644.76        71.59335
645.18        71.72975
645.61         71.7428
646.04        71.60207
646.47         71.3261
646.90        71.05222
647.33        70.95033
647.75        71.07491
648.18        71.41608
648.61        71.75233
649.04        71.71811
649.47        71.26923
649.89        70.45566
650.32        69.67794
650.75        69.59539
651.18        70.22639
651.61        71.07922
652.03        71.74487
652.46        71.92015
652.89        71.86232
653.32        71.08142
653.74        70.07822
654.17        71.34618
654.60        72.48709
655.03        69.83801
655.46        71.03779
655.88        74.82253
656.31        79.63352
656.74        178.7648
657.16        115.7408
657.59        40.92253
658.02        30.87106
658.45        53.58661
658.87        68.49401
659.30        72.26855
659.73        71.31344
660.15        68.66409
660.58        71.20728
661.01        72.90766
661.44        70.60975
661.86        69.81998
662.29        69.75966
662.72        70.55334
663.14        71.92498
663.57        71.88824
664.00        70.70654
664.42        70.49149
664.85        71.31627
665.27        71.81268
665.70        71.77122
666.13        71.63476
666.55        71.38692
666.98        70.89625
667.41        70.34335
667.83         70.0837
668.26        70.19009
668.69        70.52827
669.11        70.88853
669.54        71.25553
669.96        70.89444
670.39        70.55011
670.82        70.02419
671.24        69.83289
671.67         70.0215
672.09        70.32001
672.52        70.53967
672.94        71.16432
673.37        70.87924
673.80        70.74181
674.22        70.48164
674.65         70.3627
675.07        70.39674
675.50         70.3031
675.92        70.12849
676.35        70.12161
676.77         70.2965
677.20        70.50283
677.62        70.70379
678.05        70.84573
678.47        70.89462
678.90        70.88436
679.32        70.84357
679.75        70.68373
680.17        70.69989
680.60        70.66199
681.02        70.61725
681.45        70.48551
681.87        70.27562
682.30        70.01298
682.72         69.7925
683.15        69.78161
683.57        70.01784
684.00        70.34986
684.42        70.81048
684.85        71.07085
685.27        71.11475
685.70        71.00761
686.12        70.81025
686.54        70.68558
686.97        70.66573
687.39        70.68842
687.82        70.71416
688.24        70.80302
688.66        70.89428
689.09        70.85324
689.51        70.72556
689.94        70.70663
690.36         70.8243
690.78        70.91029
691.21         70.9413
691.63        71.06503
692.06        71.21104
692.48        71.08807
692.90        70.78362
693.33        70.67631
693.75         70.7959
694.17        70.96703
694.60         71.1371
695.02        71.21679
695.44        71.16219
695.87        71.31504
696.29        71.64449
696.71        71.32564
697.14        70.60243
697.56        71.02975
697.98        72.32013
698.41        72.16881
698.83        71.30849
699.25        70.76357
699.68        70.84037
700.10         70.8017
700.52        70.66811
700.94        70.83684
701.37        71.21258
701.79        71.53137
702.21        71.70294
702.64        71.80929
703.06        71.83105
703.48        71.73335
703.90        71.53875
704.33        71.24962
704.75        70.95109
705.17        70.87289
705.59        71.06606
706.01        71.35695
706.44        71.59936
706.86        72.17414
707.28        72.06648
707.70        72.06837
708.12        71.96014
708.55        71.85262
708.97        71.75458
709.39        71.64999
709.81        71.56637
710.23        71.53729
710.66        71.56939
711.08        71.68684
711.50        71.81091
711.92        71.82793
712.34         71.7149
712.76        71.48933
713.19        71.25396
713.61        71.20759
714.03        71.37553
714.45        71.70393
714.87        72.03231
715.29        72.10451
715.71        71.87267
716.13        71.42293
716.56        70.93424
716.98        70.72482
717.40         70.8656
717.82        71.26069
718.24        71.74719
718.66        72.04729
719.08        72.07915
719.50        71.92627
719.92        71.68883
720.34        71.54755
720.76        71.55788
721.19        71.54044
721.61         71.6836
722.03        71.79377
722.45        71.90835
722.87        72.03902
723.29         72.1647
723.71        72.23724
724.13        72.24471
724.55         72.1943
724.97        72.11478
725.39        72.06096
725.81        72.04996
726.23        72.07204
726.65        72.11045
727.07        72.13387
727.49        72.13844
727.91        72.14162
728.33         72.1584
728.75        72.21194
729.17        72.30184
729.59        72.40642
730.01        72.52374
730.43        72.64414
730.85        72.76664
731.27        72.92316
731.69        73.05829
732.10        73.06493
732.52        72.92205
732.94        72.68906
733.36        72.51685
733.78        72.50042
734.20        72.67144
734.62        73.34978
735.04         74.2409
735.46        74.11495
735.88         73.2633
736.30        73.33361
736.72        74.35745
737.13        75.17054
737.55        75.32899
737.97        75.12194
738.39        74.69613
738.81        73.81649
739.23         72.9571
739.65        73.85311
740.06        75.95807
740.48        76.14618
740.90        74.51541
741.32        73.78123
741.74        74.21678
742.16         74.4739
742.57        74.60099
742.99        75.37289
743.41        76.53893
743.83        77.23244
744.25        77.29673
744.67        76.95406
745.08         76.4601
745.50        76.22826
745.92        76.39311
746.34        76.81764
746.75        77.31526
747.17        77.57233
747.59        77.53233
748.01        77.30217
748.42        77.09482
748.84        77.24056
749.26        77.81225
749.68         78.6186
750.09        79.44315
750.51        80.05412
750.93        80.30952
751.35          79.998
751.76        79.32876
752.18         79.0492
752.60        79.17683
753.01         79.1048
753.43        78.88149
753.85        79.05502
754.27        79.65112
754.68        80.42643
755.10        81.18812
755.52        81.78172
755.93        82.09856
756.35        82.10971
756.77          81.974
757.18        81.81128
757.60        81.67971
758.02        81.99157
758.43        82.42789
758.85        81.66247
759.26        79.93984
759.68        79.80524
760.10        81.06003
760.51        81.84034
760.93        81.77847
761.34         80.8111
761.76        80.66467
762.18        79.93107
762.59        79.37913
763.01        79.66331
763.42         80.7561
763.84        81.50326
764.26         81.7545
764.67        81.99877
765.09        82.15428
765.50        82.08038
765.92        81.70431
766.33        80.39152
766.75        78.68416
767.16        78.22192
767.58        79.18291
768.00        80.68918
768.41        82.35812
768.83        83.99017
769.24        84.87202
769.66        83.86505
770.07        81.70168
770.49         80.0102
770.90        79.22265
771.32        80.28404
771.73        82.43891
772.15        81.91848
772.56        79.17619
772.97        78.54508
773.39        79.98858
773.80        80.45232
774.22        79.76192
774.63        79.82883
775.05         80.5452
775.46        80.90154
775.88        80.76589
776.29        80.43586
776.70        80.06737
777.12        79.93767
777.53         80.1256
777.95        80.47688
778.36        80.81596
778.77        80.83524
779.19        80.51582
779.60         79.9985
780.02        79.49043
780.43        79.36609
780.84        79.79131
781.26        80.21438
781.67        80.60777
782.09        81.96609
782.50        83.61449
782.91        82.66472
783.33        79.85594
783.74        78.83604
784.15         79.7965
784.57        80.39216
784.98        80.33315
785.39        80.31538
785.81        80.28936
786.22        79.99149
786.63         79.6721
787.04         79.7729
787.46        80.33288
787.87        81.23197
788.28        82.17187
788.70        82.61283
789.11        82.43717
789.52        81.84547
789.93         81.1143
790.35         80.6179
790.76        80.46513
791.17        80.59343
791.58        80.89086
792.00        81.05555
792.41        80.98906
792.82         80.9797
793.23        81.12697
793.65        80.75484
794.06        80.22485
794.47         81.4417
794.88        83.56008
795.29        83.29629
795.71        80.70442
796.12        78.44164
796.53        77.17776
796.94        76.83868
797.35        77.50568
797.76        78.85057
798.18        80.25683
798.59        81.21478
799.00        81.36549
799.41         80.5583
799.82        79.24135
800.23        78.41356
800.64        78.29543
801.06         78.4975
801.47        78.93533
801.88         79.3709
802.29        79.68513
802.70         80.0007
803.11        80.24914
803.52        80.27658
803.93        80.08438
804.34        79.66951
804.75        79.23074
805.17        79.20518
805.58        79.71735
805.99        80.34646
806.40        80.84166
806.81        81.51956
807.22        81.90752
807.63        80.47311
808.04        77.93476
808.45         76.8342
808.86        77.43691
809.27        78.52966
809.68          79.614
810.09        80.26773
810.50        80.22546
810.91        79.64308
811.32         78.8439
811.73        78.34563
812.14        78.29795
812.55         78.4992
812.96        78.85947
813.37        79.21725
813.78        79.48152
814.19         79.7692
814.60        79.91503
815.01        79.63902
815.42         78.9339
815.83        77.84032
816.24         76.7831
816.65        76.51723
817.05        77.25457
817.46         78.7467
817.87        80.40663
818.28        81.17313
818.69        80.75532
819.10        79.40973
819.51        77.79697
819.92        77.04661
820.33        77.45476
820.74        78.68019
821.14        80.09855
821.55         80.5943
821.96        79.93616
822.37         78.5283
822.78        76.95072
823.19        76.04661
823.60        76.04391
824.00        76.72409
824.41        77.69838
824.82        78.41598
825.23        78.62939
825.64        78.53081
826.04        78.27674
826.45         78.0913
826.86        78.04254
827.27         78.0024
827.68        77.95769
828.08        77.94956
828.49        77.91362
828.90        77.93742
829.31        77.92732
829.72        77.69094
830.12        77.24451
830.53        76.64236
830.94        76.15355
831.35        76.14056
831.75        76.69875
832.16        77.65491
832.57        78.77319
832.97        79.55119
833.38        79.73518
833.79        79.45605
834.20         78.9443
834.60        78.55643
835.01         78.4269
835.42        78.45508
835.82        78.50272
836.23        78.26183
836.64         77.7247
837.04        77.03922
837.45        76.44821
837.86        76.32317
838.26        76.74357
838.67        77.53297
839.08         78.4677
839.48        79.14127
839.89        79.36455
840.29        79.26196
840.70         78.9072
841.11        78.40402
841.51        77.83742
841.92        77.16977
842.33        76.55357
842.73         76.2557
843.14        76.29306
843.54        76.64369
843.95        77.08759
844.35        77.29909
844.76        77.17201
845.17        76.82043
845.57        76.37231
845.98        76.04033
846.38        75.89225
846.79        75.82843
847.19        75.86868
847.60         75.9653
848.00        76.12159
848.41        76.32161
848.81        76.51565
849.22        76.54647
849.62        76.43961
850.03        76.23249
850.43        76.04269
850.84        76.00692
851.24        76.21571
851.65        76.45307
852.05        76.82986
852.46        77.34057
852.86        77.95187
853.27         78.7002
853.67        79.09927
854.07        78.52206
854.48        77.00918
854.88        74.77477
855.29        72.65837
855.69        71.88475
856.10        72.68201
856.50        74.89864
856.90        77.73773
857.31        79.35165
857.71        79.16096
858.12        77.64706
858.52        75.69531
858.92        74.46859
859.33        74.22266
859.73        74.63625
860.13        75.49423
860.54        76.34155
860.94        77.02534
861.34        77.66501
861.75        78.20054
862.15        78.61555
862.55        78.87668
862.96        78.92045
863.36        78.85876
863.76        78.88667
864.17        79.05241
864.57        79.35824
864.97         79.7171
865.38        79.97311
865.78        80.13316
866.18        80.17265
866.58        80.16348
866.99        80.21242
867.39        80.40384
867.79         80.7345
868.19        80.98628
868.60        80.75353
869.00        79.98253
869.40        78.81456
869.80         77.8547
870.21        78.01836
870.61        79.56461
871.01        82.20122
871.41        85.10811
871.81        86.88342
872.22        87.13412
872.62        86.23489
873.02        84.95527
873.42        84.67719
873.82        85.55273
874.22        86.90656
874.63        88.29423
875.03        88.79922
875.43        88.01071
875.83        87.10085
876.23        85.12237
876.63        84.19391
877.03        84.31403
877.44        85.68102
877.84        103.4653
878.24        92.65321
878.64        92.81782
879.04        92.43069
879.44        88.51778
879.84        86.75219
880.24        90.70848
880.64        93.12551
881.04         94.7384
881.44          95.465
881.84        94.46732
882.24        92.20506
882.65        90.00481
883.05        89.24341
883.45        90.13567
883.85        92.51057
884.25        95.43292
884.65        96.97744
885.05        96.55681
885.45        94.86679
885.85        92.82924
886.25        91.68485
886.65        91.72832
887.05        92.52218
887.45        93.73873
887.85        94.81194
888.25        95.46723
888.65        95.91917
889.04        96.11884
889.44         96.0105
889.84         95.6216
890.24        94.91678
890.64        94.16808
891.04        93.83348
891.44        93.99155
891.84        94.56069
892.24        95.21636
892.64        95.33789
893.04        94.83343
893.44        93.99757
893.83        93.20641
894.23        93.01025
894.63        93.49571
895.03        94.39899
895.43        95.62563
895.83        96.98245
896.23        98.27136
896.63        99.54071
897.02        100.3218
897.42        99.87775
897.82        98.20691
898.22        95.61757
898.62        93.04155
899.01        91.84089
899.41        92.29607
899.81        93.95735
900.21         96.0826
900.61        97.44057
901.00        97.65817
901.40        97.10927
901.80        96.21311
902.20        95.63197
902.59        95.56599
902.99        95.76184
903.39        96.01555
903.79        96.01327
904.18         95.6727
904.58        95.20756
904.98        94.76879
905.38        94.55641
905.77        94.59767
906.17        94.77114
906.57        95.03413
906.96        95.38284
907.36        95.72339
907.76        96.09911
908.15         96.3241
908.55        95.98023
908.95        95.07785
909.34        93.69834
909.74        92.36687
910.14        91.74102
910.53        91.99693
910.93        93.01318
911.33        94.34874
911.72         95.1986
912.12        95.25636
912.52        94.74357
912.91        94.13779
913.31        94.04776
913.70        94.63067
914.10        95.74371
914.49        96.93621
914.89        97.02832
915.29        95.70792
915.68        93.45049
916.08        91.40058
916.47        90.60835
916.87        91.16708
917.26        92.69323
917.66        94.40572
918.05        95.06404
918.45        94.33535
918.84         92.6946
919.24        90.86151
919.64        89.85378
920.03        89.96518
920.42        90.84628
920.82        92.14044
921.21        93.38683
921.61        94.18587
922.00        94.70757
922.40        94.81926
922.79        94.34591
923.19        93.38951
923.58        91.90102
923.98        90.12833
924.37         89.0443
924.77        89.17525
925.16        88.13748
925.55        89.81873
925.95        90.91534
926.34        92.45007
926.74        94.11729
927.13        95.63787
927.52        96.25709
927.92        95.91784
928.31        94.85234
928.70        93.36452
929.10        92.01896
929.49         90.9828
929.89        90.16888
930.28        89.82906
930.67        90.36595
931.07        91.66929
931.46        93.68294
931.85        95.63825
932.24        96.39273
932.64        95.73881
933.03        93.85153
933.42        91.32402
933.82        89.53819
934.21        88.90466
934.60        89.09861
934.99        89.55891
935.39        89.67123
935.78        89.34383
936.17         88.4677
936.56        86.87025
936.96        87.32109
937.35        86.13677
937.74        86.30703
938.13        86.65053
938.53        87.43347
938.92        88.66599
939.31         90.4579
939.70        92.27581
940.09        92.62153
940.49        91.12812
940.88         88.4837
941.27        85.90518
941.66        84.82828
942.05        85.40368
942.44        87.12718
942.84        89.45021
943.23        91.45246
943.62        92.60741
944.01         93.1356
944.40        93.03556
944.79        92.30303
945.18        90.97691
945.57        88.93339
945.97        86.43878
946.36        84.43119
946.75        83.50182
947.14        83.50867
947.53        84.08289
947.92        84.75049
948.31        85.40661
948.70        86.22033
949.09        87.06337
949.48        87.58024
949.87        87.60773
950.26        87.11304
950.65        86.46976
951.04        86.33189
951.43        86.81748
951.82        87.75036
952.21        88.64045
952.60        88.67575
952.99        87.69324
953.38        86.00287
953.77        84.16559
954.16        82.96696
954.55        82.61235
954.94        82.94616
955.33        83.53051
955.72        83.62955
956.11        83.06245
956.50        82.00902
956.89        81.09723
957.28        81.43889
957.66        83.33643
958.05        86.16242
958.44        88.94348
958.83        90.26752
959.22        89.81363
959.61        87.95346
960.00        85.48193
960.39        83.70481
960.78        83.03656
961.16        83.20541
961.55        83.58882
961.94        83.11187
962.33        81.58185
962.72        79.49761
963.11        77.63422
963.49        76.97432
963.88        77.66801
964.27        79.44371
964.66        81.67513
965.04        83.00568
965.43        82.80941
965.82        81.59621
966.21        80.12247
966.60        79.38165
966.98        79.59197
967.37        80.36362
967.76        81.40936
968.15        82.16966
968.53        82.38387
968.92        82.21626
969.31        81.77879
969.69        81.14317
970.08        80.39925
970.47        79.56729
970.86        78.68488
971.24        77.86915
971.63        77.20275
972.02        76.67736
972.40         76.5689
972.79        77.28709
973.17        78.96347
973.56        81.36064
973.95        83.78548
974.33        84.90479
974.72        84.28181
975.11        82.33138
975.49        80.04152
975.88        78.78619
976.26        78.77479
976.65         79.7226
977.04        80.91049
977.42        80.62957
977.81        78.39076
978.19        74.99091
978.58        72.13534
978.96        71.47029
979.35        73.20625
979.74        76.94371
980.12        81.89791
980.51        85.14285
980.89        85.70747
981.28        84.29549
981.66         82.0004
982.05        80.23444
982.43        79.33359
982.82        78.86401
983.20           78.89
983.59        79.60945
983.97        81.07811
984.35        83.39194
984.74        85.95091
985.12        87.56086
985.51        87.38042
985.89         85.5538
986.28        82.71033
986.66        79.93077
987.04          77.959
987.43        76.70084
987.81        75.90217
988.20        75.13927
988.58        74.16564
988.96        72.85384
989.35        71.55479
989.73        71.80186
990.12        74.17851
990.50        77.92896
990.88        80.75365
991.27        81.08669
991.65        79.36857
992.03        76.03054
992.42        72.58116
992.80        71.58072
993.18        73.62132
993.56        77.08744
993.95        80.53062
994.33        82.78738
994.71        83.56641
995.10        83.65622
995.48        82.90054
995.86        80.81885
996.24        77.40524
996.63        72.35492
997.01        67.09532
997.39        65.75024
997.77         69.9597
998.15        78.68909
998.54        87.82968
998.92         91.8345
999.30        89.15072
999.68         81.0564
1000.06        69.96387
1000.45        61.91043
1000.83        59.46207
1001.21        60.73919
1001.59        63.85998
1001.97        66.75848
1002.35        68.87175
1002.73        71.23069
1003.12        73.11799
1003.50        72.29451
1003.88        68.23414
1004.26        62.30145
1004.64        56.94013
1005.02        54.10705
1005.40        53.87158
1005.78        56.06268
1006.16        61.89288
1006.54        70.58328
1006.92        77.45885
1007.30        80.93262
1007.69        82.02622
1008.07        82.34148
1008.45        82.35139
1008.83         81.5628
1009.21        77.06788
1009.59        55.89339
1009.97       -13.49751
1010.35       -123.4337
1010.73        -115.105
1011.11       -47.22555
1011.49        4.938244
1011.86        42.35389
1012.24        63.47502
1012.62        71.35898
1013.00        70.76557
1013.38        63.57295
1013.76         52.6176
1014.14        49.45192
1014.52        64.47661
1014.90        101.0485
1015.28        149.0843
1015.66        175.3032
1016.04        159.7608
1016.41        109.7446
1016.79        55.13029
1017.17        28.41826
1017.55        27.10828
1017.93        34.89343
1018.31        44.18026
1018.69        51.53972
1019.06        57.41325
1019.44        63.88105
1019.82         72.5734
1020.20        83.21606
1020.58        94.20031
1020.95        101.8641
1021.33        92.89032
1021.71        339.7225
1022.09        144.8654
1022.46        137.1364
1022.84        137.5983
1023.22        145.4392
1023.60        170.4038
1023.97        420.0548
1024.35        -2.23134
1024.73        47.27076
