SpectraSmart Spectrum 2.9.0.0
--------- Device Information -----------
Spectrum Name :  反射率_0
Saving Time :  2024/04/26 01:52:56
Spectro-Module Model Name : SE2030-DUVN
Spectro-Module Serial Number : OS361AC55029948
Wavelength Start : 200
Wavelength End : 1025
Wavelength Unit : Wavelength(nm)
Spectrum Unit : Reflectance(%)
-----------Spectrum Setting ------------
Integration Time : 20ms
Average : 10
Boxcar : 0
Background removal :  enabled
linearity correction :  enabled
SC :  disabled
Intensity correction :  disabled
DWT denoise :  enabled
savitzky-golay :  disabled
FFT :  disabled
Running average :  disabled
Kalman :  disabled
High pass :  disabled
---------------BEGIN--------------------
Wavelength(nm)             Reflectance(%)
200.29               0
200.75        89.25177
201.21        80.96535
201.67         71.2674
202.13        65.20339
202.58        63.43409
203.04        65.00321
203.50        68.09079
203.96        69.57041
204.42        68.71817
204.88        66.70082
205.34        65.07447
205.80        65.55267
206.26        69.04049
206.72          77.576
207.18        94.35917
207.64         108.561
208.10        97.99844
208.55        77.51366
209.01        65.03835
209.47        61.76607
209.93        64.05897
210.39        70.17991
210.85        77.35213
211.31        79.42041
211.77        74.40256
212.23        64.67358
212.69         54.9253
213.14        52.35002
213.60        58.07639
214.06        69.93053
214.52        83.16576
214.98        90.55032
215.44        90.25526
215.90         84.6832
216.36        77.12296
216.81        72.10516
217.27        70.90969
217.73        71.86906
218.19        72.65702
218.65        70.12554
219.11        63.04031
219.57        50.81599
220.02        34.85094
220.48        24.41089
220.94        25.26627
221.40         35.2422
221.86        46.16801
222.32         49.2733
222.77        44.92192
223.23        37.46148
223.69        30.91148
224.15        29.32164
224.61        32.35898
225.06        38.05752
225.52        43.67449
225.98        45.95538
226.44        44.35255
226.90        40.35636
227.36        35.95827
227.81        33.77818
228.27        34.60142
228.73        37.26968
229.19        40.52917
229.65        42.56167
230.10          42.967
230.56        42.49424
231.02        41.81655
231.48         41.6463
231.93        42.06252
232.39        42.76241
232.85        43.48093
233.31          43.896
233.77         43.9083
234.22        43.64981
234.68        43.25108
235.14        42.87518
235.60        42.64123
236.05        42.54333
236.51         42.5741
236.97        42.69284
237.43        42.94308
237.88         43.4714
238.34        44.42475
238.80        46.09423
239.26        48.45234
239.71        51.38474
240.17        54.34345
240.63        56.98471
241.08        59.21275
241.54        60.88358
242.00        62.27351
242.46        64.06179
242.91        67.19422
243.37        73.43827
243.83        90.85795
244.28        143.2791
244.74        195.4754
245.20         157.689
245.66        126.9328
246.11        117.2125
246.57        118.0651
247.03        130.6316
247.48        167.8981
247.94        136.2014
248.40        92.56641
248.85        80.37365
249.31        77.76223
249.77        79.28018
250.22        83.72516
250.68        91.97055
251.14        103.1345
251.59        107.8758
252.05        98.74935
252.51        80.90161
252.96        64.52564
253.42        58.36956
253.88        61.27401
254.33        69.76241
254.79        80.32037
255.25        87.42358
255.70        89.85095
256.16        90.14664
256.62        89.12672
257.07         87.4282
257.53        85.67329
257.99        83.08336
258.44        80.27525
258.90        79.04076
259.35        78.48855
259.81        78.35069
260.27        77.15939
260.72        73.42909
261.18        68.05077
261.63        61.69974
262.09        56.07043
262.55        52.43906
263.00        50.67013
263.46         50.1541
263.91         49.8372
264.37        48.91408
264.83        47.17669
265.28        44.83572
265.74        42.49044
266.19        40.79281
266.65        40.00745
267.11        39.77269
267.56        39.57481
268.02        38.80366
268.47        37.32692
268.93         35.3679
269.38        33.27433
269.84        31.87612
270.30        31.39866
270.75        31.60552
271.21        32.03651
271.66        32.00273
272.12         31.3216
272.57        30.20477
273.03        29.01799
273.48        28.22703
273.94        27.96038
274.39        28.00454
274.85        28.08804
275.31        27.81265
275.76        27.10021
276.22        26.14346
276.67        25.16186
277.13        24.55173
277.58        24.33626
278.04        24.39408
278.49         24.4934
278.95        24.37349
279.40        23.95136
279.86         23.3735
280.31        22.72781
280.77        22.25028
281.22        21.95337
281.68        21.78524
282.13        21.66788
282.59        21.52586
283.04         21.3356
283.50        21.16699
283.95         21.0117
284.41        20.86808
284.86        20.73616
285.32         20.6136
285.77        20.56552
286.22        20.75246
286.68        21.15331
287.13        21.68006
287.59        22.13869
288.04        22.23765
288.50        21.95544
288.95        21.37944
289.41        20.72498
289.86        20.21278
290.32        19.96589
290.77        19.91556
291.22        20.02878
291.68        20.21071
292.13        20.44321
292.59        20.76833
293.04        21.23052
293.50        21.89043
293.95        22.73298
294.40        23.69222
294.86        24.67982
295.31        25.58261
295.77        26.37916
296.22        27.10626
296.68        27.80584
297.13        28.51625
297.58         29.2761
298.04        30.09268
298.49        31.00315
298.95        32.10883
299.40        33.41269
299.85        34.88649
300.31        36.44058
300.76        37.92819
301.21         39.2785
301.67        40.54348
302.12        41.71542
302.58        42.87596
303.03        44.03292
303.48        45.19568
303.94        46.44308
304.39        47.84014
304.84        49.40981
305.30        51.13525
305.75        52.88918
306.20         54.4916
306.66        55.92056
307.11        57.18055
307.57        58.41779
308.02        59.75221
308.47        61.26157
308.93        62.90471
309.38        64.58249
309.83        66.18531
310.29        67.66289
310.74        69.01314
311.19        70.29136
311.65        71.58885
312.10        72.91764
312.55        74.25952
313.00        75.50816
313.46        76.49537
313.91        77.17226
314.36         77.6087
314.82        77.99425
315.27        78.57613
315.72        79.44971
316.18        80.54959
316.63        81.73103
317.08         82.7078
317.53        83.38888
317.99        83.83112
318.44        84.21116
318.89        84.82563
319.35        85.71622
319.80        86.81654
320.25        87.84553
320.70        88.34275
321.16        88.21973
321.61        87.63756
322.06         86.9546
322.51        86.73042
322.97        87.08054
323.42        87.88142
323.87        88.83849
324.32        89.43767
324.78        89.51839
325.23        89.27797
325.68        88.92349
326.13        88.81934
326.59        89.05409
327.04        89.53248
327.49        90.13161
327.94        90.68745
328.39        91.12971
328.85        91.49539
329.30        91.84081
329.75        92.09143
330.20        92.26729
330.66        92.36916
331.11        92.53303
331.56        92.91064
332.01         93.5514
332.46        94.39674
332.92        95.35287
333.37        96.42094
333.82        97.46278
334.27        98.48307
334.72        99.32439
335.17         99.7456
335.63        99.72013
336.08        99.36331
336.53         98.9457
336.98        98.95309
337.43        99.50718
337.88        100.4732
338.34         101.619
338.79        102.6431
339.24        103.3835
339.69        103.9482
340.14        104.3351
340.59        104.5423
341.05        104.6191
341.50        104.5485
341.95        104.4847
342.40         104.694
342.85        105.2251
343.30        106.0092
343.75        106.8797
344.20        107.5201
344.66        107.8396
345.11        107.9106
345.56        107.8188
346.01        107.7007
346.46        107.6235
346.91        107.5506
347.36        107.5287
347.81        107.6356
348.26         107.882
348.72        108.2743
349.17         108.701
349.62        109.0181
350.07        109.1724
350.52        109.1765
350.97        109.1065
351.42        109.0923
351.87        109.1593
352.32        109.2739
352.77        109.3274
353.22        109.1504
353.67        108.7276
354.13         108.146
354.58        107.5473
355.03        107.2084
355.48        107.1784
355.93        107.3596
356.38        107.5793
356.83        107.5639
357.28        107.2345
357.73        106.6732
358.18        105.9756
358.63        105.2963
359.08        104.6932
359.53        104.1248
359.98        103.5692
360.43        102.9937
360.88        102.3857
361.33        101.7657
361.78        101.1547
362.23        100.5766
362.68        100.0413
363.13        99.54755
363.58        99.05493
364.03        98.50066
364.48        97.87261
364.93        97.18248
365.38        96.49893
365.83        95.93652
366.28        95.50769
366.73        95.16384
367.18        94.81218
367.63        94.30518
368.08        93.62213
368.53        92.84085
368.98        92.02824
369.43        91.27486
369.88        90.61313
370.33        90.00644
370.78        89.49303
371.23        89.13976
371.68        88.94095
372.13        88.87671
372.58          88.825
373.03        88.57593
373.48        88.09325
373.93        87.45409
374.38        86.79066
374.83        86.30634
375.28         86.0464
375.72         85.9226
376.17        85.89053
376.62        85.85355
377.07        85.75388
377.52        85.60053
377.97        85.34328
378.42        84.90433
378.87        84.29861
379.32        83.58532
379.77        82.83234
380.22        82.13374
380.67         81.5115
381.11        80.93002
381.56        80.43479
382.01        80.10007
382.46         79.9335
382.91        79.94182
383.36        79.94575
383.81        79.65775
384.26          79.041
384.71        78.17239
385.15        77.32631
385.60        76.98956
386.05          77.185
386.50        77.75095
386.95        78.33179
387.40        78.32583
387.85        77.64354
388.29        76.52451
388.74         75.4128
389.19        74.62703
389.64        74.22718
390.09        74.03952
390.54        74.04658
390.98        74.22311
391.43        74.50689
391.88        74.89441
392.33        75.14737
392.78        74.88444
393.23        74.11805
393.67        73.03248
394.12        72.05512
394.57        71.44777
395.02        71.35365
395.47        71.89184
395.91        72.86366
396.36        73.55307
396.81         73.7761
397.26        73.75597
397.71        73.58604
398.15        73.21056
398.60        72.75987
399.05        72.46057
399.50        72.22878
399.95        71.28991
400.39        70.21117
400.84        69.84113
401.29        70.23019
401.74        70.47024
402.18        70.41821
402.63        70.24958
403.08         70.1127
403.53        70.27805
403.97        70.74899
404.42        71.27829
404.87        71.64002
405.32        71.54337
405.76        70.92651
406.21        70.06325
406.66          69.204
407.11        68.50509
407.55        68.19191
408.00        68.60631
408.45        69.53931
408.90        70.19685
409.34        70.27844
409.79        69.81989
410.24        69.08945
410.68        68.68875
411.13        68.72295
411.58        68.84399
412.03        68.99191
412.47        69.22382
412.92        69.45225
413.37        69.69704
413.81        69.88174
414.26        69.92775
414.71        69.80599
415.15        69.52273
415.60        69.18359
416.05        68.98444
416.49        68.97822
416.94        69.13498
417.39          69.299
417.83        69.18524
418.28        68.76463
418.73        68.15207
419.17        67.59669
419.62        67.49456
420.07        67.87097
420.51        68.57536
420.96        69.35457
421.41         69.6987
421.85        69.45431
422.30        69.12154
422.74        68.74537
423.19        67.96631
423.64        67.07178
424.08        67.26316
424.53        68.37514
424.98        68.97045
425.42        68.89002
425.87        69.13059
426.31        69.65064
426.76        69.53522
427.21        69.01017
427.65         69.1991
428.10        70.05351
428.54        70.79374
428.99        71.36446
429.44        71.76003
429.88        71.93279
430.33        72.64525
430.77        73.32569
431.22        72.08969
431.66        69.52909
432.11        68.24544
432.56        68.48571
433.00        69.23777
433.45        70.44068
433.89        72.37041
434.34        73.40708
434.78        75.62369
435.23        70.86761
435.67        68.79242
436.12        71.11047
436.57        72.42081
437.01        73.31741
437.46        73.72958
437.90        73.82957
438.35        73.33589
438.79        73.87322
439.24        73.76111
439.68        73.50581
440.13        73.10195
440.57        72.89944
441.02        73.71217
441.46         75.1703
441.91        76.25538
442.35        76.55801
442.80        75.59682
443.24        73.94865
443.69        74.47843
444.13        76.76627
444.58        76.86359
445.02        74.99525
445.47        74.74026
445.91        76.00616
446.36        76.42338
446.80        75.91617
447.24        75.68324
447.69        75.82784
448.13        76.03997
448.58        76.33535
449.02        76.72665
449.47        77.13653
449.91         77.4598
450.36        77.66096
450.80        77.74883
451.25        77.72227
451.69        77.55491
452.13        77.28625
452.58        76.93233
453.02        76.60778
453.47        76.53535
453.91        76.72732
454.36        77.12726
454.80        77.55949
455.24        77.64088
455.69         77.3166
456.13        76.81936
456.58        76.36243
457.02        75.83993
457.46        75.49779
457.91        75.91479
458.35        76.80505
458.79        77.17268
459.24        76.93931
459.68        76.56532
460.13        76.17178
460.57        75.75687
461.01        75.43778
461.46        75.01298
461.90        74.46643
462.34        74.89467
462.79        74.56127
463.23        74.81985
463.68        75.07814
464.12        75.33188
464.56        75.50183
465.01        75.58502
465.45        75.48442
465.89        75.35866
466.34        75.08575
466.78        74.13589
467.22        73.04717
467.67        72.08862
468.11        73.27298
468.55        74.00645
468.99        74.46662
469.44         74.2235
469.88          73.471
470.32        73.30293
470.77        73.69156
471.21        73.69326
471.65        73.27817
472.10        73.13378
472.54         73.2812
472.98        73.38202
473.42         73.3968
473.87        73.63254
474.31        73.92773
474.75        73.59895
475.20        72.87534
475.64        72.82503
476.08        73.39103
476.52        73.49284
476.97        73.05415
477.41        72.90375
477.85        73.23716
478.29        72.70185
478.74        73.32498
479.18        73.88008
479.62        72.17928
480.06        72.45698
480.50        73.11422
480.95        73.58728
481.39        73.11745
481.83        72.82308
482.27        72.55138
482.72         72.4104
483.16        71.14479
483.60        71.43068
484.04        72.99014
484.48        73.55974
484.93        73.68547
485.37        74.85588
485.81         75.4017
486.25        74.16724
486.69        100.3667
487.14        81.07541
487.58        50.78622
488.02        62.20603
488.46        70.68972
488.90        69.84493
489.34        72.15957
489.79        71.14746
490.23        73.56062
490.67        74.10951
491.11        72.61784
491.55        72.57941
491.99        73.48431
492.43        73.39455
492.88        72.35565
493.32        72.12106
493.76        72.24458
494.20        72.46119
494.64        72.51791
495.08        72.82258
495.52        73.30743
495.96        73.12539
496.41        72.40301
496.85        72.94077
497.29        74.36118
497.73        73.33221
498.17        70.90184
498.61        71.05793
499.05        73.80158
499.49        74.37226
499.93        74.31082
500.37        73.85248
500.82        73.00273
501.26        73.00607
501.70         73.6138
502.14        74.04046
502.58        74.05592
503.02        74.00056
503.46        73.84379
503.90        73.34731
504.34        72.72273
504.78        72.41723
505.22        72.48193
505.66        72.87598
506.10         73.4353
506.54        73.56747
506.98        73.11468
507.42        73.42899
507.86        72.59843
508.30        72.44442
508.74        72.59703
509.18        72.87173
509.62        73.19153
510.06        73.38742
510.50        73.42693
510.94        73.35007
511.38        73.23382
511.82        73.19282
512.26        73.25721
512.70        73.38245
513.14        73.52239
513.58        73.61098
514.02        73.62258
514.46        73.57758
514.90        73.50565
515.34        73.43544
515.78        73.37015
516.22        73.35889
516.66        73.38197
517.10        73.25459
517.54        72.97414
517.98        73.11528
518.42        72.93935
518.86        73.05688
519.30        73.23495
519.74        73.50497
520.18        73.79716
520.62        73.99259
521.06        74.06669
521.50         74.0513
521.93        73.96283
522.37        73.82971
522.81        73.68288
523.25        73.52197
523.69        73.40302
524.13        73.41074
524.57        73.55476
525.01        73.80999
525.45        74.09952
525.89        74.29417
526.32        74.34724
526.76        74.28722
527.20        74.16124
527.64        74.06805
528.08        74.05244
528.52        74.02628
528.96        73.92916
529.40        73.87749
529.83        73.90297
530.27        73.23138
530.71        73.37245
531.15        73.25533
531.59        73.32937
532.03        73.51376
532.46        73.78305
532.90        74.05904
533.34        74.28825
533.78        74.48889
534.22        74.61215
534.66        74.59528
535.09        74.42783
535.53        74.15647
535.97        73.85045
536.41        73.64574
536.85        73.58207
537.28        73.63097
537.72        73.73141
538.16        73.79259
538.60         73.7867
539.04        73.68406
539.47        73.52555
539.91        73.56979
540.35        73.74892
540.79        73.73146
541.22        73.52681
541.66        73.45062
542.10        73.50282
542.54         73.4957
542.97        73.44592
543.41        73.49217
543.85        73.62609
544.29        73.83028
544.72        73.99142
545.16        73.95712
545.60        73.69582
546.04         73.2781
546.47        72.88876
546.91        72.77569
547.35        73.01253
547.79         73.6639
548.22        74.40633
548.66         74.6088
549.10        74.17155
549.53        73.33443
549.97        72.47363
550.41         72.0454
550.84        72.16225
551.28        72.73254
551.72        73.53708
552.15         73.8295
552.59        73.98395
553.03        73.93132
553.46        73.57095
553.90        73.40189
554.34        73.37711
554.77        73.36149
555.21        73.31573
555.65         73.3447
556.08        73.62479
556.52        73.10696
556.96        73.52744
557.39        73.40614
557.83        73.29014
558.27        73.23338
558.70        73.28875
559.14        73.35323
559.57        73.58369
560.01        73.85396
560.45        74.12106
560.88        74.32616
561.32        74.39231
561.75        74.02811
562.19        73.43196
562.63        73.02234
563.06        72.89583
563.50        73.03358
563.93        73.32182
564.37         73.5104
564.80        73.52396
565.24         73.5769
565.68        73.64574
566.11        73.55989
566.55        73.41992
566.98        73.39023
567.42        73.49496
567.85        73.69227
568.29         73.9729
568.72        73.99416
569.16        73.94834
569.60        74.35155
570.03         74.8326
570.47        74.75271
570.90        74.47634
571.34        72.66611
571.77        73.55157
572.21          73.937
572.64        73.43027
573.08        72.11799
573.51        69.12526
573.95        71.76889
574.38        76.29176
574.82        74.38653
575.25        73.90674
575.69        71.37462
576.12        70.12987
576.56        69.52241
576.99        70.67032
577.42        74.38216
577.86        74.56223
578.29        73.79182
578.73        77.61414
579.16         71.4528
579.60        65.37824
580.03        68.31031
580.47        72.58672
580.90        74.43226
581.33        73.09039
581.77        72.11249
582.20        79.35809
582.64         79.1601
583.07        67.58572
583.51        66.23691
583.94        64.80968
584.37        67.81686
584.81         71.2544
585.24        75.10648
585.68        76.80335
586.11        75.79459
586.54         70.4616
586.98        68.26713
587.41        68.74052
587.85        72.19517
588.28         75.1234
588.71        71.87534
589.15         68.8708
589.58        70.86237
590.01         70.6481
590.45        72.03687
590.88        72.92529
591.31        72.26361
591.75        71.67657
592.18        71.68941
592.61        73.38356
593.05        73.49862
593.48        76.89204
593.91        77.53582
594.35        71.78863
594.78        70.09244
595.21        69.41282
595.65         72.3772
596.08        75.32774
596.51         72.5051
596.94        70.35375
597.38        71.03117
597.81        73.91415
598.24        75.74389
598.68        74.16595
599.11        72.91917
599.54         75.8331
599.97        77.23835
600.41        71.85475
600.84        71.96871
601.27        73.50237
601.70        72.50047
602.14        72.50657
602.57        71.52489
603.00        72.21424
603.43        73.77695
603.87         75.1969
604.30        75.03814
604.73        72.60493
605.16        71.04792
605.60        72.07108
606.03        73.26148
606.46        74.39803
606.89        74.14909
607.32        71.74574
607.76        71.84822
608.19        74.10662
608.62        73.39178
609.05        72.13934
609.48        72.60847
609.92        72.33211
610.35        71.86359
610.78        74.21609
611.21        74.99218
611.64        71.62766
612.07        72.42231
612.50         72.9431
612.94        73.41499
613.37        72.71394
613.80        72.94478
614.23        73.25214
614.66        73.11217
615.09        73.31885
615.52        73.32693
615.96        73.26074
616.39        73.37868
616.82        72.43983
617.25        72.15186
617.68        73.06587
618.11         73.5873
618.54        73.72436
618.97        73.34779
619.40        72.26654
619.84        72.36204
620.27        73.35887
620.70        74.05431
621.13        74.20535
621.56        73.54056
621.99        72.43501
622.42        73.12732
622.85        75.07832
623.28        74.83988
623.71        73.96946
624.14        73.85364
624.57        73.83343
625.00        73.44333
625.43        73.92509
625.86        73.33954
626.29        73.46143
626.72        74.30089
627.15        73.80965
627.58         73.8917
628.01        73.80931
628.44        74.15082
628.87        74.13468
629.30        74.41303
629.73        74.70389
630.16         74.9541
630.59        74.51743
631.02        74.08305
631.45        73.61418
631.88        73.26929
632.31        73.10127
632.74        73.16384
633.17        73.24713
633.60        73.36805
634.03        73.44115
634.46        73.50803
634.89        73.56345
635.32        73.59949
635.75        73.61964
636.18        73.60545
636.61        73.58959
637.04        73.63775
637.47        73.75604
637.89         73.9348
638.32        74.08998
638.75        74.13129
639.18        74.03629
639.61        73.84363
640.04        73.60825
640.47        73.41532
640.90         73.2983
641.33        73.23152
641.76        73.18445
642.18        73.21117
642.61        73.29964
643.04        73.27298
643.47        73.08305
643.90        73.59959
644.33        73.30058
644.76        73.41335
645.18         73.4665
645.61        73.45354
646.04        73.35503
646.47        73.16525
646.90        72.99815
647.33        72.98396
647.75        73.16768
648.18         73.5562
648.61        73.90819
649.04        73.86507
649.47        73.39121
649.89        72.42097
650.32        71.43198
650.75        71.45224
651.18        72.38734
651.61        73.15823
652.03        73.38892
652.46        73.32199
652.89        73.32107
653.32        72.84062
653.74        72.00352
654.17        73.87121
654.60        74.55211
655.03        72.20794
655.46        72.52716
655.88        76.80479
656.31        82.01387
656.74        184.1462
657.16        119.7337
657.59        42.22837
658.02        31.77254
658.45        55.30038
658.87        70.72977
659.30        73.72149
659.73        72.98079
660.15        70.66685
660.58        73.02247
661.01        74.93826
661.44        72.69231
661.86        71.82049
662.29        71.56266
662.72        72.41714
663.14        74.08899
663.57        74.12876
664.00        72.79128
664.42        72.51627
664.85        73.37796
665.27        73.82716
665.70        73.65534
666.13         73.3992
666.55         73.0545
666.98        72.46771
667.41        71.84774
667.83        71.59306
668.26        71.78489
668.69        72.27789
669.11        72.80506
669.54        73.28598
669.96        72.94321
670.39        72.45522
670.82        71.87025
671.24        71.62409
671.67        71.83894
672.09        72.35428
672.52        72.85693
672.94        73.37199
673.37        72.63069
673.80        72.35359
674.22        72.26017
674.65        72.12936
675.07        71.96762
675.50        71.78379
675.92        71.65159
676.35        71.71988
676.77        71.99658
677.20        72.35649
677.62        72.70494
678.05        72.89112
678.47         72.8641
678.90        72.68203
679.32         72.4498
679.75        72.20234
680.17        72.26782
680.60        72.37225
681.02        72.50238
681.45        72.46992
681.87        72.25338
682.30        71.92992
682.72        71.63199
683.15        71.54198
683.57        71.73412
684.00        72.13335
684.42        72.72308
684.85        73.01962
685.27        72.97964
685.70        72.77562
686.12        72.49769
686.54        72.24837
686.97        72.10309
687.39        72.17993
687.82        72.37853
688.24        72.45549
688.66        72.35567
689.09        72.21024
689.51        72.11311
689.94        72.14667
690.36        72.34301
690.78         72.6281
691.21        72.90439
691.63        73.10165
692.06        73.14967
692.48        72.93217
692.90        72.58215
693.33        72.44229
693.75        72.56699
694.17        72.81189
694.60        73.07784
695.02        73.24609
695.44        73.24068
695.87        73.21974
696.29        73.24617
696.71        72.99667
697.14        72.65733
697.56        73.03747
697.98        74.16909
698.41         73.9477
698.83        73.22368
699.25        72.76199
699.68        72.85338
700.10        72.82366
700.52        72.68581
700.94        72.82234
701.37        73.16256
701.79         73.4837
702.21        73.69817
702.64        73.87666
703.06          73.955
703.48        73.82163
703.90        73.49044
704.33        73.00143
704.75        72.48602
705.17        72.24632
705.59        72.35854
706.01        72.62411
706.44        72.89955
706.86        73.57765
707.28        73.60883
707.70        73.79261
708.12        73.84783
708.55        73.80448
708.97        73.65775
709.39        73.40907
709.81        73.14828
710.23        73.02242
710.66        73.07161
711.08        73.29266
711.50        73.54878
711.92        73.62971
712.34        73.49022
712.76        73.18235
713.19        72.85855
713.61        72.79765
714.03        73.04348
714.45        73.50742
714.87        73.99076
715.29        74.18027
715.71        74.00787
716.13        73.57973
716.56        73.08432
716.98        72.83689
717.40        72.91123
717.82          73.241
718.24        73.69276
718.66        73.84245
719.08        73.92818
719.50        73.77782
719.92        73.55103
720.34        73.36267
720.76        73.26279
721.19        73.08973
721.61        73.07791
722.03        73.10654
722.45        73.23431
722.87        73.44913
723.29        73.70211
723.71        73.89458
724.13        73.98765
724.55        74.01528
724.97        74.00828
725.39        73.96861
725.81         73.9013
726.23        74.02753
726.65        73.93419
727.07         73.9389
727.49        73.92473
727.91        73.92336
728.33        73.93414
728.75          73.959
729.17        73.99976
729.59        74.03764
730.01        74.10507
730.43        74.24533
730.85        74.46162
731.27         74.7653
731.69        75.04985
732.10        75.12249
732.52        74.94975
732.94        74.62791
733.36         74.3371
733.78        74.25954
734.20        74.44423
734.62        75.09138
735.04        75.91321
735.46        76.00645
735.88        75.09544
736.30        75.32487
736.72        76.49287
737.13        76.90725
737.55        76.33207
737.97        76.18253
738.39        76.50698
738.81        75.83653
739.23        74.63075
739.65         75.5406
740.06        77.99689
740.48        78.26148
740.90        76.41745
741.32        75.46176
741.74         75.7325
742.16         75.9025
742.57        76.05218
742.99        76.94729
743.41         78.2747
743.83        79.05737
744.25        79.10945
744.67        78.68885
745.08        78.09239
745.50        77.80566
745.92        77.98438
746.34        78.45462
746.75        79.02973
747.17        79.40152
747.59        79.50497
748.01        79.44871
748.42        79.38591
748.84        79.57048
749.26        80.06776
749.68        80.63796
750.09        81.16468
750.51        81.76545
750.93        82.24935
751.35         81.9523
751.76        81.09908
752.18        80.79867
752.60        81.05694
753.01        81.07232
753.43        80.86941
753.85        80.98141
754.27        81.41026
754.68        82.28132
755.10        82.77345
755.52        83.34765
755.93        83.71942
756.35        83.87141
756.77        83.90953
757.18        83.88107
757.60        83.81273
758.02        84.08105
758.43        84.45776
758.85         83.6677
759.26        82.16252
759.68        82.14116
760.10        83.40439
760.51        83.74882
760.93        82.96946
761.34        82.15047
761.76        81.93722
762.18        81.61589
762.59        81.45192
763.01        81.68581
763.42        82.34758
763.84        82.94758
764.26        83.40858
764.67        83.86914
765.09        84.18035
765.50        84.04562
765.92        83.47712
766.33         82.4018
766.75        81.24754
767.16        80.78522
767.58        81.19781
768.00        82.58083
768.41        84.56719
768.83        85.80379
769.24        85.82313
769.66        85.11643
770.07        84.10552
770.49         82.7132
770.90        81.37292
771.32        82.09679
771.73        84.24539
772.15        83.65313
772.56        80.82978
772.97        80.34561
773.39        82.07961
773.80        82.68813
774.22        81.93596
774.63        81.84051
775.05        82.37998
775.46        82.67744
775.88        82.63536
776.29        82.49742
776.70        82.32748
777.12        82.26298
777.53        82.35329
777.95        82.49737
778.36        82.59377
778.77        82.46445
779.19        82.12456
779.60        81.63878
780.02        81.19302
780.43        81.15927
780.84         81.6549
781.26        82.10757
781.67        82.46356
782.09         83.5942
782.50        84.95544
782.91        83.97238
783.33        81.57114
783.74        80.75661
784.15        81.76093
784.57        82.49097
784.98        82.60749
785.39         82.6244
785.81        82.45363
786.22        81.80274
786.63         81.0694
787.04        80.99749
787.46        81.67069
787.87        82.85327
788.28        84.12614
788.70        84.77729
789.11        84.62476
789.52        83.90406
789.93        83.00016
790.35        82.45565
790.76        82.42542
791.17        82.80614
791.58        83.34792
792.00        83.58264
792.41        83.38172
792.82        82.89975
793.23         82.4688
793.65        82.23895
794.06        82.40079
794.47        83.71902
794.88        85.37263
795.29        84.90943
795.71        82.56418
796.12        80.33358
796.53        78.92155
796.94        78.45697
797.35        79.04214
797.76        80.31924
798.18        81.69021
798.59        82.65955
799.00        82.86862
799.41        82.16984
799.82        81.00248
800.23        80.33769
800.64        80.38233
801.06        80.75658
801.47        81.31994
801.88        81.73663
802.29         81.8782
802.70        81.89761
803.11        81.84382
803.52        81.76136
803.93        81.69419
804.34        81.57591
804.75        81.48501
805.17        81.65017
805.58        82.13316
805.99        82.59175
806.40        82.82829
806.81         83.2164
807.22        83.35565
807.63        81.78004
808.04         79.2088
808.45         78.1089
808.86        78.73533
809.27        79.92866
809.68        81.16711
810.09        81.94562
810.50        81.97378
810.91        81.42226
811.32        80.61878
811.73        80.09907
812.14        80.02295
812.55         80.1768
812.96        80.49734
813.37        80.87342
813.78        81.21926
814.19        81.63636
814.60        81.90497
815.01        81.66011
815.42        80.87839
815.83        79.62589
816.24        78.37585
816.65         77.9703
817.05        78.65322
817.46        80.15513
817.87        81.86259
818.28        82.66515
818.69        82.25559
819.10        80.90822
819.51        79.29686
819.92        78.57063
820.33        79.02834
820.74        80.31115
821.14        81.78295
821.55        82.31423
821.96        81.66568
822.37        80.24435
822.78        78.62587
823.19        77.64507
823.60        77.53027
824.00        78.06766
824.41        78.88379
824.82        79.46542
825.23        79.58749
825.64        79.44578
826.04         79.1869
826.45         79.0128
826.86        78.98291
827.27        78.96941
827.68        78.96862
828.08        79.04057
828.49         79.1149
828.90        79.26196
829.31        79.34941
829.72         79.1216
830.12        78.58228
830.53        77.81785
830.94        77.13924
831.35        76.96119
831.75         77.4025
832.16        78.28794
832.57        79.40095
832.97        80.26638
833.38        80.62737
833.79        80.59407
834.20        80.36167
834.60        80.24249
835.01        80.34634
835.42        80.56049
835.82        80.72089
836.23        80.48537
836.64        79.83994
837.04        78.94604
837.45        78.07316
837.86        77.63158
838.26        77.72569
838.67         78.1917
839.08        78.83503
839.48        79.29124
839.89        79.39212
840.29        79.25979
840.70        78.95782
841.11        78.56596
841.51        78.15057
841.92        77.66824
842.33        77.23893
842.73        77.08227
843.14        77.20128
843.54        77.57829
843.95        78.02201
844.35        78.26319
844.76        78.20908
845.17         77.9543
845.57        77.60333
845.98        77.33513
846.38        77.20764
846.79        77.13341
847.19        77.14233
847.60        77.19849
848.00        77.31844
848.41        77.49451
848.81        77.67633
849.22        77.70347
849.62        77.60641
850.03        77.42342
850.43        77.30177
850.84        77.42458
851.24        77.87794
851.65        78.40601
852.05        79.04756
852.46        79.68304
852.86        80.24947
853.27        80.82549
853.67        80.95757
854.07        80.07434
854.48        78.25285
854.88        75.70319
855.29        73.31829
855.69        72.39165
856.10        73.16651
856.50        75.50338
856.90        78.53668
857.31        80.25569
857.71        80.02335
858.12        78.34593
858.52        76.24643
858.92        75.08941
859.33        75.16051
859.73        76.09547
860.13        77.50105
860.54        78.55006
860.94        78.96716
861.34        78.97417
861.75        78.78399
862.15        78.81717
862.55        79.15604
862.96        79.62055
863.36        80.10707
863.76         80.4257
864.17        80.51258
864.57        80.51068
864.97        80.48994
865.38        80.52549
865.78         80.6954
866.18        80.89049
866.58        81.13472
866.99        81.46593
867.39        81.93082
867.79        82.55057
868.19        83.07668
868.60         83.0377
869.00        82.35152
869.40         81.1393
869.80        80.03864
870.21        80.03726
870.61        81.42346
871.01        83.91216
871.41        86.64877
871.81         88.1685
872.22        88.08704
872.62         86.8231
873.02        85.26041
873.42         84.9323
873.82        86.01467
874.22        87.81925
874.63        89.79144
875.03        90.69086
875.43         89.9682
875.83        88.80078
876.23        86.70387
876.63        85.90929
877.03        86.56739
877.44        88.91586
877.84        102.0685
878.24        97.08443
878.64        96.86597
879.04        95.41201
879.44        91.61419
879.84        89.44842
880.24        92.20671
880.64        93.90176
881.04        94.94767
881.44        95.41432
881.84        94.70238
882.24         93.1841
882.65        91.82932
883.05         91.6157
883.45        92.71892
883.85        95.00339
884.25        97.70793
884.65        99.30302
885.05        99.28456
885.45        98.16386
885.85        96.68127
886.25        95.85124
886.65        95.92218
887.05        96.55779
887.45        97.46474
887.85        98.13368
888.25        98.35168
888.65        98.32468
889.04        98.10999
889.44        97.81524
889.84        97.47991
890.24        97.02238
890.64        96.55035
891.04        96.26017
891.44        96.16734
891.84        96.25166
892.24        96.31998
892.64        96.00574
893.04        95.30765
893.44        94.45499
893.83        93.72094
894.23        93.49833
894.63        93.84264
895.03        94.55836
895.43        95.63455
895.83        97.01571
896.23         98.5486
896.63        100.2224
897.02        101.5043
897.42        101.5588
897.82        100.3215
898.22        98.09368
898.62        95.78344
899.01        94.73385
899.41        95.23073
899.81        96.82764
900.21        98.80092
900.61        99.95715
901.00        99.94525
901.40        99.14725
901.80        98.00802
902.20        97.21304
902.59        96.97738
902.99        97.07149
903.39         97.2653
903.79        97.19219
904.18         96.7635
904.58        96.19278
904.98        95.72015
905.38        95.68522
905.77         96.1091
906.17        96.79924
906.57        97.52598
906.96        98.01814
907.36         98.1334
907.76        97.98753
908.15        97.58208
908.55        96.81203
908.95        95.78319
909.34        94.51646
909.74        93.35835
910.14         92.6674
910.53        92.55615
910.93        92.99527
911.33        93.78491
911.72        94.53872
912.12        95.01875
912.52        95.24767
912.91        95.39386
913.31        95.71278
913.70        96.30299
914.10         97.1005
914.49        97.78716
914.89        97.53899
915.29        96.20909
915.68        94.13274
916.08         92.3028
916.47        91.58315
916.87        92.04705
917.26        93.42087
917.66        94.94005
918.05        95.38091
918.45        94.45212
918.84        92.60633
919.24        90.69479
919.64         89.9548
920.03        90.69709
920.42        92.50794
920.82        94.75911
921.21        96.47442
921.61        97.11673
922.00        97.03909
922.40        96.40759
922.79        95.44528
923.19         94.3491
923.58          92.964
923.98        91.47629
924.37        90.66408
924.77        90.92415
925.16        90.28802
925.55        91.91316
925.95        92.97802
926.34        94.27984
926.74        95.54606
927.13        96.57231
927.52        96.73988
927.92        96.04652
928.31        94.72285
928.70        93.06567
929.10         91.6148
929.49         90.5298
929.89        89.72457
930.28        89.48329
930.67        90.25486
931.07        91.90735
931.46        94.33427
931.85        96.64054
932.24        97.50875
932.64        96.68936
933.03        94.39272
933.42        91.31985
933.82        89.10084
934.21         88.2604
934.60        88.43116
934.99        88.94025
935.39        89.01897
935.78        88.53719
936.17         87.3871
936.56         85.4508
936.96        86.00762
937.35        85.02304
937.74        85.65549
938.13        86.40147
938.53        87.40598
938.92        88.69739
939.31        90.42465
939.70        92.12528
940.09        92.46461
940.49         91.1137
940.88        88.67543
941.27        86.25893
941.66        85.16599
942.05        85.55036
942.44        87.00046
942.84        89.01015
943.23        90.74184
943.62        91.72393
944.01        92.12556
944.40        92.06736
944.79        91.75074
945.18        91.25245
945.57        90.46587
945.97        89.26958
946.36        87.68589
946.75         86.0729
947.14        84.73042
947.53        83.99162
947.92        84.06519
948.31         84.8806
948.70        86.40473
949.09        88.27303
949.48        89.54975
949.87        89.77839
950.26        89.10024
950.65        88.06631
951.04        87.60159
951.43        87.93266
951.82        88.78896
952.21        89.67406
952.60        89.79715
952.99        88.97018
953.38        87.48321
953.77        85.87875
954.16        84.90128
954.55        84.72057
954.94        85.17903
955.33        85.73375
955.72        85.47768
956.11        84.22235
956.50        82.22437
956.89        80.32183
957.28        80.03444
957.66         81.8032
958.05        84.86642
958.44        88.13258
958.83        89.99002
959.22        90.01575
959.61        88.64558
960.00        86.48461
960.39        84.53094
960.78        83.17596
961.16        82.21481
961.55        81.44247
961.94        80.55322
962.33        79.52491
962.72         78.5937
963.11        78.04072
963.49        78.16792
963.88         78.9933
964.27        80.45099
964.66        82.11955
965.04        83.10934
965.43        82.97558
965.82        81.98484
966.21        80.82874
966.60         80.4584
966.98        81.04079
967.37        82.26091
967.76        83.55373
968.15        83.83289
968.53        82.82483
968.92        80.95359
969.31        78.90704
969.69         77.5367
970.08        77.03593
970.47        77.17955
970.86        77.59915
971.24        77.65693
971.63        77.14577
972.02        76.24329
972.40        75.38892
972.79        75.32938
973.17        76.36742
973.56        78.15505
973.95         80.0903
974.33        81.03922
974.72        80.56551
975.11        79.01881
975.49        77.19746
975.88        76.19775
976.26         76.1926
976.65        77.00452
977.04        77.90069
977.42        77.21969
977.81        74.59131
978.19        70.79643
978.58        67.81187
978.96         67.6563
979.35         70.6069
979.74        76.29678
980.12        83.47067
980.51        87.95148
980.89        88.28435
981.28        85.58924
981.66        81.83721
982.05        79.58655
982.43        79.30563
982.82        80.12091
983.20        81.60774
983.59        83.28315
983.97        84.99309
984.35        86.99686
984.74         88.8024
985.12        89.55423
985.51        88.60612
985.89        86.02452
986.28        82.36597
986.66        78.59586
987.04        75.56032
987.43        73.43196
987.81        72.01283
988.20        70.81844
988.58        69.53873
988.96        67.89894
989.35        66.57476
989.73        67.92411
990.12        72.62888
990.50        79.10182
990.88        83.69357
991.27        84.05785
991.65        80.81832
992.03        74.62121
992.42         67.9242
992.80        65.25156
993.18         67.7658
993.56        73.10999
993.95        78.60873
994.33        81.71625
994.71        82.00549
995.10        80.68098
995.48        78.45107
995.86         76.1775
996.24        74.22317
996.63        72.12163
997.01        70.23239
997.39         70.0182
997.77        71.94849
998.15        75.71328
998.54        79.48224
998.92        80.97436
999.30        79.42014
999.68        75.39225
1000.06        69.83177
1000.45        65.29839
1000.83        62.95213
1001.21         62.1501
1001.59        62.55654
1001.97        63.80268
1002.35        65.64697
1002.73        68.56927
1003.12        71.53767
1003.50        71.39913
1003.88        67.06689
1004.26        60.39049
1004.64         54.2313
1005.02        50.77729
1005.40        50.05563
1005.78        51.66136
1006.16        56.68513
1006.54        64.55979
1006.92        71.09332
1007.30        74.80666
1007.69        76.27271
1008.07        76.87138
1008.45        77.06508
1008.83        76.20662
1009.21        72.10526
1009.59        56.64416
1009.97        11.66523
1010.35       -52.44437
1010.73       -44.67538
1011.11       -8.322479
1011.49         17.6305
1011.86        36.68653
1012.24        47.47646
1012.62        52.07505
1013.00        52.94301
1013.38        51.02181
1013.76        47.64693
1014.14        47.80206
1014.52        55.61261
1014.90        71.79548
1015.28        92.04813
1015.66        103.1647
1016.04        96.93926
1016.41        76.20246
1016.79        52.16935
1017.17         36.4752
1017.55        30.64612
1017.93        29.56912
1018.31        30.94773
1018.69         34.2416
1019.06         39.3562
1019.44         46.6525
1019.82        57.71807
1020.20        71.62845
1020.58        85.72237
1020.95        98.85149
1021.33        97.67038
1021.71        332.2847
1022.09        154.4192
1022.46        150.6825
1022.84        153.9141
1023.22        163.4939
1023.60        190.4275
1023.97         455.043
1024.35        9.484635
1024.73        62.72121
