SpectraSmart Spectrum 2.9.0.0
--------- Device Information -----------
Spectrum Name :  反射率_0
Saving Time :  2024/04/26 01:30:45
Spectro-Module Model Name : SE2030-DUVN
Spectro-Module Serial Number : OS361AC55029948
Wavelength Start : 200
Wavelength End : 1025
Wavelength Unit : Wavelength(nm)
Spectrum Unit : Reflectance(%)
-----------Spectrum Setting ------------
Integration Time : 20ms
Average : 10
Boxcar : 0
Background removal :  enabled
linearity correction :  enabled
SC :  disabled
Intensity correction :  disabled
DWT denoise :  enabled
savitzky-golay :  disabled
FFT :  disabled
Running average :  disabled
Kalman :  disabled
High pass :  disabled
---------------BEGIN--------------------
Wavelength(nm)             Reflectance(%)
200.29               0
200.75        84.69048
201.21        79.10178
201.67        73.23049
202.13        69.42223
202.58        67.94741
203.04        68.53315
203.50        70.45146
203.96        72.40851
204.42        73.77382
204.88        74.62815
205.34         75.5967
205.80        77.78546
206.26         82.1242
206.72         90.7095
207.18        106.1685
207.64        117.2279
208.10         104.162
208.55        83.26331
209.01        70.54645
209.47        65.67436
209.93        64.97404
210.39        66.85799
210.85        69.57858
211.31        69.66216
211.77        66.22494
212.23        60.80933
212.69        55.93695
213.14        55.57727
213.60        60.19903
214.06        68.47518
214.52        78.21352
214.98        86.15329
215.44        90.87427
215.90         93.0033
216.36        92.87598
216.81        90.80936
217.27        87.77974
217.73        84.07391
218.19        79.74422
218.65        74.49963
219.11        67.71601
219.57        58.16193
220.02        46.68375
220.48        39.69313
220.94        40.78202
221.40        48.81703
221.86        56.54884
222.32        56.17976
222.77        48.67018
223.23        38.27869
223.69        29.62645
224.15        27.47407
224.61        31.19143
225.06        38.34011
225.52        45.38388
225.98        47.87173
226.44         45.1175
226.90        39.16362
227.36        32.60486
227.81        28.92271
228.27        29.12885
228.73        31.72461
229.19        35.46274
229.65        38.50211
230.10        40.19955
230.56        41.19108
231.02        41.68151
231.48        41.82298
231.93        41.76606
232.39        41.45501
232.85        41.13155
233.31        41.28259
233.77        41.98759
234.22        43.12898
234.68        44.48072
235.14        45.42886
235.60        45.75217
236.05        45.67386
236.51        45.34505
236.97        44.96147
237.43        44.65676
237.88         44.4055
238.34        44.51884
238.80        45.85093
239.26        48.63839
239.71        52.75464
240.17        57.11135
240.63        60.26876
241.08        61.83555
241.54        61.99455
242.00        61.52509
242.46        61.67833
242.91        63.33469
243.37        67.48226
243.83        80.71278
244.28        125.4159
244.74        179.2167
245.20        154.4328
245.66         129.307
246.11        122.0174
246.57        125.2088
247.03        141.4488
247.48        189.5032
247.94        160.4306
248.40        107.6325
248.85        91.97421
249.31        87.76683
249.77        87.73365
250.22        90.07258
250.68        94.83914
251.14        101.4323
251.59        104.1083
252.05        98.38531
252.51        87.76155
252.96        77.49796
253.42        72.24545
253.88        71.32212
254.33        72.91122
254.79        76.79401
255.25        81.94215
255.70        87.03733
256.16        91.97768
256.62        95.00598
257.07        94.35761
257.53        90.99569
257.99        85.58168
258.44        79.93867
258.90        77.17398
259.35        76.40367
259.81        76.57951
260.27        75.86886
260.72        72.48918
261.18        67.26076
261.63         61.0218
262.09        55.34392
262.55         51.3486
263.00        49.00458
263.46          47.814
263.91        46.97039
264.37        45.91011
264.83        44.40377
265.28        42.55174
265.74        40.74055
266.19        39.29625
266.65        38.43385
267.11        37.93444
267.56        37.47525
268.02        36.65713
268.47        35.37038
268.93        33.75605
269.38        32.04529
269.84        30.85887
270.30        30.35737
270.75        30.38188
271.21        30.57522
271.66        30.40245
272.12        29.72025
272.57        28.68352
273.03        27.61342
273.48        26.91219
273.94         26.6882
274.39        26.76403
274.85        26.85958
275.31        26.56252
275.76        25.79768
276.22        24.74622
276.67        23.68265
277.13        23.08398
277.58        22.97686
278.04        23.21365
278.49        23.46533
278.95        23.32784
279.40        22.71402
279.86        21.82776
280.31        20.88589
280.77        20.31458
281.22        20.15292
281.68        20.26411
282.13        20.45159
282.59         20.4706
283.04        20.26177
283.50        19.95144
283.95        19.59464
284.41        19.28176
284.86        19.04732
285.32        18.86451
285.77        18.77891
286.22         18.9222
286.68        19.26638
287.13        19.73756
287.59         20.1675
288.04        20.29993
288.50        20.11054
288.95        19.67069
289.41        19.14088
289.86        18.66791
290.32        18.36229
290.77        18.17779
291.22        18.14253
291.68        18.25682
292.13        18.51793
292.59        18.93235
293.04        19.47732
293.50        20.10705
293.95        20.78403
294.40        21.48044
294.86        22.16544
295.31        22.81352
295.77        23.42557
296.22        24.01021
296.68        24.57817
297.13        25.11926
297.58        25.66027
298.04        26.23122
298.49        26.88528
298.95        27.74013
299.40        28.80584
299.85        30.04496
300.31        31.37361
300.76        32.65911
301.21        33.83379
301.67        34.94709
302.12        35.97622
302.58        36.96725
303.03        37.92386
303.48        38.85455
303.94        39.85954
304.39        41.04575
304.84        42.43709
305.30        44.00012
305.75          45.573
306.20        46.91915
306.66        48.01031
307.11        48.88465
307.57        49.73112
308.02        50.74049
308.47        52.00386
308.93        53.46404
309.38        54.99598
309.83        56.44307
310.29        57.74147
310.74        58.90293
311.19        60.00972
311.65        61.19472
312.10        62.47547
312.55        63.81581
313.00        65.06218
313.46        65.97035
313.91        66.48277
314.36        66.70151
314.82        66.87557
315.27        67.35054
315.72        68.23421
316.18        69.42196
316.63        70.72458
317.08        71.78416
317.53        72.48405
317.99        72.90985
318.44        73.22968
318.89        73.72492
319.35        74.45019
319.80        75.33651
320.25        76.17676
320.70        76.63709
321.16        76.64883
321.61        76.33228
322.06        75.93867
322.51        75.85757
322.97        76.16603
323.42        76.78256
323.87         77.4936
324.32         77.9287
324.78        77.97746
325.23        77.79293
325.68        77.53432
326.13        77.48325
326.59        77.70584
327.04        78.13266
327.49        78.67534
327.94        79.21766
328.39        79.70197
328.85        80.14585
329.30        80.56713
329.75        80.85194
330.20        81.00233
330.66        81.02965
331.11        81.08679
331.56        81.35548
332.01        81.89795
332.46        82.66114
332.92        83.54006
333.37        84.48848
333.82        85.37372
334.27        86.20593
334.72        86.90048
335.17        87.33492
335.63        87.49523
336.08        87.44726
336.53        87.32215
336.98        87.38109
337.43        87.70021
337.88          88.216
338.34        88.84236
338.79         89.5133
339.24        90.14553
339.69        90.78274
340.14        91.34498
340.59        91.68819
341.05        91.79974
341.50        91.70638
341.95        91.58585
342.40        91.73004
342.85        92.20277
343.30        92.93114
343.75         93.7386
344.20        94.30441
344.66        94.54119
345.11        94.52152
345.56        94.39515
346.01        94.38989
346.46        94.57121
346.91        94.87003
347.36        95.19273
347.81        95.40112
348.26         95.4679
348.72        95.46317
349.17        95.44734
349.62        95.56712
350.07        95.83971
350.52        96.19022
350.97        96.52422
351.42         96.7061
351.87        96.70517
352.32         96.5828
352.77        96.36254
353.22        96.08225
353.67        95.77431
354.13        95.43562
354.58        95.12519
355.03        94.99316
355.48        95.04439
355.93        95.23031
356.38        95.38158
356.83        95.22535
357.28        94.70573
357.73        93.90989
358.18        93.00609
358.63        92.26359
359.08        91.76457
359.53        91.44275
359.98         91.1933
360.43        90.85022
360.88        90.35923
361.33        89.75784
361.78        89.13633
362.23        88.63367
362.68        88.28148
363.13        88.04692
363.58        87.77921
364.03        87.24638
364.48        86.41969
364.93        85.37619
365.38        84.35563
365.83        83.74527
366.28        83.60954
366.73        83.80103
367.18        84.04836
367.63         83.9058
368.08        83.27063
368.53         82.3268
368.98        81.24138
369.43        80.26142
369.88        79.48116
370.33        78.80914
370.78        78.31673
371.23        78.12928
371.68        78.23424
372.13        78.60613
372.58        78.99888
373.03        78.98092
373.48         78.4625
373.93        77.57404
374.38        76.59216
374.83        75.95403
375.28        75.76118
375.72        75.85926
376.17        76.09554
376.62        76.19076
377.07        76.04122
377.52        75.72418
377.97        75.28034
378.42        74.77118
378.87        74.24386
379.32        73.69781
379.77        73.14139
380.22        72.58689
380.67        72.03958
381.11        71.50554
381.56        71.04253
382.01        70.74107
382.46        70.61765
382.91        70.65475
383.36        70.71689
383.81        70.59012
384.26        70.23291
384.71         69.6946
385.15        69.13576
385.60        68.86674
386.05         68.8941
386.50        69.11494
386.95        69.31754
387.40        69.15073
387.85        68.58247
388.29        67.76328
388.74        66.99107
389.19        66.43023
389.64        66.11078
390.09        65.91616
390.54        65.87433
390.98        66.03205
391.43        66.35524
391.88         66.8108
392.33        67.14515
392.78        66.98078
393.23        66.32118
393.67        65.29834
394.12        64.33971
394.57        63.84429
395.02        63.89338
395.47        64.33715
395.91        65.00468
396.36        65.48671
396.81        65.65211
397.26        65.58881
397.71        65.36083
398.15        64.99652
398.60        64.61879
399.05         64.2614
399.50        63.94339
399.95        63.40508
400.39        62.99365
400.84         62.7839
401.29        62.82338
401.74        62.81456
402.18        62.74374
402.63        62.71297
403.08        62.79769
403.53        63.02626
403.97        63.39219
404.42        63.86531
404.87        64.24744
405.32        64.20888
405.76        63.69668
406.21        62.87536
406.66        62.03561
407.11         61.6126
407.55        61.70367
408.00        62.15449
408.45         62.7552
408.90        63.06851
409.34        62.94733
409.79        62.55891
410.24        62.07747
410.68        61.73257
411.13        61.60605
411.58         61.5961
412.03        61.70087
412.47        61.94299
412.92        62.25285
413.37        62.65117
413.81        63.01268
414.26        63.17989
414.71        63.10646
415.15        62.81921
415.60        62.44728
416.05        62.22861
416.49        62.23013
416.94        62.40662
417.39        62.60019
417.83           62.53
418.28        62.15706
418.73        61.58567
419.17        61.05846
419.62        60.95558
420.07        61.31538
420.51        62.00751
420.96        62.76041
421.41        63.09562
421.85        62.87939
422.30        62.42381
422.74        61.89122
423.19        61.46547
423.64        61.26344
424.08        61.56804
424.53        62.23793
424.98        62.72686
425.42        62.93504
425.87        63.24432
426.31        63.63046
426.76        63.64618
427.21         63.4455
427.65        63.67768
428.10        64.30997
428.54        64.91773
428.99        65.45972
429.44         65.8119
429.88        65.92352
430.33        66.43958
430.77        66.89878
431.22        65.78094
431.66        63.74158
432.11        62.52218
432.56         62.4871
433.00        63.27244
433.45        64.77961
433.89        66.69137
434.34        67.59045
434.78        68.95832
435.23         65.5815
435.67        63.16113
436.12         66.0679
436.57        67.02837
437.01        67.25135
437.46        68.00034
437.90        67.82117
438.35        67.45332
438.79        67.94296
439.24        67.88003
439.68        67.74648
440.13        67.47256
440.57         67.3714
441.02        68.27811
441.46        69.80907
441.91        70.66271
442.35        70.59016
442.80        69.80499
443.24        68.70264
443.69        69.09012
444.13        70.64755
444.58        70.53571
445.02        68.99986
445.47        68.90332
445.91        70.12524
446.36        70.58509
446.80        70.18937
447.24        70.06255
447.69        70.20761
448.13        70.38753
448.58        70.59518
449.02        70.85641
449.47        71.13223
449.91        71.37714
450.36        71.57269
450.80        71.71352
451.25        71.77238
451.69        71.67868
452.13        71.45404
452.58        71.12949
453.02        70.83275
453.47        70.75854
453.91        70.91738
454.36        71.34414
454.80        71.92075
455.24        71.83207
455.69        71.65539
456.13        71.29066
456.58        71.20947
457.02        70.25825
457.46        70.31617
457.91        71.00538
458.35         71.2485
458.79        71.53081
459.24        71.41363
459.68        71.12899
460.13        70.75001
460.57        70.44949
461.01        70.36082
461.46        69.94331
461.90        69.59065
462.34         70.1645
462.79        69.78773
463.23        69.89091
463.68        70.13079
464.12        70.31364
464.56        70.46592
465.01        70.65234
465.45        70.68803
465.89        70.53013
466.34        70.14542
466.78        69.13509
467.22        68.01825
467.67        67.72521
468.11        69.00854
468.55        69.68201
468.99        69.67659
469.44        69.30947
469.88        68.79089
470.32        68.74341
470.77        69.10448
471.21        69.09822
471.65        68.69322
472.10        68.51176
472.54        68.58418
472.98         68.6377
473.42        68.65285
473.87        68.83441
474.31        69.05971
474.75        68.91331
475.20        68.50796
475.64        68.41334
476.08        68.65042
476.52        68.63509
476.97        68.32906
477.41        68.34411
477.85        68.76655
478.29         68.1199
478.74         68.6772
479.18         68.8699
479.62         67.8894
480.06         68.5358
480.50        68.91714
480.95        69.26863
481.39        69.09561
481.83        68.53865
482.27        68.37323
482.72        68.06493
483.16        66.75466
483.60        66.99984
484.04        68.39836
484.48        69.02981
484.93         69.3457
485.37        70.42575
485.81        70.62684
486.25        70.05287
486.69        94.33482
487.14        76.20197
487.58        47.69735
488.02        58.80762
488.46        66.61092
488.90        66.04839
489.34         67.7303
489.79         66.5334
490.23        68.66205
490.67         69.7058
491.11        69.20244
491.55        69.14492
491.99         69.1787
492.43        68.85302
492.88        68.29537
493.32        68.30917
493.76        68.38446
494.20        68.58393
494.64        68.67261
495.08        68.82945
495.52        69.04965
495.96         68.9786
496.41        68.60891
496.85        68.81203
497.29        69.40276
497.73        68.33473
498.17        66.52356
498.61        66.86677
499.05        69.31175
499.49        69.69836
499.93        69.56922
500.37        69.36289
500.82        69.00103
501.26        69.13818
501.70        69.49461
502.14        69.98743
502.58        69.81616
503.02        69.72884
503.46        69.52932
503.90        69.04992
504.34        68.47296
504.78        68.19646
505.22        68.27785
505.66        68.65027
506.10        69.17589
506.54        69.38557
506.98         69.1427
507.42        69.35715
507.86        68.95119
508.30        68.59611
508.74        68.84186
509.18        68.96131
509.62        69.12366
510.06        69.19973
510.50        69.17725
510.94        69.08591
511.38        68.98065
511.82        68.95809
512.26        69.03995
512.70        69.19057
513.14        69.36517
513.58        69.51073
514.02        69.60074
514.46        69.61675
514.90        69.57529
515.34        69.62356
515.78        69.54369
516.22         69.5694
516.66        69.61069
517.10        69.45798
517.54         69.1087
517.98        69.22396
518.42        68.97683
518.86        69.08739
519.30         69.2941
519.74        69.62979
520.18        69.99581
520.62        70.22374
521.06        70.28032
521.50        70.21381
521.93        70.06583
522.37        69.90779
522.81        69.78104
523.25         69.6664
523.69        69.60883
524.13        69.67718
524.57        69.87289
525.01         70.1784
525.45        70.50188
525.89        70.68908
526.32        70.69342
526.76        70.55109
527.20        70.34563
527.64        70.23274
528.08        70.26746
528.52        70.34809
528.96        70.37442
529.40        70.39008
529.83        70.40753
530.27        69.70565
530.71        69.75986
531.15        69.60902
531.59        69.69514
532.03        69.92842
532.46        70.24329
532.90         70.4984
533.34         70.6338
533.78        70.69387
534.22        70.69566
534.66        70.67313
535.09        70.62896
535.53        70.57005
535.97        70.49474
536.41        70.42658
536.85        70.37626
537.28        70.35178
537.72        70.33896
538.16         70.3231
538.60        70.30304
539.04        70.22795
539.47        70.12466
539.91        70.22346
540.35        70.45005
540.79        70.49221
541.22        70.35123
541.66        70.31502
542.10        70.37806
542.54        70.35937
542.97        70.27593
543.41        70.26584
543.85        70.32871
544.29          70.454
544.72        70.53944
545.16        70.45599
545.60        70.17963
546.04        69.74734
546.47        69.34711
546.91        69.29459
547.35         69.6216
547.79        70.24876
548.22        70.88372
548.66        71.03147
549.10         70.6313
549.53        69.93985
549.97         69.2595
550.41        68.90356
550.84        68.97552
551.28        69.39783
551.72        69.98584
552.15        70.38429
552.59        70.48188
553.03         70.4314
553.46        70.28415
553.90        70.16489
554.34        70.09027
554.77        70.26653
555.21        70.12601
555.65        70.15838
556.08        70.45617
556.52        69.95225
556.96        70.33398
557.39        70.24108
557.83        70.18591
558.27         70.1194
558.70        70.11995
559.14        70.20116
559.57         70.3165
560.01        70.63676
560.45        71.10275
560.88        70.71526
561.32        70.89544
561.75        70.59007
562.19        70.33091
562.63        69.99165
563.06        69.69821
563.50        69.84339
563.93        70.27927
564.37        70.47896
564.80        70.36341
565.24        70.25402
565.68        70.18356
566.11        70.08067
566.55        70.01399
566.98        70.00409
567.42        70.06603
567.85        70.18964
568.29        70.41467
568.72        70.55801
569.16        70.73847
569.60        71.20098
570.03        71.58222
570.47        71.40002
570.90        71.02546
571.34         69.2495
571.77        70.22726
572.21         70.5126
572.64        69.88165
573.08        69.17266
573.51        65.66536
573.95        68.31832
574.38        73.10062
574.82        70.51912
575.25        70.17822
575.69        68.11668
576.12        67.00631
576.56         66.1396
576.99        67.60679
577.42        70.94399
577.86        70.83146
578.29        70.30647
578.73        73.75721
579.16        67.99501
579.60        62.34022
580.03        65.19834
580.47        69.44294
580.90        70.91486
581.33        69.92973
581.77        68.80341
582.20        75.42493
582.64        75.35418
583.07        64.09435
583.51        62.96545
583.94        61.93354
584.37        64.96899
584.81        68.26527
585.24        71.94271
585.68        73.65736
586.11        72.07085
586.54        67.28415
586.98        64.93741
587.41        65.49571
587.85        69.22878
588.28        71.95856
588.71        68.31703
589.15        66.51237
589.58        67.35764
590.01        67.51312
590.45        68.96342
590.88        69.50233
591.31        68.90418
591.75         68.4019
592.18        68.46115
592.61        70.00813
593.05        70.49321
593.48        73.58202
593.91        74.10671
594.35         68.3632
594.78        66.79428
595.21        66.45731
595.65        69.43294
596.08         72.2067
596.51        69.24911
596.94         67.4663
597.38        68.06071
597.81        70.59989
598.24        72.70617
598.68        71.02753
599.11        69.75584
599.54        72.60534
599.97          73.828
600.41        68.90971
600.84        69.02678
601.27        70.39019
601.70        69.49674
602.14        69.53322
602.57        68.45564
603.00         68.7404
603.43        70.59502
603.87        72.15649
604.30        71.72526
604.73        69.17575
605.16        67.79845
605.60        69.08747
606.03        70.28257
606.46        71.03762
606.89        70.87621
607.32        68.85997
607.76        68.39259
608.19        71.00482
608.62        70.14075
609.05        69.00311
609.48         69.4198
609.92        69.16122
610.35        68.51255
610.78           71.05
611.21        71.51005
611.64        68.41859
612.07        69.10594
612.50         69.5763
612.94         70.0555
613.37        69.47782
613.80        69.68095
614.23        70.09946
614.66        70.02412
615.09        70.26538
615.52        70.29443
615.96        70.24181
616.39        70.28456
616.82         69.2193
617.25        69.18296
617.68        69.70913
618.11        70.34046
618.54        70.76099
618.97        70.29921
619.40        69.34793
619.84        69.40691
620.27        70.38272
620.70        71.09592
621.13         71.3719
621.56        70.46255
621.99        69.50784
622.42        70.31779
622.85        72.59916
623.28        71.98312
623.71        71.26507
624.14        71.26575
624.57        70.61432
625.00        70.63007
625.43         70.7251
625.86        70.23057
626.29        70.43793
626.72        70.98921
627.15        70.73109
627.58        70.87942
628.01        70.94715
628.44        71.08263
628.87        71.32768
629.30        71.41369
629.73        71.18188
630.16         72.2278
630.59        71.40057
631.02         71.2243
631.45        70.89401
631.88        70.62998
632.31        70.43688
632.74        70.66622
633.17        70.57642
633.60        70.66288
634.03        70.68686
634.46        70.69341
634.89        70.67948
635.32        70.65483
635.75        70.63346
636.18        70.59647
636.61        70.57393
637.04        70.61609
637.47        70.71835
637.89        70.89599
638.32        71.08083
638.75        71.12538
639.18        70.99057
639.61        71.03353
640.04        70.73495
640.47        70.60559
640.90        70.50827
641.33        70.43617
641.76        70.37297
642.18        70.40376
642.61        70.52856
643.04        70.56264
643.47         70.4383
643.90        70.96004
644.33        70.65122
644.76        70.70331
645.18        70.68577
645.61         70.6301
646.04        70.52909
646.47        70.37411
646.90        70.24496
647.33        70.21331
647.75        70.31319
648.18        70.57552
648.61        70.81983
649.04        70.74601
649.47        70.32146
649.89        69.55678
650.32        68.84959
650.75        68.83069
651.18        69.48337
651.61        70.43159
652.03        71.22076
652.46        71.10513
652.89        70.47498
653.32        69.83504
653.74        69.56673
654.17        70.83595
654.60        71.04823
655.03        69.05548
655.46        70.15177
655.88         73.7364
656.31        78.43198
656.74         175.488
657.16        113.6529
657.59        40.16821
658.02         30.3823
658.45        52.98197
658.87        67.51736
659.30        70.73178
659.73        69.77552
660.15        67.78697
660.58        69.64944
661.01        71.65543
661.44        69.91814
661.86        69.31539
662.29        69.07101
662.72        69.69199
663.14        70.99805
663.57        70.99436
664.00        69.90502
664.42        69.65142
664.85        70.30309
665.27        70.65671
665.70        70.54664
666.13        70.38392
666.55        70.16013
666.98        69.75546
667.41        69.32385
667.83         69.1703
668.26        69.35355
668.69        69.74313
669.11        70.12226
669.54        70.49027
669.96        70.12193
670.39        69.64566
670.82         69.0748
671.24        68.79583
671.67        68.91083
672.09        69.24482
672.52        69.56051
672.94         70.0172
673.37        69.42107
673.80        69.35251
674.22        69.49021
674.65        69.54501
675.07         69.4877
675.50        69.34054
675.92        69.19656
676.35        69.23814
676.77         69.4853
677.20        69.80711
677.62        70.10407
678.05        70.21232
678.47        70.08443
678.90        69.82694
679.32        69.50747
679.75        69.22269
680.17        69.27563
680.60        69.41301
681.02        69.61455
681.45         69.5984
681.87        69.48714
682.30        69.21156
682.72        68.93784
683.15         68.8719
683.57        69.07001
684.00        69.36417
684.42        69.78072
684.85        69.98581
685.27        69.97482
685.70        69.79026
686.12        69.50976
686.54        69.40447
686.97        69.52678
687.39         69.4239
687.82        69.71553
688.24        69.75803
688.66        69.71154
689.09        69.58562
689.51        69.45596
689.94        69.40639
690.36        69.45481
690.78        69.58789
691.21        69.76595
691.63        69.86063
692.06         69.8351
692.48        70.02763
692.90        69.91895
693.33        69.96841
693.75        70.02669
694.17         70.1057
694.60        70.18313
695.02        70.23284
695.44        70.22016
695.87        70.27284
696.29        70.41688
696.71        70.24583
697.14        69.90427
697.56        70.35571
697.98        71.34686
698.41         71.0955
698.83        70.34188
699.25         69.8265
699.68        69.83125
700.10        69.72481
700.52        69.53167
700.94        69.61525
701.37        69.92392
701.79         70.2673
702.21        70.56007
702.64        70.85999
703.06        71.06779
703.48        71.01792
703.90        70.70918
704.33        70.19241
704.75        69.62901
705.17        69.36902
705.59        69.50199
706.01         69.8231
706.44         70.1624
706.86        70.84373
707.28        70.84518
707.70        70.95757
708.12        70.94767
708.55        70.89857
708.97        70.81531
709.39        70.67835
709.81        70.54028
710.23        70.48492
710.66        70.53249
711.08        70.69851
711.50         70.8716
711.92        70.88293
712.34        70.69987
712.76        70.35849
713.19        70.00704
713.61        69.91703
714.03        70.12918
714.45        70.56434
714.87        71.01196
715.29        71.13512
715.71        70.86488
716.13        70.32143
716.56         69.7394
716.98        69.44493
717.40        69.51152
717.82        69.98021
718.24        70.71679
718.66        70.65308
719.08        71.01487
719.50        70.83494
719.92        70.59334
720.34        70.41397
720.76        70.36051
721.19        70.24776
721.61        70.28064
722.03        70.34116
722.45         70.4781
722.87        70.68919
723.29        70.91783
723.71        71.05318
724.13         71.0667
724.55        70.98299
724.97        70.86234
725.39        70.81245
725.81        70.86031
726.23        70.97112
726.65        71.09972
727.07        71.17291
727.49        71.17449
727.91        71.13902
728.33         71.0884
728.75        71.05725
729.17        71.05665
729.59        71.06346
730.01        71.09839
730.43        71.18702
730.85        71.33246
731.27        71.55859
731.69        71.77803
732.10        71.82637
732.52        71.67307
732.94         71.3987
733.36         71.1757
733.78        71.14615
734.20        71.34669
734.62        72.04003
735.04        72.94121
735.46         72.8669
735.88        72.04562
736.30        72.11086
736.72        73.08012
737.13        73.50051
737.55        73.14304
737.97        73.20425
738.39         73.6356
738.81        72.96992
739.23        71.64759
739.65        72.27702
740.06        74.42543
740.48        74.64928
740.90        73.06323
741.32           72.52
741.74        73.21655
742.16        73.61178
742.57         73.7067
742.99        74.32168
743.41        75.27419
743.83        75.82292
744.25        75.85255
744.67        75.54987
745.08        75.12461
745.50        74.92046
745.92        75.05333
746.34        75.40987
746.75        75.85462
747.17        76.15337
747.59        76.26017
748.01        76.24386
748.42        76.24529
748.84        76.49209
749.26        77.03197
749.68        77.68311
750.09         78.2838
750.51        78.76649
750.93        78.98851
751.35         78.5537
751.76        77.70924
752.18        77.38802
752.60        77.61077
753.01        77.68375
753.43        77.57971
753.85        77.75191
754.27        78.20145
754.68        78.71931
755.10        79.20737
755.52        79.65744
755.93        80.01161
756.35         80.2142
756.77        80.35119
757.18        80.42892
757.60        80.44577
758.02        80.78738
758.43        81.22465
758.85        80.51078
759.26        79.07868
759.68        79.16575
760.10        80.44452
760.51        80.88653
760.93        80.40704
761.34        78.34609
761.76        78.71255
762.18        78.30219
762.59        78.28995
763.01         78.5312
763.42         79.0658
763.84        79.66588
764.26        80.23233
764.67        80.72952
765.09        80.96744
765.50        80.80581
765.92        80.22784
766.33        78.87349
766.75        77.31654
767.16        76.96368
767.58        77.81955
768.00        79.57471
768.41        81.69004
768.83        82.92364
769.24        82.82022
769.66        81.95809
770.07        80.82447
770.49        79.30961
770.90         77.8905
771.32        78.66634
771.73        80.98206
772.15         80.5936
772.56        77.94323
772.97        77.53781
773.39        79.27431
773.80        79.90083
774.22        79.18977
774.63        79.09039
775.05        79.56664
775.46        79.75558
775.88        79.57149
776.29        79.26453
776.70        78.94975
777.12        78.84004
777.53         78.9976
777.95        79.30109
778.36        79.59087
778.77        79.58817
779.19        79.27181
779.60        78.73322
780.02        78.19356
780.43        78.05893
780.84         78.4549
781.26        78.87629
781.67        79.25836
782.09        80.24804
782.50        81.37422
782.91         80.6122
783.33        78.55469
783.74        77.88266
784.15        78.72733
784.57        79.27122
784.98        79.25877
785.39        79.22376
785.81        79.11052
786.22        78.62221
786.63        78.06811
787.04        78.05642
787.46        78.64383
787.87        79.63137
788.28        80.68555
788.70         81.2272
789.11        81.10964
789.52        80.55846
789.93        79.85949
790.35        79.34201
790.76        79.16029
791.17        79.39893
791.58        79.88723
792.00         80.1374
792.41        80.03757
792.82        79.83377
793.23        79.74438
793.65        79.58086
794.06        79.55955
794.47        80.77831
794.88         82.4534
795.29        81.99654
795.71        79.64977
796.12         77.4286
796.53        76.04765
796.94        75.73653
797.35        76.54417
797.76        77.86047
798.18        79.07291
798.59        79.90491
799.00        80.01755
799.41        79.13393
799.82        77.72927
800.23        76.89614
800.64        76.86057
801.06        77.21571
801.47        77.81715
801.88        78.32025
802.29        78.57877
802.70        78.74422
803.11        78.83243
803.52        78.80637
803.93        78.69025
804.34        78.48549
804.75        78.31435
805.17        78.22626
805.58        78.67702
805.99        79.06323
806.40        79.31935
806.81         79.6851
807.22        79.82548
807.63        78.59858
808.04        76.54846
808.45        75.59438
808.86        75.93993
809.27        76.67583
809.68        77.45429
810.09        77.99704
810.50        78.11047
810.91        77.90084
811.32          77.544
811.73         77.3299
812.14        77.33945
812.55        77.41851
812.96        77.57777
813.37        77.84229
813.78        78.17731
814.19        78.63991
814.60        78.95589
815.01         78.6862
815.42        77.79495
815.83        76.38078
816.24        74.98763
816.65        74.57041
817.05        75.39394
817.46        77.14555
817.87        79.11584
818.28        80.03912
818.69        79.56253
819.10        78.00804
819.51        76.11697
819.92        75.15293
820.33        75.46681
820.74         76.6806
821.14        78.15773
821.55         78.7647
821.96        78.24923
822.37        77.01538
822.78        75.62286
823.19        74.88344
823.60        75.01216
824.00        75.78541
824.41        76.79558
824.82        77.46597
825.23        77.55051
825.64        77.25864
826.04        76.79247
826.45        76.43716
826.86        76.28198
827.27        76.19793
827.68         76.1544
828.08        76.15526
828.49        76.12326
828.90        76.14494
829.31        76.15147
829.72        75.99155
830.12        75.68089
830.53        75.25442
830.94        74.90541
831.35        74.89498
831.75        75.30312
832.16        75.97612
832.57        76.78809
832.97        77.44303
833.38        77.74908
833.79        77.78386
834.20        77.61569
834.60         77.3543
835.01        77.08205
835.42        76.76183
835.82        76.41988
836.23         76.0337
836.64        75.66313
837.04        75.36179
837.45        75.18002
837.86        75.18926
838.26        75.39858
838.67        75.72914
839.08        76.13111
839.48         76.5021
839.89        76.75245
840.29         76.9082
840.70        76.90982
841.11        76.66309
841.51        76.19225
841.92        75.52102
842.33        74.85593
842.73        74.54472
843.14         74.6328
843.54         75.0641
843.95        75.58167
844.35        75.81319
844.76         75.6346
845.17        75.16632
845.57         74.5894
845.98        74.18776
846.38        74.04262
846.79        74.05318
847.19        74.13859
847.60        74.08035
848.00        73.86847
848.41         73.5586
848.81        73.30074
849.22        73.23185
849.62        73.42859
850.03        73.84447
850.43        74.39087
850.84        74.82414
851.24        75.09518
851.65        75.08497
852.05        75.05727
852.46        75.28237
852.86        75.82056
853.27        76.61575
853.67        77.12444
854.07        76.63726
854.48        75.16062
854.88        72.95087
855.29        70.83949
855.69        70.02193
856.10        70.72739
856.50        72.80183
856.90        75.47409
857.31        76.97388
857.71        76.75187
858.12        75.26431
858.52        73.38682
858.92        72.26488
859.33        72.14214
859.73        72.70422
860.13        73.67826
860.54        74.49152
860.94        74.96173
861.34        75.25164
861.75        75.41622
862.15        75.62162
862.55        75.88575
862.96         76.1021
863.36        76.31557
863.76        76.59586
864.17        76.93619
864.57         77.3726
864.97        77.81686
865.38        78.11418
865.78        78.28291
866.18        78.28725
866.58        78.23952
866.99        78.32573
867.39        78.64684
867.79        79.18701
868.19        79.67456
868.60        79.59647
869.00        78.85724
869.40        77.62113
869.80        76.54129
870.21        76.61564
870.61        78.13189
871.01        80.78333
871.41        83.71849
871.81        85.48235
872.22        85.67587
872.62        84.69598
873.02        83.35942
873.42        83.13132
873.82        84.15446
874.22        85.69239
874.63        87.27344
875.03        87.89062
875.43        87.09359
875.83         86.1477
876.23        84.01483
876.63        82.94689
877.03        82.91739
877.44        84.07575
877.84        104.0147
878.24          91.214
878.64        91.67414
879.04        91.71063
879.44           87.81
879.84        85.90418
880.24        89.79822
880.64        91.85434
881.04        92.83175
881.44        93.23709
881.84        92.51495
882.24        90.94364
882.65        89.46545
883.05        88.97766
883.45        89.63068
883.85        91.37564
884.25        93.54127
884.65        94.69934
885.05        94.42061
885.45        93.21183
885.85        91.75449
886.25        90.97404
886.65        91.08283
887.05        91.74562
887.45        92.69608
887.85        93.47341
888.25        93.86235
888.65        94.04325
889.04        93.98432
889.44        93.66282
889.84        93.11618
890.24        92.32584
890.64        91.54389
891.04        91.18176
891.44        91.29896
891.84        91.80585
892.24        92.39771
892.64        92.49445
893.04        92.00829
893.44        91.22321
893.83        90.44862
894.23        90.13609
894.63        90.36016
895.03        90.87475
895.43         91.7001
895.83        92.85616
896.23        94.20644
896.63         95.7513
897.02        96.85429
897.42        96.49445
897.82        94.60765
898.22        91.60323
898.62        88.59781
899.01        87.22645
899.41        87.82043
899.81        89.83244
900.21        92.38721
900.61         94.0451
901.00        94.37209
901.40        93.81115
901.80        92.85635
902.20        92.28098
902.59        92.32287
902.99        92.69366
903.39        93.15628
903.79        93.34783
904.18        93.16061
904.58        92.81706
904.98        92.49101
905.38        92.41276
905.77        92.61461
906.17        92.96491
906.57        93.36346
906.96        93.72958
907.36         93.9546
907.76        94.08769
908.15        94.04937
908.55        93.59536
908.95        92.77271
909.34         91.6379
909.74        90.52612
910.14        89.78246
910.53        89.53062
910.93        89.73783
911.33        90.27608
911.72        90.90506
912.12        91.41982
912.52        91.79874
912.91        92.12388
913.31        92.52534
913.70        93.07777
914.10        93.75225
914.49        94.25372
914.89        93.86032
915.29        92.47928
915.68        90.42179
916.08        88.64956
916.47        88.00799
916.87        88.54812
917.26        89.99707
917.66        91.58633
918.05        92.07568
918.45        91.16775
918.84        89.33008
919.24        87.38276
919.64         86.5147
920.03        87.04153
920.42        88.56469
920.82        90.56944
921.21         92.2796
921.61        93.17886
922.00        93.51488
922.40        93.29185
922.79        92.53351
923.19        91.40608
923.58        89.79193
923.98        87.87685
924.37        86.64024
924.77        86.64037
925.16        84.98816
925.55        86.66763
925.95        87.68115
926.34        89.38169
926.74        91.38214
927.13        93.22935
927.52        93.88512
927.92        93.24592
928.31        91.65514
928.70        89.60966
929.10        87.99274
929.49          87.055
929.89         86.5991
930.28        86.75249
930.67        87.71159
931.07        89.26811
931.46        91.40535
931.85        93.34987
932.24        93.95002
932.64        93.01788
933.03        90.73174
933.42        87.72437
933.82        85.50053
934.21        84.55772
934.60        84.56731
934.99        84.96676
935.39        85.19724
935.78        85.16599
936.17        84.64989
936.56        83.36686
936.96        84.36242
937.35        82.81829
937.74        82.67311
938.13        82.66026
938.53        83.24911
938.92        84.45835
939.31        86.33058
939.70        88.35533
940.09        89.00866
940.49        87.84744
940.88        85.54027
941.27        83.19141
941.66        82.10527
942.05        82.44441
942.44        83.74853
942.84        85.59644
943.23        87.31253
943.62        88.45867
944.01        89.18716
944.40        89.40748
944.79        88.97644
945.18        87.87978
945.57         86.0321
945.97        83.67673
946.36        81.67175
946.75         80.6312
947.14        80.48194
947.53        80.91061
947.92        81.50086
948.31         82.1546
948.70         82.9992
949.09        84.00802
949.48        84.99639
949.87        85.78104
950.26        86.24341
950.65        86.40533
951.04        86.41901
951.43        86.33284
951.82        86.11544
952.21        85.69128
952.60        84.96878
952.99        83.97909
953.38        82.80045
953.77        81.67191
954.16        80.89281
954.55        80.52069
954.94        80.54441
955.33        80.63947
955.72        80.24197
956.11        79.25724
956.50        77.83359
956.89        76.57598
957.28        76.58476
957.66        78.19192
958.05        80.80653
958.44        83.60972
958.83        85.39252
959.22        85.82996
959.61        85.20773
960.00        83.99046
960.39        82.95447
960.78        82.37572
961.16        82.09297
961.55        81.81783
961.94         81.0962
962.33        79.88967
962.72         78.4729
963.11        77.28693
963.49        76.85683
963.88        77.23006
964.27        78.27561
964.66        79.53667
965.04        80.06352
965.43        79.46043
965.82        78.13349
966.21        76.72079
966.60         76.0412
966.98        76.24934
967.37        77.02053
967.76        78.07314
968.15        78.83337
968.53        79.05045
968.92        78.87975
969.31        78.43465
969.69        77.81789
970.08        77.10736
970.47        76.27277
970.86        75.39742
971.24        74.66814
971.63        74.18076
972.02        73.95812
972.40        74.03618
972.79        74.40264
973.17        75.09821
973.56        75.96621
973.95        76.90521
974.33         77.6597
974.72        77.97807
975.11        77.83888
975.49        77.36861
975.88        76.88004
976.26        76.40971
976.65        75.90359
977.04        75.11712
977.42        73.61539
977.81        71.52435
978.19        69.21479
978.58        67.71596
978.96        67.86948
979.35        69.74619
979.74        73.22387
980.12        77.75212
980.51        80.90588
980.89        81.88512
981.28        81.09907
981.66        79.47042
982.05        78.26666
982.43         77.7663
982.82        77.58909
983.20        77.73084
983.59         78.2446
983.97         79.1592
984.35        80.57359
984.74        81.99528
985.12        82.57582
985.51        81.73306
985.89        79.58298
986.28        76.80026
986.66        74.39137
987.04        72.97824
987.43         72.4407
987.81        72.27103
988.20        71.75105
988.58        70.59216
988.96         68.5638
989.35        66.19694
989.73        66.03207
990.12         69.3214
990.50        74.71248
990.88        78.88847
991.27        79.47604
991.65        76.99708
992.03        72.25854
992.42        67.05575
992.80        64.60408
993.18        65.91337
993.56        69.11996
993.95        72.83408
994.33        76.07903
994.71        78.38698
995.10        80.38594
995.48        81.46759
995.86        80.40445
996.24        76.95679
996.63         70.9229
997.01         63.7982
997.39        60.20818
997.77        62.29708
998.15        69.15364
998.54        76.97375
998.92        80.38676
999.30        77.80354
999.68        70.56003
1000.06        60.92568
1000.45        54.35597
1000.83        53.01133
1001.21         55.0057
1001.59        58.46024
1001.97        61.44357
1002.35        63.47709
1002.73         65.4874
1003.12        66.92292
1003.50        66.01856
1003.88        62.45252
1004.26        57.37201
1004.64        52.76659
1005.02        50.16883
1005.40        49.54605
1005.78        50.61684
1006.16        54.42245
1006.54        60.99551
1006.92        66.89176
1007.30        70.41622
1007.69        71.62438
1008.07        71.31429
1008.45        69.45071
1008.83        64.41634
1009.21        50.50252
1009.59        11.31811
1009.97       -78.60143
1010.35       -177.9372
1010.73       -134.2074
1011.11       -57.74417
1011.49       -9.351711
1011.86        23.02475
1012.24        40.85765
1012.62        48.51811
1013.00        50.24076
1013.38        47.61934
1013.76        42.87564
1014.14        43.76112
1014.52        56.76831
1014.90        83.51257
1015.28        117.1013
1015.66         136.152
1016.04        127.3338
1016.41        94.62797
1016.79        56.38736
1017.17        33.06623
1017.55        26.00506
1017.93        26.25317
1018.31        29.36063
1018.69        33.51435
1019.06        38.56435
1019.44        45.24453
1019.82        55.36636
1020.20        69.11742
1020.58        85.59323
1020.95        105.8654
1021.33        122.5744
1021.71        131.4822
1022.09        139.4112
1022.46        147.0074
1022.84        154.6492
1023.22        166.9781
1023.60        197.7945
1023.97         495.124
1024.35       -6.082698
1024.73        51.61401
