SpectraSmart Spectrum 2.9.0.0
--------- Device Information -----------
Spectrum Name :  反射率_0
Saving Time :  2024/04/26 01:58:26
Spectro-Module Model Name : SE2030-DUVN
Spectro-Module Serial Number : OS361AC55029948
Wavelength Start : 200
Wavelength End : 1025
Wavelength Unit : Wavelength(nm)
Spectrum Unit : Reflectance(%)
-----------Spectrum Setting ------------
Integration Time : 20ms
Average : 10
Boxcar : 0
Background removal :  enabled
linearity correction :  enabled
SC :  disabled
Intensity correction :  disabled
DWT denoise :  enabled
savitzky-golay :  disabled
FFT :  disabled
Running average :  disabled
Kalman :  disabled
High pass :  disabled
---------------BEGIN--------------------
Wavelength(nm)             Reflectance(%)
200.29               0
200.75        100.7354
201.21        93.87566
201.67        84.48549
202.13        77.72389
202.58        74.50434
203.04        73.76653
203.50        74.07163
203.96        73.32662
204.42         71.2565
204.88        68.85342
205.34        67.21071
205.80        67.41348
206.26        70.02753
206.72        76.59943
207.18        89.54493
207.64        100.2683
208.10        91.65475
208.55        75.59946
209.01        65.67621
209.47          62.578
209.93         63.4576
210.39        66.90424
210.85        71.19721
211.31        72.61031
211.77        69.93897
212.23        64.73348
212.69        59.63739
213.14        58.74718
213.60        62.63837
214.06        70.15549
214.52        78.84369
214.98        85.04714
215.44        87.49972
215.90         87.0033
216.36        85.00454
216.81         83.3911
217.27        82.94733
217.73        83.14358
218.19        82.44433
218.65        78.57726
219.11        70.50272
219.57        57.06198
220.02        39.91673
220.48        29.33586
220.94        31.47642
221.40         43.9039
221.86         56.7094
222.32        59.29762
222.77        52.53957
223.23        41.94101
223.69        32.76396
224.15         30.3411
224.61        34.15216
225.06        41.44955
225.52        48.79019
225.98        51.91513
226.44         50.0448
226.90         45.1166
227.36        39.33846
227.81        35.59942
228.27        34.88918
228.73        36.01395
229.19        38.12095
229.65        39.98092
230.10        41.13391
230.56        41.98139
231.02        42.65199
231.48        43.23541
231.93        43.76115
232.39        44.13021
232.85        44.34062
233.31        44.48714
233.77        44.56197
234.22        44.53949
234.68        44.36865
235.14        43.88791
235.60        43.13974
236.05        42.31926
236.51         41.5476
236.97         40.8782
237.43        40.38043
237.88        40.12418
238.34        40.42519
238.80         42.0319
239.26        45.10652
239.71        49.39592
240.17        53.94678
240.63        57.63686
241.08        60.08294
241.54         61.3236
242.00        61.75796
242.46        62.12476
242.91        63.01964
243.37        64.64398
243.83        70.70518
244.28        98.65575
244.74        145.7522
245.20         139.501
245.66        124.4915
246.11        120.5938
246.57        124.6962
247.03        140.2355
247.48        182.1092
247.94        147.0261
248.40        98.96903
248.85        85.91192
249.31        82.75208
249.77        83.01257
250.22        85.26511
250.68        89.67992
251.14        96.15378
251.59        100.3944
252.05        98.19671
252.51        91.58546
252.96        83.89194
253.42        78.63892
253.88        75.50539
254.33         73.3548
254.79        73.02681
255.25        75.09194
255.70        78.65553
256.16        82.93947
256.62        85.85672
257.07        85.33335
257.53        82.10541
257.99        76.92349
258.44        71.43787
258.90        68.46004
259.35        67.29493
259.81        67.07214
260.27        66.14597
260.72        62.92548
261.18        58.11536
261.63        52.41098
262.09          47.354
262.55        44.08905
263.00        42.50202
263.46         42.0268
263.91        41.69832
264.37        40.73542
264.83        38.98033
265.28        36.65092
265.74        34.37862
266.19        32.89418
266.65        32.41557
267.11        32.53029
267.56        32.68938
268.02        32.22782
268.47         31.0333
268.93        29.35306
269.38        27.50598
269.84        26.26167
270.30        25.83099
270.75        25.98628
271.21         26.3657
271.66        26.43875
272.12        26.04092
272.57        25.33892
273.03          24.557
273.48        23.94998
273.94        23.61556
274.39        23.43115
274.85        23.26955
275.31        22.95244
275.76        22.44087
276.22         21.8305
276.67        21.23881
277.13        20.90549
277.58        20.81516
278.04        20.89608
278.49        20.95343
278.95        20.76183
279.40        20.26722
279.86        19.60602
280.31         18.8884
280.77        18.37917
281.22        18.09943
281.68        17.98249
282.13        17.94562
282.59        17.89237
283.04        17.79131
283.50        17.70873
283.95        17.61602
284.41         17.4755
284.86        17.28905
285.32        17.06723
285.77        16.91341
286.22        17.04155
286.68        17.44301
287.13        18.01867
287.59        18.55165
288.04        18.71985
288.50        18.48945
288.95        17.96107
289.41        17.35142
289.86        16.89151
290.32        16.69888
290.77        16.69184
291.22        16.83454
291.68        17.03288
292.13        17.26533
292.59        17.57274
293.04        17.97689
293.50         18.5022
293.95        19.13453
294.40         19.8237
294.86        20.52847
295.31         21.2067
295.77        21.85312
296.22        22.49157
296.68        23.11931
297.13        23.70059
297.58        24.25851
298.04        24.82057
298.49        25.47673
298.95        26.40563
299.40        27.62166
299.85        29.06409
300.31         30.5818
300.76        31.93526
301.21        33.03999
301.67        33.98854
302.12        34.83222
302.58        35.72298
303.03        36.68964
303.48        37.70359
303.94        38.82206
304.39        40.08904
304.84        41.50315
305.30        43.04314
305.75        44.55854
306.20        45.82855
306.66        46.83047
307.11        47.59982
307.57        48.30597
308.02        49.11668
308.47        50.12154
308.93        51.26883
309.38        52.48498
309.83        53.69111
310.29        54.83668
310.74        55.91884
311.19        56.93865
311.65        57.89856
312.10        58.79866
312.55        59.64669
313.00        60.40133
313.46        61.00726
313.91        61.44689
314.36         61.7489
314.82        62.04986
315.27        62.52636
315.72        63.23557
316.18        64.12896
316.63        65.05737
317.08        65.73336
317.53        66.08198
317.99        66.17432
318.44        66.20699
318.89        66.50494
319.35        67.12697
319.80        67.99443
320.25        68.86598
320.70        69.33886
321.16        69.31978
321.61        68.94405
322.06        68.46832
322.51        68.29417
322.97        68.50912
323.42        69.02206
323.87        69.64249
324.32        70.04364
324.78        70.12193
325.23        70.01132
325.68        69.83859
326.13        69.82714
326.59        70.02545
327.04          70.376
327.49        70.80113
327.94        71.20158
328.39         71.5359
328.85        71.82858
329.30        72.11459
329.75        72.32267
330.20        72.46634
330.66        72.54733
331.11        72.70118
331.56        73.08382
332.01          73.738
332.46         74.6059
332.92        75.56203
333.37        76.50886
333.82        77.30838
334.27        77.98305
334.72         78.4727
335.17         78.7032
335.63        78.68812
336.08        78.48734
336.53        78.25778
336.98         78.2882
337.43        78.65339
337.88        79.28603
338.34        80.04748
338.79        80.77386
339.24        81.36045
339.69        81.86907
340.14        82.28285
340.59        82.57492
341.05          82.756
341.50         82.8072
341.95        82.84008
342.40        83.05113
342.85        83.47934
343.30        84.08561
343.75        84.72185
344.20        85.11507
344.66        85.20696
345.11        85.06809
345.56         84.8577
346.01         84.8168
346.46         85.0077
346.91        85.35255
347.36        85.75304
347.81        86.06011
348.26        86.23537
348.72        86.35168
349.17        86.43384
349.62        86.57177
350.07        86.78855
350.52        87.04458
350.97         87.3101
351.42        87.55326
351.87        87.75548
352.32        87.91631
352.77        88.03321
353.22        88.10086
353.67        88.11581
354.13        88.09333
354.58        87.98997
355.03        87.79345
355.48        87.51119
355.93        87.15842
356.38        86.79021
356.83        86.49204
357.28        86.27605
357.73        86.11134
358.18        85.94051
358.63        85.66785
359.08        85.27536
359.53        84.80937
359.98        84.29552
360.43        83.77278
360.88        83.26019
361.33        82.73553
361.78        82.25383
362.23        81.90478
362.68        81.69697
363.13        81.61524
363.58        81.52781
364.03        81.22222
364.48        80.66164
364.93        79.90221
365.38        79.11954
365.83        78.60498
366.28        78.41438
366.73        78.44389
367.18        78.50644
367.63        78.29763
368.08        77.74819
368.53        76.98312
368.98        76.13454
369.43        75.39218
369.88        74.82234
370.33        74.36555
370.78        74.02129
371.23        73.79467
371.68        73.66553
372.13        73.63419
372.58        73.63646
373.03        73.55209
373.48        73.35295
373.93        73.07336
374.38        72.75197
374.83        72.45766
375.28        72.21146
375.72         71.9706
376.17        71.77808
376.62        71.67657
377.07        71.65165
377.52        71.67535
377.97        71.64414
378.42        71.39185
378.87        70.90394
379.32        70.26477
379.77        69.57579
380.22        68.97796
380.67        68.50655
381.11        68.11292
381.56        67.80447
382.01        67.59701
382.46        67.48344
382.91        67.48114
383.36        67.47518
383.81          67.279
384.26        66.86794
384.71        66.28372
385.15        65.70382
385.60        65.46102
386.05         65.5649
386.50        65.90866
386.95        66.24905
387.40        66.17652
387.85        65.63803
388.29        64.79577
388.74        63.97928
389.19        63.40445
389.64         63.1122
390.09        62.98277
390.54        62.99783
390.98        63.12619
391.43        63.32027
391.88        63.57615
392.33        63.73848
392.78         63.5346
393.23        62.97222
393.67        62.23907
394.12        61.62295
394.57        61.11241
395.02        60.87785
395.47        61.34512
395.91        62.33634
396.36        62.95169
396.81        63.02401
397.26        62.92101
397.71        62.75309
398.15        62.41905
398.60        62.03075
399.05        61.84473
399.50        61.75549
399.95        60.92894
400.39        59.89721
400.84        59.68666
401.29        60.30267
401.74        60.58557
402.18         60.4184
402.63        60.28614
403.08        60.31668
403.53        60.52754
403.97        60.91814
404.42        61.37719
404.87        61.73617
405.32        61.73968
405.76        61.33512
406.21         60.7596
406.66        60.17119
407.11        59.63165
407.55        59.34285
408.00        59.58034
408.45        60.22105
408.90        60.86338
409.34        61.17739
409.79        60.70409
410.24        59.75942
410.68         59.3778
411.13        59.66314
411.58        60.02918
412.03        60.35407
412.47        60.69104
412.92        60.92798
413.37        61.08149
413.81        61.11575
414.26        61.01498
414.71        60.77882
415.15        60.40903
415.60        60.01909
416.05        59.81164
416.49        59.83804
416.94        60.07129
417.39         60.3445
417.83        60.35072
418.28        60.04282
418.73        59.52465
419.17        59.03664
419.62        58.96291
420.07         59.3409
420.51        60.03227
420.96        60.78457
421.41        61.12745
421.85        60.92368
422.30        60.54866
422.74        60.11533
423.19        59.57626
423.64        59.12154
424.08         59.4111
424.53        60.28266
424.98         60.8278
425.42        60.91853
425.87        61.11522
426.31        61.44103
426.76        61.48565
427.21        61.38818
427.65        61.67002
428.10          62.244
428.54        62.77419
428.99        63.22577
429.44        63.29469
429.88        63.08494
430.33        63.75426
430.77        64.69347
431.22        63.81494
431.66        61.58914
432.11        60.27238
432.56        60.22336
433.00        61.12186
433.45        62.82048
433.89        64.57561
434.34        65.07015
434.78         66.2921
435.23        63.59047
435.67        60.91001
436.12        63.87904
436.57        64.75963
437.01        65.14481
437.46        65.42355
437.90        65.83402
438.35        64.81106
438.79        65.56688
439.24        65.43595
439.68        65.38974
440.13        65.26662
440.57        65.29394
441.02        66.14175
441.46        67.43798
441.91        68.11821
442.35        68.00011
442.80        67.24093
443.24        66.22672
443.69        66.73287
444.13        68.39856
444.58        68.37347
445.02        66.87305
445.47        66.69827
445.91        67.77066
446.36        68.15476
446.80        67.78596
447.24        67.69633
447.69        67.96162
448.13        68.23946
448.58        68.56364
449.02        69.03638
449.47        69.55575
449.91        69.96605
450.36        70.17516
450.80        70.04305
451.25        69.68406
451.69        69.42261
452.13        69.33056
452.58        69.25477
453.02        69.18767
453.47        69.21462
453.91        69.31389
454.36        69.47497
454.80        69.65091
455.24        69.65329
455.69        69.46655
456.13        69.27297
456.58         69.1918
457.02        68.70803
457.46        68.64645
457.91        68.77988
458.35         69.1755
458.79        69.32812
459.24        69.22865
459.68        69.05295
460.13        68.82951
460.57        68.61314
461.01        68.50163
461.46        67.92782
461.90        67.62518
462.34        67.98179
462.79        67.65768
463.23        67.96444
463.68        68.34794
464.12        68.64402
464.56        68.76554
465.01        68.84581
465.45        68.76598
465.89        68.56004
466.34        68.16292
466.78        67.13634
467.22        66.05946
467.67        65.35366
468.11        67.02838
468.55        67.68584
468.99        67.63987
469.44        67.32481
469.88        66.95265
470.32        67.03006
470.77        67.46681
471.21        67.53457
471.65         67.1874
472.10         67.0171
472.54        67.07982
472.98        67.12723
473.42        67.14068
473.87        67.39364
474.31        67.70453
474.75        67.39464
475.20        66.65077
475.64        66.46373
476.08        66.84618
476.52        66.86581
476.97        66.48608
477.41        66.64139
477.85        66.95356
478.29        66.57546
478.74        67.25536
479.18        67.04707
479.62        66.29523
480.06        66.80376
480.50        67.10228
480.95        67.38155
481.39         67.2211
481.83        66.54815
482.27        66.74564
482.72        66.32133
483.16         65.4965
483.60        65.52199
484.04         67.0947
484.48        67.27562
484.93        66.84273
485.37        68.43663
485.81        69.17751
486.25        67.71109
486.69        91.36272
487.14        73.31521
487.58         46.3499
488.02        56.78736
488.46        65.21593
488.90        64.43056
489.34        66.03618
489.79        65.50193
490.23        67.63065
490.67        68.30463
491.11        66.87866
491.55        66.67301
491.99        67.28373
492.43        67.14848
492.88        66.35463
493.32        66.35117
493.76        66.66501
494.20        67.04436
494.64        67.22888
495.08        67.50765
495.52        67.86054
495.96        67.75713
496.41        67.24558
496.85        67.58427
497.29        68.51052
497.73         67.3316
498.17        65.25024
498.61         65.5098
499.05        68.15141
499.49        68.81286
499.93        68.88088
500.37        68.62192
500.82        67.97374
501.26        67.84107
501.70        68.06283
502.14        68.30531
502.58        68.38266
503.02        68.32403
503.46        68.10748
503.90        67.70842
504.34        67.28165
504.78        67.09206
505.22        67.18309
505.66        67.47979
506.10        67.87649
506.54        68.09019
506.98        67.94956
507.42        67.96357
507.86        67.45958
508.30        66.89278
508.74         67.5242
509.18         67.9404
509.62        68.38104
510.06        68.59212
510.50        68.51939
510.94         68.2232
511.38        67.84249
511.82        67.62812
512.26        67.64491
512.70        67.81917
513.14        68.06544
513.58        68.24488
514.02        68.30474
514.46        68.28581
514.90        68.23251
515.34        68.19209
515.78        68.17156
516.22        68.21876
516.66         68.2988
517.10        68.17971
517.54        67.85481
517.98        68.01098
518.42        67.78612
518.86        67.93004
519.30        68.17276
519.74        68.55135
520.18        68.95821
520.62        69.21289
521.06        69.27774
521.50         69.1948
521.93        69.02874
522.37        68.88801
522.81        68.81786
523.25        68.79398
523.69        68.80268
524.13         68.8223
524.57        68.84544
525.01        68.88355
525.45        68.94497
525.89        69.03703
526.32         69.1453
526.76        69.25425
527.20        69.32752
527.64        69.33185
528.08        69.27701
528.52        69.11943
528.96        68.86584
529.40        68.72149
529.83        68.74257
530.27        68.18021
530.71        68.39196
531.15          68.309
531.59         68.3351
532.03         68.4202
532.46         68.5913
532.90        68.85609
533.34        69.17734
533.78        69.53604
534.22        69.82531
534.66        69.89834
535.09        69.72628
535.53        69.38319
535.97        68.97581
536.41        68.69784
536.85        68.60696
537.28        68.65549
537.72        68.77094
538.16        68.84329
538.60        68.83838
539.04        68.74281
539.47         68.5943
539.91        68.63126
540.35        68.79327
540.79        68.76478
541.22        68.56804
541.66         68.5338
542.10        68.65694
542.54        68.72209
542.97        68.73289
543.41        68.82623
543.85        68.98795
544.29        69.19098
544.72        69.32924
545.16         69.2711
545.60        68.99311
546.04        68.55389
546.47        68.13952
546.91        68.02407
547.35         68.2739
547.79        68.89484
548.22        69.58482
548.66        69.81487
549.10        69.47555
549.53        68.70265
549.97          67.862
550.41        67.47903
550.84        67.64007
551.28        68.23987
551.72        69.05625
552.15         69.3916
552.59        69.05576
553.03        69.54015
553.46        68.71319
553.90         68.5736
554.34        68.48819
554.77        68.59377
555.21        68.91756
555.65          68.396
556.08        69.35387
556.52        68.79446
556.96        69.03092
557.39        68.81303
557.83         68.7129
558.27        68.72874
558.70        68.84865
559.14        68.99348
559.57        69.12008
560.01        69.28896
560.45        69.44754
560.88        69.55183
561.32        69.56265
561.75        69.29761
562.19        68.89436
562.63         68.5475
563.06        68.35637
563.50        68.47941
563.93        68.80627
564.37        68.99413
564.80        68.97639
565.24        68.97626
565.68        68.99225
566.11        68.95925
566.55        68.93253
566.98        68.86089
567.42        68.79877
567.85        68.92268
568.29        69.27439
568.72        69.26964
569.16        69.14381
569.60        69.44238
570.03        69.81654
570.47        69.83058
570.90         69.7875
571.34        67.56364
571.77        68.51653
572.21        68.49525
572.64         68.2911
573.08        67.15215
573.51        64.40786
573.95        66.79671
574.38        70.88212
574.82        68.78668
575.25        68.14411
575.69        66.10058
576.12        65.30965
576.56        64.44994
576.99        65.95253
577.42        69.08997
577.86         69.0623
578.29        68.12251
578.73        71.36337
579.16        66.10347
579.60        60.70158
580.03        63.61572
580.47        67.84473
580.90        68.98829
581.33         67.6083
581.77        67.11221
582.20        73.38603
582.64        72.84739
583.07        62.19637
583.51        61.14547
583.94        60.42866
584.37        63.37667
584.81        66.57886
585.24        69.87447
585.68        71.19952
586.11        69.76371
586.54        65.05762
586.98        63.06668
587.41        63.75964
587.85        67.29215
588.28        69.43319
588.71        66.27591
589.15        64.29902
589.58        65.71755
590.01        66.11131
590.45        67.37805
590.88        68.05851
591.31        67.29665
591.75        66.64242
592.18        66.90337
592.61         68.9099
593.05        68.78029
593.48        71.63892
593.91        71.74964
594.35        66.29163
594.78        65.04755
595.21        64.69032
595.65        67.64476
596.08        70.31841
596.51        67.49419
596.94        65.72926
597.38        66.35572
597.81        68.93462
598.24         70.6127
598.68        69.38435
599.11        67.87115
599.54        70.83018
599.97        72.23875
600.41        67.14651
600.84        67.26249
601.27        68.65268
601.70        67.86526
602.14        67.88239
602.57        66.83727
603.00        67.15723
603.43         68.8047
603.87        70.16829
604.30        69.95146
604.73        67.97784
605.16        66.32068
605.60        67.50681
606.03        68.52492
606.46        69.69389
606.89        69.17471
607.32        67.42947
607.76         67.1268
608.19        69.55141
608.62        68.65835
609.05         67.4799
609.48        68.05305
609.92        68.05856
610.35        67.72833
610.78        69.59533
611.21         70.1861
611.64        67.13206
612.07        67.86214
612.50        68.24237
612.94        68.67706
613.37        68.14172
613.80        68.24069
614.23        68.72987
614.66        68.60911
615.09        68.94363
615.52        68.93965
615.96        68.78213
616.39        68.86974
616.82        68.05519
617.25        67.69373
617.68        68.55183
618.11        69.08061
618.54        69.34719
618.97        68.92518
619.40        68.18353
619.84        67.97835
620.27        68.82861
620.70        69.54008
621.13        69.99883
621.56        69.55175
621.99        68.50645
622.42        69.05762
622.85        70.73059
623.28        70.54108
623.71        69.93712
624.14        69.72022
624.57        69.33419
625.00        69.27875
625.43        69.40714
625.86        68.99171
626.29        69.35732
626.72        69.67809
627.15          69.576
627.58        69.63519
628.01        69.64214
628.44        69.78232
628.87        69.97482
629.30        69.99855
629.73        70.33323
630.16        70.55805
630.59        70.18212
631.02        69.85862
631.45        69.51355
631.88        69.28993
632.31        69.22379
632.74        69.29266
633.17        69.44019
633.60        69.54935
634.03         69.5853
634.46        69.58533
634.89        69.56879
635.32         69.5666
635.75        69.58984
636.18         69.6144
636.61         69.6469
637.04        69.70743
637.47        69.79375
637.89        69.91296
638.32        70.00597
638.75        70.02145
639.18        69.94707
639.61        69.80164
640.04        69.63112
640.47        69.50854
640.90        69.45779
641.33        69.45858
641.76        69.45769
642.18        69.46617
642.61        69.47008
643.04        69.31584
643.47        69.00624
643.90        69.43995
644.33        69.19783
644.76        69.41493
645.18        69.60258
645.61        69.68154
646.04        69.61102
646.47        69.40672
646.90        69.19945
647.33        69.15636
647.75        69.33691
648.18        69.71487
648.61         70.0554
649.04        70.06258
649.47         69.6685
649.89        68.69707
650.32        67.64644
650.75         67.6252
651.18        68.55149
651.61        69.42174
652.03        69.82783
652.46        69.65341
652.89        69.28832
653.32        68.82817
653.74         68.5588
654.17        69.86719
654.60        70.31833
655.03        68.27367
655.46        68.31844
655.88         72.4781
656.31        76.20424
656.74        166.8838
657.16        108.4456
657.59        38.50689
658.02        29.61702
658.45        51.96721
658.87        67.21812
659.30        69.90669
659.73        69.06883
660.15        66.73944
660.58        68.99934
661.01        70.85666
661.44        68.77151
661.86        68.01007
662.29        67.83088
662.72        68.63758
663.14        70.16682
663.57        70.20874
664.00        68.99794
664.42        68.73495
664.85        69.49305
665.27        69.88831
665.70        69.74006
666.13        69.49888
666.55        69.21834
666.98         68.7235
667.41        68.19638
667.83        67.95484
668.26        68.06585
668.69         68.4033
669.11        68.76559
669.54        69.15544
669.96        68.85598
670.39         68.5057
670.82        68.08617
671.24        67.86108
671.67        67.95596
672.09        68.35237
672.52        68.79194
672.94        69.30968
673.37        68.69456
673.80        68.48968
674.22        68.44975
674.65        68.46582
675.07        68.53305
675.50         68.5933
675.92        68.63048
676.35        68.68126
676.77        68.73699
677.20        68.71478
677.62        68.64738
678.05         68.5832
678.47        68.55434
678.90         68.5454
679.32        68.56116
679.75        68.45664
680.17        68.49424
680.60        68.50755
681.02        68.47472
681.45         68.3739
681.87        68.18875
682.30        67.96735
682.72        67.78761
683.15        67.72175
683.57        67.84311
684.00        68.17926
684.42        68.74969
684.85        69.02084
685.27        68.96784
685.70        68.76463
686.12        68.50906
686.54        68.36065
686.97        68.36011
687.39        68.47073
687.82        68.60268
688.24        68.68254
688.66        68.66677
689.09         68.5071
689.51        68.43537
689.94        68.43063
690.36         68.5694
690.78        68.80814
691.21        69.05901
691.63        69.18642
692.06        69.15485
692.48        69.01082
692.90        68.85278
693.33        68.79528
693.75        68.86771
694.17        69.11664
694.60          69.436
695.02        69.45795
695.44        69.19409
695.87        69.25379
696.29        69.64147
696.71        69.51523
697.14        69.01779
697.56        69.39376
697.98        70.40147
698.41        70.14632
698.83        69.36008
699.25        68.82053
699.68        68.82423
700.10        68.76498
700.52        68.66739
700.94        68.88147
701.37        69.30592
701.79        69.67259
702.21        69.88248
702.64        70.01608
703.06        70.04726
703.48        69.92956
703.90         69.6866
704.33         69.3309
704.75        68.95529
705.17        68.79826
705.59         68.9193
706.01        69.15086
706.44        69.36574
706.86        69.95323
707.28        69.92795
707.70        70.04491
708.12        70.06158
708.55        70.04405
708.97        69.98874
709.39        69.88621
709.81        69.77536
710.23        69.71305
710.66          69.716
711.08        69.80463
711.50        69.89654
711.92        69.87099
712.34        69.70643
712.76        69.42786
713.19        69.15388
713.61        69.10429
714.03        69.30774
714.45        69.70155
714.87        70.10335
715.29        70.22313
715.71        70.00306
716.13        69.53548
716.56        69.01449
716.98         68.7847
717.40        68.92316
717.82        69.32375
718.24        69.81086
718.66        70.08581
719.08        70.06392
719.50        69.84343
719.92        69.53396
720.34        69.32718
720.76        69.28458
721.19        69.22614
721.61        69.34486
722.03        69.47094
722.45        69.63919
722.87        69.85448
723.29        70.06452
723.71         70.1703
724.13        70.14739
724.55        70.01497
724.97        69.83529
725.39        69.71998
725.81        69.70221
726.23        69.75832
726.65        69.84431
727.07        69.88419
727.49        69.86421
727.91        69.81829
728.33        69.78748
728.75        69.83714
729.17        69.97649
729.59        70.16489
730.01        70.37542
730.43        70.56229
730.85        70.71054
731.27        70.86095
731.69        70.96941
732.10        70.94292
732.52        70.77631
732.94        70.53972
733.36        70.37192
733.78         70.3603
734.20        70.52594
734.62        71.13856
735.04        71.96806
735.46        71.91802
735.88        71.22191
736.30        71.49884
736.72        72.67786
737.13        73.09435
737.55        72.51608
737.97        72.31238
738.39        72.53821
738.81        71.81468
739.23        70.59521
739.65         71.4108
740.06        73.74364
740.48        74.05853
740.90        72.42788
741.32         71.7022
741.74        72.13797
742.16        72.34554
742.57        72.37491
742.99        72.99147
743.41        73.99749
743.83        74.63501
744.25        74.77341
744.67        74.61168
745.08        74.33363
745.50        74.23518
745.92        74.41426
746.34        74.75455
746.75        75.15719
747.17        75.42967
747.59        75.53447
748.01         75.6087
748.42         75.7311
748.84        75.83936
749.26        76.05318
749.68        76.64983
750.09        77.46059
750.51        78.01353
750.93        78.15488
751.35        77.74015
751.76        77.00303
752.18        76.73531
752.60        76.95173
753.01        76.99916
753.43        76.87708
753.85        77.07667
754.27        77.60844
754.68        78.24644
755.10        78.84796
755.52        79.34194
755.93        79.64596
756.35        79.70821
756.77        79.67028
757.18        79.61793
757.60        79.58233
758.02        79.99274
758.43        80.52317
758.85        79.75626
759.26        77.96863
759.68        77.87798
760.10        79.27132
760.51        79.92861
760.93        79.46382
761.34        78.75111
761.76        78.09662
762.18          77.618
762.59        77.52406
763.01         77.9158
763.42        78.73991
763.84        79.35287
764.26        79.65012
764.67        79.92062
765.09        80.05749
765.50        79.74759
765.92         79.0397
766.33        77.88412
766.75        76.73724
767.16         76.4592
767.58        77.19686
768.00        78.82822
768.41        80.90929
768.83        82.26242
769.24        82.38135
769.66        81.38683
770.07        79.88371
770.49        78.54195
770.90        77.67949
771.32        78.41559
771.73        80.15054
772.15         79.5499
772.56        77.10381
772.97         76.7968
773.39        78.48988
773.80        79.10157
774.22        78.39848
774.63        78.27586
775.05        78.72072
775.46        78.91315
775.88        78.77545
776.29        78.55084
776.70        78.32677
777.12        78.26743
777.53        78.42361
777.95        78.68797
778.36        78.93014
778.77        78.91898
779.19        78.64642
779.60         78.1898
780.02        77.73482
780.43         77.6437
780.84        78.03178
781.26        78.38102
781.67        78.66688
782.09        79.66524
782.50        80.89388
782.91        80.17733
783.33         78.0881
783.74        77.39222
784.15        78.21741
784.57        78.68285
784.98        78.57629
785.39        78.53881
785.81        78.52668
786.22        78.20732
786.63        77.81278
787.04        77.83944
787.46        78.32748
787.87         79.1161
788.28        79.94748
788.70        80.37904
789.11        80.29993
789.52        79.86314
789.93        79.29626
790.35         78.9076
790.76        78.79619
791.17        78.92422
791.58        79.17951
792.00        79.32831
792.41        79.30112
792.82        79.17412
793.23         79.1198
793.65        79.05193
794.06        79.10652
794.47        80.10719
794.88        81.39343
795.29        80.81223
795.71        78.63696
796.12        76.69614
796.53        75.57964
796.94        75.34872
797.35        76.06999
797.76        77.28014
798.18        78.35696
798.59        79.59653
799.00        79.32144
799.41        78.50211
799.82        77.18708
800.23        76.38569
800.64        76.30727
801.06        76.59405
801.47        77.15914
801.88        77.71439
802.29        78.12273
802.70        78.49376
803.11         78.7687
803.52        78.81802
803.93        78.64985
804.34         78.2674
804.75        77.81884
805.17        77.66606
805.58        77.92975
805.99        78.19639
806.40        78.35509
806.81        78.98914
807.22        79.65195
807.63        78.66305
808.04        76.55104
808.45        75.63678
808.86         76.1255
809.27        76.83351
809.68        77.44499
810.09        77.90136
810.50        78.03933
810.91        77.90045
811.32        77.60881
811.73        77.36706
812.14         77.2355
812.55        77.10673
812.96        77.02791
813.37        77.08449
813.78        77.27808
814.19        77.64948
814.60        77.94474
815.01        77.75382
815.42        77.03011
815.83        75.86036
816.24        74.71349
816.65        74.41101
817.05        75.18176
817.46        76.74541
817.87        78.47055
818.28        79.23209
818.69        78.72436
819.10        77.23417
819.51        75.46158
819.92        74.59689
820.33        74.96095
820.74        76.19691
821.14        77.67727
821.55        78.27936
821.96        77.75685
822.37        76.50889
822.78        75.08719
823.19         74.2953
823.60        74.35114
824.00        75.03661
824.41        75.97868
824.82        76.65945
825.23        76.84331
825.64        76.71397
826.04        76.42055
826.45        76.17038
826.86         76.0321
827.27        75.89654
827.68        75.75635
828.08        75.65733
828.49        75.54395
828.90        75.49485
829.31        75.44456
829.72        75.25149
830.12        74.92728
830.53        74.49595
830.94        74.15147
831.35        74.14996
831.75        74.56744
832.16        75.26595
832.57        76.06755
832.97        76.58768
833.38        76.63668
833.79        76.32748
834.20        75.87788
834.60        75.61848
835.01        75.66296
835.42        75.90768
835.82        76.19385
836.23        76.17641
836.64        75.81704
837.04        75.25069
837.45         74.6951
837.86        74.49354
838.26        74.73163
838.67        75.25875
839.08        75.89899
839.48        76.33147
839.89        76.41246
840.29        76.25658
840.70        75.94392
841.11        75.57928
841.51        75.22687
841.92        74.83404
842.33        74.48996
842.73        74.35823
843.14        74.42712
843.54        74.69653
843.95        74.98641
844.35        75.04872
844.76        74.81238
845.17        74.37663
845.57        73.87926
845.98        73.54207
846.38        73.42829
846.79        73.44193
847.19        73.57484
847.60        73.72393
848.00        73.87775
848.41        74.03854
848.81        74.17657
849.22        74.17039
849.62        74.05332
850.03        73.84209
850.43        73.66753
850.84        73.69556
851.24        74.01317
851.65        74.40977
852.05        74.91292
852.46        75.38559
852.86        75.77583
853.27         76.1547
853.67        76.18749
854.07        75.47447
854.48        74.09085
854.88        72.18922
855.29        70.42649
855.69        69.74673
856.10        70.31757
856.50        72.04695
856.90        74.33781
857.31        75.78036
857.71        75.93024
858.12        75.09559
858.52        73.88605
858.92        73.12239
859.33        72.99353
859.73        73.27432
860.13        73.83733
860.54        74.41387
860.94        74.94174
861.34        75.48751
861.75        75.97013
862.15        76.33954
862.55        76.54726
862.96        76.56686
863.36        76.50852
863.76        76.54438
864.17         76.7201
864.57        77.04099
864.97        77.42368
865.38        77.72586
865.78        77.95996
866.18        78.09281
866.58        78.20818
866.99        78.43699
867.39        78.85642
867.79        79.44688
868.19        79.94952
868.60        79.88206
869.00        79.16339
869.40        77.96096
869.80          76.893
870.21        76.90628
870.61        78.27948
871.01        80.70327
871.41        83.43044
871.81        85.17676
872.22        85.56419
872.62        84.94161
873.02        83.91837
873.42        83.63898
873.82        84.21474
874.22        84.99192
874.63         85.7151
875.03        85.95872
875.43        85.48251
875.83        85.34436
876.23        84.02558
876.63         83.5707
877.03        83.89896
877.44        85.24873
877.84        103.6702
878.24        91.88594
878.64        91.99785
879.04        91.71095
879.44        87.53901
879.84        85.42561
880.24        89.36555
880.64        91.46633
881.04        92.47802
881.44        92.91668
881.84        92.19432
882.24        90.58334
882.65        89.08082
883.05        88.65565
883.45        89.47992
883.85        91.51347
884.25        93.98669
884.65        95.29101
885.05        94.95432
885.45        93.52984
885.85        91.89415
886.25         91.2521
886.65        91.85181
887.05        93.27756
887.45        95.01401
887.85        96.14507
888.25        96.33041
888.65          95.896
889.04        95.09714
889.44        94.36786
889.84        93.85612
890.24        93.39085
890.64        93.03642
891.04        92.91441
891.44        93.01671
891.84        93.38775
892.24        93.78799
892.64        93.74188
893.04        93.21584
893.44        92.42116
893.83        91.75237
894.23        91.81207
894.63        92.67107
895.03        94.05598
895.43        95.74001
895.83        97.26997
896.23        98.38557
896.63        99.22392
897.02        99.48048
897.42        98.70726
897.82        96.99338
898.22        94.54556
898.62        92.25102
899.01        91.40392
899.41        92.22156
899.81        94.26433
900.21        96.65302
900.61        97.93446
901.00         97.7146
901.40        96.44444
901.80        94.74477
902.20        93.59505
902.59        93.28603
902.99        93.50715
903.39        93.94014
903.79        94.05221
904.18        93.69845
904.58        93.17041
904.98        92.71619
905.38        92.67648
905.77        93.09837
906.17        93.77691
906.57        94.56295
906.96        95.32187
907.36        95.91106
907.76        96.38275
908.15        96.61232
908.55        96.28348
908.95        95.42603
909.34        94.10399
909.74        92.72332
910.14        91.74654
910.53        91.33922
910.93         91.4685
911.33        91.94985
911.72        92.43534
912.12         92.7205
912.52        92.83961
912.91        92.98231
913.31        93.41461
913.70        94.22814
914.10        95.36494
914.49        96.41951
914.89        96.34753
915.29        94.91212
915.68        92.53427
916.08        90.35983
916.47         89.4407
916.87        89.86717
917.26         91.2962
917.66         92.9395
918.05        93.52582
918.45        92.73563
918.84        91.05958
919.24        89.27883
919.64        88.51208
920.03        89.06756
920.42        90.55511
920.82        92.51593
921.21        94.29089
921.61        95.37692
922.00         95.9575
922.40        95.97638
922.79        95.37087
923.19        94.27972
923.58        92.66289
923.98         90.7038
924.37        89.25191
924.77        88.88374
925.16        87.16798
925.55        88.44004
925.95        89.44321
926.34        91.34173
926.74        93.70281
927.13        95.94181
927.52        96.83313
927.92        96.22581
928.31        94.50038
928.70        92.20233
929.10        90.29876
929.49        89.08176
929.89        88.33809
930.28        88.21383
930.67        88.93638
931.07        90.31537
931.46        92.35214
931.85        94.26492
932.24        94.87436
932.64        93.97542
933.03        91.73532
933.42        88.79607
933.82        86.67504
934.21        85.85972
934.60        86.01701
934.99        86.52867
935.39        86.75049
935.78        86.57924
936.17        85.82288
936.56        84.32082
936.96        85.28136
937.35        84.25187
937.74        84.72089
938.13        85.22227
938.53        85.98347
938.92        87.03712
939.31        88.47153
939.70        89.93723
940.09        90.34639
940.49        89.42065
940.88        87.66704
941.27         85.8693
941.66          84.952
942.05        85.03133
942.44        85.75788
942.84        86.93925
943.23        88.31275
943.62        89.57839
944.01        90.79408
944.40        91.59938
944.79        91.43346
945.18        90.17335
945.57        87.80016
945.97        84.87849
946.36        82.97792
946.75        82.80355
947.14        83.84382
947.53        85.26145
947.92        86.16124
948.31         86.4392
948.70        86.40164
949.09        86.17237
949.48        86.00101
949.87        85.99503
950.26        85.93674
950.65        85.90266
951.04        86.07597
951.43        86.44343
951.82        87.01217
952.21        87.38182
952.60        86.88274
952.99        85.45145
953.38        83.33794
953.77        81.22837
954.16        80.11858
954.55        80.20837
954.94        81.27383
955.33        82.63663
955.72        83.13915
956.11        82.48716
956.50        80.97301
956.89        79.41042
957.28         79.2896
957.66        81.07088
958.05        84.01561
958.44         87.1068
958.83        88.86611
959.22        88.91234
959.61        87.63447
960.00        85.69911
960.39        84.18871
960.78        83.46313
961.16        83.28739
961.55        83.16934
961.94        82.30157
962.33        80.59309
962.72        78.49239
963.11        76.68813
963.49        76.02147
963.88        76.60943
964.27        78.23221
964.66        80.33009
965.04        81.67259
965.43        81.66274
965.82        80.72311
966.21        79.52213
966.60        78.96707
966.98        79.25458
967.37        80.02021
967.76        80.96894
968.15        81.53432
968.53        81.48993
968.92        81.03407
969.31        80.33843
969.69        79.54733
970.08        78.75991
970.47        77.97467
970.86        77.21734
971.24        76.57427
971.63        76.10159
972.02        75.78478
972.40        75.83481
972.79        76.55765
973.17           78.05
973.56        80.08694
973.95        82.06007
974.33        82.81554
974.72        81.99886
975.11        80.00727
975.49        77.74853
975.88        76.47437
976.26        76.35353
976.65        77.09728
977.04        78.06763
977.42        77.75071
977.81        75.71529
978.19        72.69131
978.58        70.13303
978.96        69.36634
979.35        70.57922
979.74        73.46772
980.12        77.56548
980.51        80.69288
980.89        82.10313
981.28        82.13669
981.66        81.44796
982.05        80.96546
982.43        80.89552
982.82        80.90559
983.20         81.1036
983.59        81.74191
983.97        82.90463
984.35        84.66579
984.74        86.36119
985.12        86.80099
985.51        85.27322
985.89        82.02778
986.28          78.143
986.66         75.2835
987.04        74.17678
987.43        74.43444
987.81        75.11669
988.20        75.03239
988.58        73.77521
988.96        71.10877
989.35        67.52575
989.73        66.10778
990.12        68.83939
990.50         74.4826
990.88        79.15752
991.27         79.8606
991.65        77.06821
992.03        71.67567
992.42         66.0913
992.80        64.55315
993.18        67.97552
993.56         73.8592
993.95         79.7001
994.33         83.2345
994.71        84.08035
995.10        83.41553
995.48         81.6541
995.86        79.18456
996.24        76.25301
996.63         72.3866
997.01        68.48339
997.39        67.39704
997.77        70.21593
998.15        76.31742
998.54        82.63502
998.92        85.02733
999.30        82.26176
999.68         75.2882
1000.06        65.91293
1000.45         58.8109
1000.83        56.03046
1001.21        56.22009
1001.59        58.07236
1001.97        60.09925
1002.35        61.83821
1002.73        64.11535
1003.12        66.17321
1003.50        65.60832
1003.88        61.77573
1004.26        56.02987
1004.64        50.88733
1005.02        48.43526
1005.40        48.79922
1005.78        51.90381
1006.16        58.61604
1006.54        66.75433
1006.92        71.59987
1007.30        72.91299
1007.69        72.45074
1008.07        71.99535
1008.45        71.71468
1008.83        70.90321
1009.21        67.20666
1009.59        50.28604
1009.97       -4.997525
1010.35       -91.08313
1010.73       -85.17849
1011.11       -34.95443
1011.49        3.181305
1011.86        30.93336
1012.24        46.71517
1012.62        53.29555
1013.00        54.23931
1013.38        51.03852
1013.76        45.84825
1014.14        46.38026
1014.52        59.18705
1014.90        85.98431
1015.28        119.4368
1015.66        137.1102
1016.04        125.5231
1016.41        89.56005
1016.79        49.71267
1017.17        28.01149
1017.55        24.01526
1017.93        27.06734
1018.31        32.27036
1018.69        37.64896
1019.06        43.37722
1019.44        50.84877
1019.82        61.60322
1020.20        74.34267
1020.58        85.93085
1020.95        91.97395
1021.33        77.15983
1021.71        392.3578
1022.09        140.0924
1022.46        129.2233
1022.84        128.2732
1023.22        134.4875
1023.60        155.8747
1023.97        370.9811
1024.35        5.929089
1024.73        46.93018
