SpectraSmart Spectrum 2.9.0.0
--------- Device Information -----------
Spectrum Name :  反射率_0
Saving Time :  2024/04/26 01:09:30
Spectro-Module Model Name : SE2030-DUVN
Spectro-Module Serial Number : OS361AC55029948
Wavelength Start : 200
Wavelength End : 1025
Wavelength Unit : Wavelength(nm)
Spectrum Unit : Reflectance(%)
-----------Spectrum Setting ------------
Integration Time : 20ms
Average : 10
Boxcar : 0
Background removal :  enabled
linearity correction :  enabled
SC :  disabled
Intensity correction :  disabled
DWT denoise :  enabled
savitzky-golay :  disabled
FFT :  disabled
Running average :  disabled
Kalman :  disabled
High pass :  disabled
---------------BEGIN--------------------
Wavelength(nm)             Reflectance(%)
200.29               0
200.75         98.4508
201.21        87.42533
201.67        74.34323
202.13        66.35135
202.58        64.45943
203.04        66.87081
203.50         71.4788
203.96        74.66174
204.42        75.16267
204.88        74.20574
205.34        73.11082
205.80        73.20833
206.26        75.11562
206.72         79.9211
207.18         88.2841
207.64         90.8099
208.10        77.37189
208.55        62.05783
209.01        55.01229
209.47        55.55039
209.93        60.94746
210.39        70.51305
210.85        81.10249
211.31        85.01269
211.77        79.62988
212.23        67.72223
212.69        55.20834
213.14        51.29772
213.60        57.59326
214.06        71.33072
214.52        86.87982
214.98        95.54669
215.44        95.18582
215.90        88.92549
216.36        80.42608
216.81        74.65784
217.27        73.16276
217.73        74.07982
218.19        75.31635
218.65        74.25797
219.11        69.83504
219.57        61.56011
220.02        50.60641
220.48        44.00478
220.94         45.6188
221.40        53.81496
221.86         61.0648
222.32        59.51458
222.77        50.50885
223.23        38.76317
223.69        29.42747
224.15        27.77691
224.61        32.98573
225.06        42.17327
225.52        51.30092
225.98        55.14677
226.44        52.81547
226.90        46.62132
227.36        39.29753
227.81        34.52802
228.27        33.49907
228.73        34.71786
229.19         37.2466
229.65        39.71864
230.10        41.48915
230.56         42.9479
231.02        43.98101
231.48        44.36126
231.93        44.16864
232.39        43.47398
232.85        42.52826
233.31        41.83632
233.77        41.50301
234.22        41.35777
234.68        41.34296
235.14        41.24297
235.60        41.00215
236.05        40.82775
236.51         40.5723
236.97        39.89871
237.43        38.77298
237.88         37.1951
238.34        35.76709
238.80        36.19679
239.26        39.23695
239.71        44.58543
240.17        50.72754
240.63        55.32917
241.08        57.61652
241.54        57.92526
242.00        57.28434
242.46        57.36475
242.91        59.22358
243.37         63.9708
243.83        78.52233
244.28        124.3456
244.74        173.6355
245.20        144.4903
245.66        118.7873
246.11        111.5403
246.57        114.9684
247.03        132.5897
247.48        187.6325
247.94          165.78
248.40         108.144
248.85        89.66655
249.31        84.42052
249.77        84.68741
250.22        88.32645
250.68        95.46139
251.14        105.3293
251.59         109.809
252.05        102.1974
252.51        87.24503
252.96        72.63535
253.42        64.81902
253.88        62.99347
254.33        64.70448
254.79        69.21552
255.25        74.83208
255.70        80.02592
256.16        84.85741
256.62        87.62862
257.07        86.60784
257.53         82.7746
257.99        76.85118
258.44        70.75467
258.90        67.64374
259.35        66.73121
259.81        66.90011
260.27        66.31377
260.72         63.1982
261.18        58.25932
261.63         52.2962
262.09        46.86166
262.55         43.1113
263.00        41.01133
263.46        40.05049
263.91        39.33236
264.37        38.11896
264.83        36.24762
265.28        33.90549
265.74        31.72157
266.19        30.42742
266.65        30.19482
267.11        30.58036
267.56        30.98081
268.02         30.6764
268.47        29.55697
268.93        27.87414
269.38        25.97882
269.84        24.69964
270.30        24.26572
270.75        24.44667
271.21        24.83251
271.66        24.81626
272.12        24.23398
272.57        23.29156
273.03        22.31054
273.48        21.69136
273.94        21.54168
274.39        21.67117
274.85        21.83695
275.31        21.69643
275.76         21.1735
276.22        20.42134
276.67        19.62168
277.13        19.10375
277.58        18.89282
278.04        18.89906
278.49        18.92546
278.95        18.73864
279.40        18.28008
279.86        17.67996
280.31        17.05871
280.77         16.6856
281.22        16.57004
281.68        16.63104
282.13         16.7332
282.59        16.70653
283.04        16.51826
283.50         16.2596
283.95        15.98007
284.41        15.75978
284.86        15.62395
285.32         15.5454
285.77         15.5536
286.22        15.74627
286.68        16.09406
287.13        16.54356
287.59        16.94127
288.04        17.06128
288.50        16.88773
288.95        16.48421
289.41        16.02482
289.86        15.68256
290.32        15.55928
290.77        15.59937
291.22         15.7813
291.68        16.03046
292.13        16.33545
292.59        16.72818
293.04        17.24007
293.50        17.91179
293.95        18.72761
294.40        19.63122
294.86        20.55923
295.31        21.43518
295.77        22.24857
296.22        23.03564
296.68        23.81425
297.13        24.58054
297.58        25.36843
298.04        26.19944
298.49        27.15641
298.95         28.4085
299.40        29.96942
299.85        31.78479
300.31        33.70602
300.76        35.49038
301.21        37.04401
301.67        38.45036
302.12        39.74879
302.58        41.09116
303.03         42.5006
303.48        43.94717
303.94        45.48971
304.39        47.16883
304.84        48.98382
305.30        50.91625
305.75        52.80162
306.20        54.40244
306.66        55.69518
307.11        56.71212
307.57        57.65107
308.02        58.70885
308.47         59.9871
308.93        61.42876
309.38        62.92468
309.83        64.34615
310.29        65.63143
310.74        66.78217
311.19        67.84377
311.65        68.88816
312.10        69.92184
312.55        70.93137
313.00        71.81409
313.46        72.41391
313.91        72.70343
314.36        72.76797
314.82        72.82113
315.27        73.14194
315.72        73.82397
316.18         74.7847
316.63        75.86748
317.08        76.76628
317.53        77.37767
317.99        77.76489
318.44          78.066
318.89        78.51936
319.35        79.16076
319.80        79.92915
320.25        80.63113
320.70        80.95843
321.16        80.85509
321.61        80.44251
322.06        79.95244
322.51        79.74228
322.97        79.88568
323.42        80.31229
323.87        80.85807
324.32        81.23743
324.78        81.35177
325.23        81.32027
325.68        81.22398
326.13        81.21927
326.59        81.33794
327.04        81.55148
327.49        81.82406
327.94        82.13092
328.39        82.45507
328.85        82.79582
329.30        83.17819
329.75        83.49152
330.20        83.73154
330.66        83.91074
331.11        84.15654
331.56        84.60509
332.01        85.30077
332.46        86.18525
332.92        87.15088
333.37        88.16723
333.82         89.0969
334.27        89.93797
334.72        90.59715
335.17        90.94138
335.63        90.96531
336.08        90.76215
336.53        90.48056
336.98        90.40269
337.43        90.61684
337.88        91.05348
338.34        91.65575
338.79        92.40303
339.24        93.21222
339.69        94.11626
340.14        94.94878
340.59        95.41649
341.05        95.47259
341.50        95.18057
341.95        94.83325
342.40        94.90063
342.85        95.47596
343.30        96.42441
343.75        97.46294
344.20        98.08752
344.66        98.16392
345.11        97.84003
345.56        97.34586
346.01        97.02361
346.46        96.98257
346.91        97.12395
347.36        97.35731
347.81        97.54973
348.26        97.66343
348.72        97.76867
349.17        97.89165
349.62        98.11296
350.07        98.43359
350.52        98.79531
350.97        99.12086
351.42         99.3116
351.87        99.34466
352.32        99.25437
352.77        99.08343
353.22        98.90089
353.67         98.7347
354.13        98.58131
354.58        98.41621
355.03          98.256
355.48        98.09326
355.93        97.92513
356.38        97.72504
356.83        97.44711
357.28        97.07914
357.73        96.63272
358.18        96.12399
358.63         95.5819
359.08        95.02416
359.53        94.45376
359.98        93.87768
360.43        93.30332
360.88        92.72818
361.33        92.14515
361.78        91.56477
362.23        91.00229
362.68        90.46452
363.13        89.96291
363.58        89.45173
364.03         88.8541
364.48        88.16384
364.93        87.40125
365.38        86.66682
365.83        86.12714
366.28        85.79978
366.73        85.61076
367.18        85.42976
367.63         85.0462
368.08        84.41769
368.53        83.64356
368.98        82.79298
369.43        81.96101
369.88        81.19558
370.33        80.46406
370.78        79.85038
371.23        79.49812
371.68        79.41423
372.13        79.55186
372.58        79.73203
373.03        79.64468
373.48        79.21512
373.93        78.54224
374.38        77.77725
374.83        77.15548
375.28        76.74506
375.72        76.46159
376.17        76.27943
376.62        76.13221
377.07        75.97361
377.52        75.80473
377.97         75.5901
378.42         75.2677
378.87        74.83479
379.32        74.33048
379.77        73.75288
380.22         73.0969
380.67        72.37663
381.11        71.59536
381.56        70.87421
382.01         70.4155
382.46        70.26607
382.91        70.39327
383.36        70.58541
383.81        70.49728
384.26        70.05956
384.71         69.3581
385.15        68.64375
385.60        68.36217
386.05        68.53674
386.50        69.00944
386.95         69.4589
387.40         69.3528
387.85        68.62324
388.29         67.5038
388.74        66.39847
389.19        65.59333
389.64        65.14705
390.09        64.91503
390.54        64.88914
390.98        65.05755
391.43        65.35999
391.88         65.7739
392.33        66.09186
392.78        65.96138
393.23        65.37684
393.67        64.55771
394.12        63.82137
394.57        63.17986
395.02         62.8194
395.47         63.1784
395.91        64.09382
396.36        64.65826
396.81        64.72052
397.26        64.68085
397.71        64.57577
398.15        64.24376
398.60        63.80106
399.05         63.3341
399.50        62.89136
399.95        62.27663
400.39        61.82985
400.84        61.55764
401.29        61.52024
401.74        61.49562
402.18        61.47876
402.63         61.5451
403.08        61.72025
403.53        61.97086
403.97        62.26805
404.42        62.57891
404.87        62.79505
405.32        62.70923
405.76        62.29092
406.21         61.7626
406.66        61.24313
407.11        60.72908
407.55        60.39813
408.00        60.56142
408.45        61.11158
408.90        61.59919
409.34        61.75926
409.79        61.33424
410.24        60.56633
410.68         60.2062
411.13        60.34293
411.58         60.5376
412.03        60.74002
412.47        61.06887
412.92        61.43681
413.37        61.82423
413.81         62.1273
414.26        62.23095
414.71        62.10381
415.15        61.77421
415.60        61.36662
416.05        61.10535
416.49          61.057
416.94        61.18524
417.39        61.35461
417.83        61.31286
418.28        61.02481
418.73        60.58717
419.17        60.19297
419.62        60.14918
420.07        60.47474
420.51        61.05332
420.96        61.68143
421.41        61.94822
421.85        61.73308
422.30        61.45804
422.74        61.17405
423.19        60.59711
423.64        59.97319
424.08        60.33176
424.53        61.48623
424.98        62.12678
425.42        62.09311
425.87        62.23968
426.31        62.59098
426.76            62.5
427.21        62.17165
427.65         62.4577
428.10        63.27803
428.54        64.00219
428.99         64.5713
429.44        64.88974
429.88        64.95866
430.33        65.64194
430.77        66.38033
431.22        65.27175
431.66        62.86533
432.11        61.62238
432.56        61.85044
433.00        62.61747
433.45        63.70216
433.89        65.52529
434.34         66.8543
434.78        67.47215
435.23        63.78772
435.67        62.82778
436.12        65.10395
436.57        66.41199
437.01        66.71918
437.46        67.06287
437.90        67.65192
438.35        66.56838
438.79        67.36158
439.24        67.12521
439.68        66.94812
440.13        66.69954
440.57        66.64579
441.02        67.46976
441.46        68.79304
441.91        69.57259
442.35        69.57823
442.80        68.84501
443.24        67.80189
443.69        68.42274
444.13        70.28856
444.58        70.40565
445.02        68.71758
445.47        68.42596
445.91        69.41484
446.36        69.74342
446.80        69.36117
447.24         69.2948
447.69        69.58566
448.13        69.85766
448.58        70.10259
449.02         70.3719
449.47        70.62915
449.91        70.82368
450.36        70.94323
450.80        70.99648
451.25        70.98602
451.69        70.85256
452.13        70.64791
452.58        70.47619
453.02        70.38701
453.47        70.42292
453.91        70.57503
454.36        70.85422
454.80        71.17191
455.24        71.25021
455.69        71.05383
456.13        70.84701
456.58        70.72338
457.02        70.24465
457.46        69.71314
457.91        70.13425
458.35        71.21813
458.79        71.65614
459.24        71.37003
459.68          70.981
460.13        70.62649
460.57        70.35609
461.01         70.1399
461.46        69.90415
461.90        69.49246
462.34         70.0518
462.79        69.51718
463.23        69.59698
463.68        70.05588
464.12        70.52736
464.56        70.94309
465.01        70.76345
465.45        70.10091
465.89        70.02905
466.34        70.30025
466.78        69.44437
467.22        68.05633
467.67        66.92591
468.11        68.64378
468.55        69.36105
468.99        69.48701
469.44        69.21131
469.88        68.73668
470.32        68.77953
470.77        69.26145
471.21        69.34324
471.65        68.98115
472.10        68.82739
472.54        68.90899
472.98        68.93906
473.42        68.90495
473.87        69.02165
474.31         69.1847
474.75        69.01015
475.20        68.61364
475.64        68.54929
476.08        68.85311
476.52        68.90246
476.97        68.63609
477.41        68.78581
477.85        69.45377
478.29        68.46021
478.74          69.271
479.18        69.28142
479.62        68.06451
480.06        68.55717
480.50        68.84621
480.95        69.29607
481.39        69.45019
481.83         68.3968
482.27        68.69912
482.72        68.55675
483.16        67.35777
483.60        67.55256
484.04        68.81004
484.48        69.16608
484.93        69.19963
485.37        70.56449
485.81        71.02946
486.25        70.65705
486.69        95.08708
487.14        76.83469
487.58        47.43008
488.02        58.53945
488.46        66.25368
488.90        66.19051
489.34        67.80985
489.79        67.16242
490.23        68.85771
490.67        69.69154
491.11        68.94101
491.55        68.95596
491.99         69.3207
492.43        69.10096
492.88        68.41239
493.32        68.38985
493.76        68.53644
494.20        68.76669
494.64        68.84188
495.08        68.95033
495.52        69.13269
495.96        69.14476
496.41        68.94207
496.85        69.30598
497.29         69.9996
497.73        68.80456
498.17         66.7551
498.61        67.21754
499.05        70.10847
499.49        70.66457
499.93         70.3641
500.37        70.03396
500.82        69.62312
501.26        69.24599
501.70        69.45188
502.14        69.59489
502.58        69.71425
503.02        69.70247
503.46        69.53655
503.90        69.22708
504.34        68.89181
504.78        68.74983
505.22        68.84006
505.66        69.07369
506.10        69.35355
506.54        69.55074
506.98        69.55422
507.42        69.47251
507.86        68.98048
508.30         68.8427
508.74        68.97443
509.18        69.20777
509.62        69.43021
510.06           69.53
510.50        69.47337
510.94        69.30309
511.38        69.11793
511.82        69.06516
512.26        69.17944
512.70        69.40914
513.14         69.6742
513.58        69.84727
514.02        69.88324
514.46        69.81499
514.90         69.6959
515.34        69.59321
515.78        69.52111
516.22        69.52618
516.66        69.57349
517.10        69.43309
517.54        69.09607
517.98        69.22557
518.42        68.99269
518.86        69.11741
519.30        69.33967
519.74        69.69553
520.18        70.07762
520.62        70.31097
521.06        70.36639
521.50        70.26581
521.93        70.07578
522.37         69.9743
522.81        70.01932
523.25        69.91234
523.69        70.08348
524.13         70.1227
524.57        70.15354
525.01        70.18452
525.45        70.23167
525.89        70.30743
526.32         70.3977
526.76        70.48771
527.20        70.55409
527.64        70.58285
528.08        70.58754
528.52        70.52393
528.96        70.36564
529.40        70.27042
529.83        70.28535
530.27        69.65158
530.71        69.81014
531.15        69.75442
531.59        69.90804
532.03        70.19462
532.46        70.55461
532.90        70.85284
533.34        71.02625
533.78        71.10744
534.22        71.09954
534.66        71.02039
535.09        70.87445
535.53        70.68332
535.97        70.46455
536.41        70.26935
536.85        70.12128
537.28        70.02528
537.72        69.97096
538.16        69.94755
538.60        69.94807
539.04        69.91472
539.47        69.85824
539.91        69.98396
540.35        70.21124
540.79        70.23714
541.22        70.06481
541.66        69.98363
542.10        69.99963
542.54        69.94163
542.97        69.84557
543.41        69.87957
543.85        70.03922
544.29        70.28704
544.72         70.5134
545.16        70.56389
545.60         70.3996
546.04        70.11007
546.47        69.81883
546.91        69.65725
547.35        69.71565
547.79        70.11929
548.22        70.64133
548.66        70.85152
549.10         70.6055
549.53        69.88501
549.97        69.03612
550.41        68.63134
550.84        68.75854
551.28        69.49915
551.72        69.97137
552.15        70.41599
552.59        70.52803
553.03        70.42571
553.46        70.18815
553.90        70.01481
554.34        69.96028
554.77        69.88269
555.21        69.79498
555.65        69.86698
556.08        70.22773
556.52        69.91566
556.96        70.50584
557.39        70.36366
557.83        70.07088
558.27        70.00393
558.70        70.20221
559.14        70.35677
559.57        70.42902
560.01        70.64616
560.45        70.91325
560.88        70.94316
561.32         70.7465
561.75        70.46507
562.19        70.21331
562.63        69.87056
563.06        69.55923
563.50        69.70918
563.93        70.18449
564.37        70.42603
564.80        70.35533
565.24        70.29301
565.68        70.25439
566.11        70.18715
566.55         70.1598
566.98        70.07266
567.42         69.9698
567.85        70.19392
568.29        70.71171
568.72        70.71501
569.16        70.37945
569.60        71.10967
570.03         71.3138
570.47        71.35027
570.90        71.20077
571.34        69.21167
571.77        70.32863
572.21        70.49955
572.64        69.88788
573.08        68.89008
573.51        65.84856
573.95        68.43968
574.38        72.73523
574.82        71.14426
575.25        70.32964
575.69        67.92151
576.12        66.89886
576.56        66.29169
576.99        67.84872
577.42        70.83175
577.86        70.83831
578.29        70.20151
578.73        73.62577
579.16        68.05207
579.60        62.40471
580.03        65.16599
580.47         69.4619
580.90         70.9202
581.33        69.73638
581.77        68.64772
582.20        75.78082
582.64        75.30428
583.07        64.29161
583.51        63.02516
583.94        62.04904
584.37        64.86951
584.81        68.08945
585.24        71.70135
585.68        73.48144
586.11        72.02921
586.54        67.08344
586.98        65.22179
587.41        65.44627
587.85        69.25165
588.28        71.45112
588.71        67.99464
589.15        65.83202
589.58        67.09722
590.01        67.51411
590.45        68.49461
590.88        69.50263
591.31        68.86774
591.75        68.35794
592.18         68.3933
592.61        70.00921
593.05        70.19253
593.48         73.4362
593.91        74.41853
594.35         68.1872
594.78        66.81063
595.21        66.37881
595.65        69.36804
596.08        72.11754
596.51        69.16873
596.94        67.32238
597.38        68.00281
597.81        70.84434
598.24         72.3829
598.68         70.8719
599.11        69.97105
599.54        72.83289
599.97        74.10781
600.41        69.21311
600.84        69.30745
601.27        70.63754
601.70        69.83463
602.14        69.64917
602.57        68.56485
603.00        68.98174
603.43        70.53865
603.87        72.22816
604.30        72.05051
604.73         69.4527
605.16        68.27163
605.60        69.43222
606.03        70.65268
606.46         71.4575
606.89        71.40908
607.32        68.89043
607.76        68.94326
608.19        71.15719
608.62        70.34943
609.05        69.19061
609.48        69.72556
609.92        69.57256
610.35        69.26457
610.78        71.39215
611.21        71.67358
611.64        68.72802
612.07         69.4334
612.50        69.92131
612.94        70.31186
613.37        69.49358
613.80        70.34734
614.23        70.51826
614.66        70.43317
615.09        70.46722
615.52        70.52361
615.96        70.69037
616.39        70.85742
616.82         69.8334
617.25        69.54267
617.68        70.32935
618.11        70.86999
618.54        71.12163
618.97         70.5913
619.40        69.67902
619.84        69.74005
620.27        70.67126
620.70        71.37708
621.13        71.65585
621.56        70.76459
621.99        69.77505
622.42         70.4741
622.85        72.56003
623.28        72.13731
623.71        71.42683
624.14        71.47448
624.57        71.11004
625.00        71.18031
625.43        71.29463
625.86         70.7207
626.29        70.83195
626.72        71.45798
627.15        71.12852
627.58        71.40912
628.01        71.68537
628.44        71.69517
628.87         71.5162
629.30        71.61852
629.73        72.17294
630.16        72.25645
630.59        71.90392
631.02        71.52599
631.45        71.23491
631.88         70.9704
632.31        70.75412
632.74        70.86118
633.17        70.79121
633.60        70.85206
634.03        70.87927
634.46        70.93456
634.89         70.9911
635.32        70.95389
635.75        70.85536
636.18        70.82613
636.61        70.89439
637.04        70.98826
637.47        71.10228
637.89        71.31585
638.32        71.54115
638.75        71.59996
639.18        71.45673
639.61        71.32705
640.04        71.00195
640.47        70.81556
640.90        70.72462
641.33        70.70098
641.76        70.70245
642.18        70.76631
642.61        70.87659
643.04        70.86379
643.47        70.68255
643.90        71.17594
644.33        70.87324
644.76        70.95951
645.18        70.98396
645.61        70.94843
646.04        70.83861
646.47        70.65427
646.90         70.4972
647.33        70.47623
647.75        70.62961
648.18        70.96762
648.61         71.2825
649.04        71.24145
649.47        70.80768
649.89        69.98495
650.32        69.18357
650.75         69.1347
651.18        69.81518
651.61        70.62783
652.03         71.1749
652.46          71.158
652.89        70.91295
653.32        70.25661
653.74        69.59098
654.17        70.88081
654.60        71.80399
655.03        69.20322
655.46        70.03292
655.88        74.04106
656.31        78.84171
656.74        176.4343
657.16        113.9669
657.59        40.25927
658.02        30.58905
658.45        53.16825
658.87        68.02176
659.30        70.80502
659.73        71.02765
660.15         68.0663
660.58        70.63718
661.01        72.34712
661.44        70.32909
661.86        69.66893
662.29        69.56209
662.72        70.25548
663.14        71.50565
663.57        71.46562
664.00        70.37885
664.42         70.1587
664.85        70.87525
665.27        71.30135
665.70        71.23883
666.13        71.07027
666.55        70.78208
666.98        70.26253
667.41        69.70399
667.83        69.47766
668.26        69.65775
668.69        70.09322
669.11        70.54237
669.54        70.96166
669.96        70.61031
670.39        70.14573
670.82        69.58103
671.24        69.30364
671.67        69.43262
672.09        69.76942
672.52        70.09028
672.94        70.67542
673.37        70.25384
673.80        70.14717
674.22        70.06232
674.65        70.00156
675.07        69.96011
675.50        69.80192
675.92        69.59365
676.35        69.55116
676.77        69.69564
677.20        69.89317
677.62        70.10281
678.05        70.25015
678.47        70.29536
678.90        70.32368
679.32        70.28133
679.75          70.165
680.17        70.24115
680.60        70.28031
681.02        70.30679
681.45        70.20418
681.87        69.97002
682.30        69.65205
682.72         69.3847
683.15        69.33958
683.57        69.56895
684.00        70.10753
684.42        70.66587
684.85        70.93408
685.27        70.80038
685.70        70.41325
686.12        69.93846
686.54        69.68556
686.97        69.72921
687.39        69.93845
687.82        70.16544
688.24        70.37798
688.66         70.4989
689.09        70.04274
689.51         69.8937
689.94        69.74751
690.36        69.88699
690.78        70.15023
691.21        70.44038
691.63        70.62968
692.06        70.67169
692.48         70.6302
692.90         70.5638
693.33        70.54642
693.75        70.60116
694.17        70.70176
694.60        70.83863
695.02        70.95888
695.44         71.0042
695.87        71.22623
696.29        71.57738
696.71        71.25194
697.14        70.51319
697.56         70.9804
697.98        72.34292
698.41        72.18156
698.83        71.22801
699.25        70.58392
699.68        70.57173
700.10        70.45271
700.52        70.25977
700.94        70.38837
701.37        70.76064
701.79        71.13933
702.21        71.42819
702.64        71.69425
703.06        71.86135
703.48        71.80527
703.90        71.53474
704.33        71.08474
704.75        70.59885
705.17        70.40321
705.59        70.57666
706.01        70.91447
706.44        71.25361
706.86        71.93958
707.28        71.93842
707.70        72.04951
708.12        72.01869
708.55        71.90352
708.97        71.70953
709.39        71.43122
709.81        71.15781
710.23        71.03488
710.66        71.09891
711.08        71.34577
711.50        71.62971
711.92        71.72544
712.34        71.58229
712.76        71.25269
713.19        70.89332
713.61        70.79159
714.03        70.99684
714.45        71.42202
714.87        71.86729
715.29        72.01769
715.71        71.80625
716.13        71.33762
716.56        70.80774
716.98        70.56098
717.40         70.6767
717.82        71.04774
718.24        71.50549
718.66        71.76457
719.08        71.74484
719.50        71.54355
719.92        71.26364
720.34        71.08578
720.76        71.06795
721.19        71.02765
721.61        71.17006
722.03        71.33301
722.45        71.55299
722.87         71.8293
723.29        72.09429
723.71        72.22375
724.13        72.19054
724.55         72.0259
724.97        71.80975
725.39        71.68349
725.81        71.68625
726.23        71.77749
726.65         71.9108
727.07        72.00645
727.49        72.04366
727.91        72.06142
728.33        72.06573
728.75        72.06336
729.17        72.06016
729.59        72.03717
730.01        72.04204
730.43        72.14684
730.85        72.36181
731.27        72.69421
731.69         73.0249
732.10        73.13593
732.52        72.98553
732.94        72.67799
733.36        72.40414
733.78        72.33604
734.20        72.51787
734.62        73.19544
735.04        74.09996
735.46        74.05483
735.88        73.29127
736.30         73.4987
736.72        74.61926
737.13         74.9852
737.55        74.37541
737.97        74.13422
738.39        74.32308
738.81        73.64824
739.23        72.52058
739.65        73.28856
740.06        75.45304
740.48        75.67442
740.90        74.05132
741.32        73.34212
741.74        73.80374
742.16        74.07499
742.57        74.20024
742.99        74.94357
743.41        76.07722
743.83        76.78435
744.25         76.9162
744.67        76.67828
745.08        76.28964
745.50        76.10715
745.92        76.25086
746.34        76.59761
746.75        77.00282
747.17        77.22264
747.59        77.22044
748.01        77.08308
748.42        76.97725
748.84        77.18282
749.26        77.76165
749.68        78.46702
750.09         79.1344
750.51        79.80574
750.93        80.26753
751.35        79.85957
751.76        78.86275
752.18        78.49385
752.60        78.78938
753.01        78.88623
753.43        78.76355
753.85         78.9667
754.27        79.49971
754.68        80.13162
755.10        80.71508
755.52        81.16883
755.93        81.41496
756.35        81.40813
756.77        81.32011
757.18        81.28143
757.60        81.32741
758.02        81.85591
758.43        82.51524
758.85         81.7942
759.26        80.16692
759.68        79.93238
760.10        81.00102
760.51        81.55922
760.93        81.22482
761.34         80.4246
761.76        79.51016
762.18         79.0577
762.59        79.22621
763.01         79.6467
763.42        80.28391
763.84        80.91505
764.26        81.45037
764.67        81.89706
765.09        82.10197
765.50        81.84917
765.92        81.16957
766.33         79.8853
766.75        78.49369
767.16        78.11005
767.58        78.86345
768.00        80.28688
768.41        82.04544
768.83        83.47153
769.24        84.00153
769.66        83.43849
770.07        82.18846
770.49        80.47588
770.90        78.85217
771.32        79.49465
771.73        81.75694
772.15        81.22648
772.56        78.38093
772.97        77.91898
773.39        79.73833
773.80        80.46586
774.22        79.85319
774.63        79.89848
775.05        80.54999
775.46        80.89643
775.88        80.83467
776.29        80.61266
776.70        80.34225
777.12        80.24557
777.53        80.38888
777.95        80.64365
778.36        80.86778
778.77        80.81214
779.19        80.46906
779.60        79.93474
780.02        79.40594
780.43         79.2588
780.84        79.61875
781.26        79.94565
781.67        80.22666
782.09        81.30977
782.50        82.68003
782.91        82.01836
783.33        79.91606
783.74        79.26022
784.15        80.17591
784.57        80.75858
784.98        80.74416
785.39        80.58915
785.81        80.31216
786.22        79.91753
786.63        79.63715
787.04         79.6898
787.46        80.11131
787.87        80.91671
788.28        81.81734
788.70        82.22623
789.11         82.0271
789.52        81.42896
789.93        80.70982
790.35         80.2513
790.76        80.16092
791.17         80.3633
791.58        80.73198
792.00        80.96552
792.41        80.96442
792.82        80.95409
793.23        81.03941
793.65          80.718
794.06        80.27348
794.47        81.24575
794.88        82.93207
795.29        82.50543
795.71        80.21683
796.12        78.31563
796.53        77.38345
796.94        77.17397
797.35        77.71671
797.76        78.78925
798.18        79.88342
798.59        80.62418
799.00        80.71783
799.41        79.99819
799.82        78.87373
800.23        78.25806
800.64        78.33748
801.06        78.75264
801.47        79.37783
801.88         79.8913
802.29        80.16314
802.70        80.33822
803.11        80.40992
803.52        80.33788
803.93        80.14523
804.34        79.78916
804.75        79.45467
805.17        79.48237
805.58        79.95966
805.99        80.70266
806.40        81.37852
806.81        81.65904
807.22         81.3037
807.63        79.94352
808.04        78.16894
808.45        77.36131
808.86        77.72579
809.27        78.70849
809.68        79.85857
810.09        80.50642
810.50        80.39117
810.91        79.73144
811.32        78.86811
811.73        78.34864
812.14        78.32924
812.55        78.59671
812.96        79.02216
813.37        79.38084
813.78        79.56716
814.19        79.71532
814.60        79.71736
815.01        79.38332
815.42        78.72014
815.83        77.73628
816.24         76.8039
816.65        76.58561
817.05        77.26707
817.46        78.63635
817.87        80.13773
818.28        80.76254
818.69        80.24535
819.10        78.82484
819.51         77.1871
819.92        76.50207
820.33        77.06405
820.74        78.52356
821.14        80.18167
821.55        80.79444
821.96         80.1041
822.37        78.55016
822.78        76.80075
823.19          75.841
823.60        75.93158
824.00        76.81015
824.41        78.02048
824.82        78.87975
825.23        79.08669
825.64         78.8746
826.04        78.43876
826.45        78.05775
826.86        77.82628
827.27        77.60902
827.68        77.40269
828.08        77.26687
828.49        77.14787
828.90        77.13662
829.31        77.15415
829.72        77.02293
830.12        76.74201
830.53        76.33682
830.94        76.02447
831.35        76.10081
831.75        76.65219
832.16        77.53249
832.57        78.52306
832.97        79.16368
833.38        79.23251
833.79        78.85059
834.20        78.30297
834.60        78.02407
835.01        78.14812
835.42        78.55311
835.82        78.97845
836.23        78.90383
836.64        78.26404
837.04        77.25489
837.45        76.26208
837.86        75.88873
838.26        76.27565
838.67        77.19778
839.08        78.30442
839.48        78.96127
839.89        78.93548
840.29        78.44822
840.70        77.73775
841.11         77.1489
841.51        76.80846
841.92        76.57751
842.33         76.4761
842.73        76.55762
843.14        76.76711
843.54        77.15325
843.95        77.51726
844.35        77.57906
844.76        77.26456
845.17        76.65273
845.57        75.96623
845.98        75.56577
846.38        75.53614
846.79        75.76657
847.19        76.09428
847.60        76.13671
848.00        75.84266
848.41        75.31823
848.81        74.79948
849.22        74.55621
849.62        74.70285
850.03        75.15616
850.43        75.79749
850.84        76.32124
851.24        76.65498
851.65        76.70149
852.05        76.72905
852.46        77.01012
852.86        77.60203
853.27        78.42833
853.67        78.95139
854.07        78.48022
854.48        77.02311
854.88        74.83788
855.29        72.72486
855.69         71.8268
856.10        72.36091
856.50        74.17785
856.90        76.57384
857.31        77.93436
857.71        77.76844
858.12        76.49306
858.52        74.85652
858.92        73.83108
859.33        73.63219
859.73        73.99165
860.13        74.73802
860.54        75.51008
860.94        76.19421
861.34        76.86705
861.75        77.46358
862.15        77.96751
862.55        78.33865
862.96        78.53129
863.36        78.61093
863.76        78.68325
864.17         78.7869
864.57        78.95223
864.97         79.1816
865.38        79.46354
865.78        79.82564
866.18        80.18485
866.58        80.52767
866.99        80.81293
867.39         81.0757
867.79        81.36345
868.19        81.46902
868.60        81.01616
869.00        79.99022
869.40        78.52485
869.80        77.32796
870.21        77.47855
870.61        79.25468
871.01         82.3196
871.41        85.69061
871.81        87.67989
872.22         87.8193
872.62        86.57375
873.02        84.85986
873.42        84.28133
873.82        85.05397
874.22        86.43327
874.63        87.94568
875.03        88.59949
875.43        87.93744
875.83        87.15202
876.23        85.32133
876.63        84.62388
877.03         85.1133
877.44        87.02274
877.84         102.848
878.24        94.66003
878.64        94.65353
879.04        93.74737
879.44        89.80105
879.84        87.72186
880.24         91.0767
880.64        93.06693
881.04        94.23923
881.44        94.67266
881.84        93.69691
882.24        91.69741
882.65         89.8736
883.05        89.44125
883.45        90.58805
883.85        93.18903
884.25        96.22833
884.65        97.66517
885.05        96.91777
885.45        94.72247
885.85        92.22125
886.25         90.9609
886.65        91.27797
887.05        92.66712
887.45        94.56518
887.85        95.96453
888.25        96.46312
888.65        96.40057
889.04        95.99502
889.44        95.61748
889.84        95.38716
890.24        95.11552
890.64        94.84541
891.04        94.69522
891.44        94.66227
891.84        94.78506
892.24         94.8901
892.64        94.62215
893.04        93.98464
893.44        93.18164
893.83        92.50989
894.23        92.40556
894.63        92.92605
895.03        93.86987
895.43         95.1418
895.83        96.53634
896.23        97.85672
896.63        99.11808
897.02        99.93198
897.42        99.70478
897.82         98.4386
898.22        96.39221
898.62        94.29274
899.01          93.205
899.41        93.37376
899.81        94.44118
900.21        95.92023
900.61        96.99072
901.00        97.36434
901.40        97.28584
901.80        96.91118
902.20        96.48684
902.59        96.12243
902.99        95.70905
903.39         95.2755
903.79        94.90242
904.18        94.63788
904.58        94.57095
904.98        94.69541
905.38        94.97137
905.77        95.33498
906.17        95.71819
906.57        96.12391
906.96        96.61988
907.36        97.12015
907.76        97.61703
908.15        97.86745
908.55         97.3745
908.95        96.14671
909.34         94.3311
909.74         92.5246
910.14        91.47926
910.53        91.41771
910.93        92.20604
911.33        93.45637
911.72        94.43806
912.12        94.81861
912.52        94.75671
912.91        94.59021
913.31        94.77703
913.70        95.45141
914.10        96.47903
914.49        97.45811
914.89        97.36331
915.29        95.95528
915.68        93.66977
916.08        91.57182
916.47        90.59146
916.87        90.81691
917.26        91.93623
917.66        93.24895
918.05        93.65269
918.45        92.87099
918.84        91.33018
919.24        89.73026
919.64        89.06364
920.03         89.6009
920.42         90.9994
920.82        92.81419
921.21        94.41735
921.61         95.3426
922.00        95.77074
922.40        95.70193
922.79          95.153
923.19        94.27222
923.58        93.01118
923.98        91.48464
924.37        90.33846
924.77        90.04036
925.16        88.40763
925.55        89.46175
925.95        90.44375
926.34        92.43157
926.74         94.9502
927.13         97.2785
927.52        97.98878
927.92        96.92158
928.31        94.56267
928.70        91.64577
929.10        89.42604
929.49        88.28293
929.89        87.92389
930.28        88.38361
930.67        89.69548
931.07        91.56973
931.46        94.01251
931.85        96.25304
932.24        97.15557
932.64        96.51616
933.03        94.47559
933.42        91.57263
933.82        89.16959
934.21        87.78596
934.60        87.23888
934.99        87.11621
935.39        86.95176
935.78         86.6704
936.17        86.05482
936.56        84.97023
936.96        86.34535
937.35        85.82863
937.74        86.58123
938.13        87.26411
938.53        88.16126
938.92        89.33804
939.31        90.86381
939.70        92.33255
940.09        92.58897
940.49        91.34843
940.88        89.16436
941.27        86.94709
941.66        85.73261
942.05        85.64301
942.44        86.33962
942.84        87.49749
943.23          88.619
943.62        89.38283
944.01        89.92496
944.40        90.17109
944.79        90.00918
945.18        89.42883
945.57        88.34206
945.97        86.95889
946.36        85.93633
946.75        85.61866
947.14        85.85853
947.53        86.32341
947.92        86.61238
948.31        86.67418
948.70        86.65076
949.09        86.59867
949.48        86.63239
949.87        86.78096
950.26        86.90163
950.65        87.04475
951.04        87.33325
951.43        87.74955
951.82        88.27839
952.21        88.57517
952.60        88.09488
952.99         86.7872
953.38        84.85236
953.77        82.89654
954.16        81.79192
954.55        81.71651
954.94        82.50227
955.33        83.51812
955.72        83.67965
956.11        82.73423
956.50        80.96381
956.89        79.22823
957.28        79.09608
957.66        81.03562
958.05         84.2794
958.44        87.72445
958.83        89.76009
959.22        89.97162
959.61        88.77937
960.00        86.87212
960.39        85.38174
960.78        84.68695
961.16        84.52163
961.55        84.42461
961.94        83.64883
962.33        82.09447
962.72        80.18775
963.11         78.5267
963.49        77.81413
963.88        78.15527
964.27        79.38084
964.66        81.01517
965.04        82.04786
965.43          81.969
965.82        81.09319
966.21        80.07262
966.60        79.79248
966.98        80.42433
967.37        81.66597
967.76        82.97545
968.15        83.33581
968.53        82.47887
968.92        80.76123
969.31        78.91961
969.69        77.88676
970.08        77.85442
970.47        78.60741
970.86        79.56496
971.24        79.70014
971.63        78.72036
972.02        76.89516
972.40        75.06814
972.79          74.738
973.17        76.42805
973.56        79.58994
973.95        83.14867
974.33        85.04456
974.72        84.55808
975.11        82.39515
975.49        79.68759
975.88        77.92944
976.26        77.37766
976.65        77.64094
977.04         78.1296
977.42        77.54784
977.81        75.56508
978.19         72.8559
978.58        70.80401
978.96        70.65969
979.35        72.57768
979.74        76.25817
980.12        80.99477
980.51        84.08308
980.89        84.63374
981.28        83.21809
981.66        80.93922
982.05        79.22826
982.43        78.40788
982.82        78.09515
983.20        78.18168
983.59        78.57069
983.97        79.25661
984.35        80.31795
984.74        81.51476
985.12        82.55056
985.51        82.97674
985.89        82.71027
986.28        81.67422
986.66        79.67036
987.04        77.20057
987.43        74.73685
987.81        72.54877
988.20        70.74001
988.58        69.12313
988.96        67.23096
989.35         65.7384
989.73        67.04629
990.12         71.8674
990.50        78.71133
990.88        83.68082
991.27        84.14204
991.65        80.76927
992.03        74.30785
992.42        67.36415
992.80        64.79138
993.18        67.74499
993.56        73.57427
993.95        79.59394
994.33        83.27111
994.71        84.16418
995.10        83.58768
995.48        81.86691
995.86        79.22504
996.24        75.89928
996.63        71.38502
997.01        66.90465
997.39        66.12605
997.77         70.3914
998.15        78.74823
998.54        87.39368
998.92        91.19512
999.30        88.72755
999.68        81.27468
1000.06        70.75983
1000.45        62.29373
1000.83        58.34555
1001.21        57.44854
1001.59        58.79799
1001.97        61.54988
1002.35        65.29726
1002.73        71.05412
1003.12        77.15739
1003.50        78.02517
1003.88        71.51192
1004.26         60.4779
1004.64        50.00173
1005.02        44.19011
1005.40        43.16694
1005.78        46.30378
1006.16        54.84159
1006.54         66.2709
1006.92        73.96184
1007.30        77.06339
1007.69        77.50314
1008.07        77.50691
1008.45        77.61139
1008.83        77.20902
1009.21        73.49944
1009.59        53.26892
1009.97       -16.99843
1010.35       -132.1035
1010.73       -125.2337
1011.11       -53.36854
1011.49        2.772985
1011.86        42.89606
1012.24        65.37926
1012.62        73.35977
1013.00        71.87108
1013.38        62.88179
1013.76        49.11168
1014.14        42.69604
1014.52        54.74802
1014.90        88.66571
1015.28        134.3468
1015.66        157.4728
1016.04        138.0477
1016.41        85.40909
1016.79        30.67327
1017.17        6.135828
1017.55         7.78397
1017.93         18.2285
1018.31        29.68698
1018.69        39.02338
1019.06        47.07724
1019.44        56.50159
1019.82        69.93986
1020.20        88.35191
1020.58        111.8543
1020.95        140.5343
1021.33         178.957
1021.71       -319.1245
1022.09        82.40256
1022.46        106.6879
1022.84        117.1352
1023.22        128.2836
1023.60        152.8765
1023.97        379.7894
1024.35       -3.745124
1024.73        37.70688
