SpectraSmart Spectrum 2.9.0.0
--------- Device Information -----------
Spectrum Name :  反射率_0
Saving Time :  2024/04/26 02:02:14
Spectro-Module Model Name : SE2030-DUVN
Spectro-Module Serial Number : OS361AC55029948
Wavelength Start : 200
Wavelength End : 1025
Wavelength Unit : Wavelength(nm)
Spectrum Unit : Reflectance(%)
-----------Spectrum Setting ------------
Integration Time : 20ms
Average : 10
Boxcar : 0
Background removal :  enabled
linearity correction :  enabled
SC :  disabled
Intensity correction :  disabled
DWT denoise :  enabled
savitzky-golay :  disabled
FFT :  disabled
Running average :  disabled
Kalman :  disabled
High pass :  disabled
---------------BEGIN--------------------
Wavelength(nm)             Reflectance(%)
200.29               0
200.75        93.71389
201.21        84.14723
201.67        73.57028
202.13        67.79194
202.58        67.47615
203.04        71.27568
203.50        76.93594
203.96        80.42034
204.42        80.58989
204.88          78.919
205.34        77.19067
205.80        77.33978
206.26        80.21009
206.72         87.1902
207.18        100.4654
207.64        110.0627
208.10        98.55817
208.55        80.38643
209.01        69.51723
209.47        65.64687
209.93        65.60421
210.39        68.11937
210.85        71.20448
211.31        70.88993
211.77        66.21976
212.23        58.78548
212.69        52.14494
213.14        51.85215
213.60        58.56781
214.06        70.53968
214.52        83.71625
214.98          91.954
215.44         93.5312
215.90        90.29885
216.36        84.73734
216.81        80.26381
217.27        78.18692
217.73          77.484
218.19        76.58398
218.65        73.23724
219.11        66.40092
219.57        55.28074
220.02        41.26469
220.48        32.86489
220.94        35.03653
221.40        45.75287
221.86        56.46605
222.32        58.18572
222.77         51.7892
223.23          42.022
223.69        33.79014
224.15        32.14272
224.61        36.44751
225.06        44.05783
225.52         51.4055
225.98        53.96387
226.44        51.01478
226.90        44.73553
227.36        37.52861
227.81        32.54933
228.27        30.93321
228.73        31.43522
229.19        33.49717
229.65        36.26906
230.10        39.05013
230.56        41.81823
231.02        44.11234
231.48        45.37137
231.93        45.63503
232.39        45.11374
232.85        44.13237
233.31        43.27826
233.77        42.73459
234.22        42.37534
234.68        42.20117
235.14        42.10484
235.60        42.10175
236.05        42.37405
236.51        42.88982
236.97        43.55764
237.43        44.43983
237.88        45.59456
238.34         47.3193
238.80        50.22858
239.26        54.26368
239.71        59.21614
240.17        63.71224
240.63        66.08875
241.08        66.10831
241.54        64.14088
242.00         61.7677
242.46        61.28083
242.91        64.15555
243.37        73.08906
243.83        100.8819
244.28        182.9019
244.74        259.8237
245.20        198.2253
245.66        151.0786
246.11        138.3841
246.57        144.8833
247.03        177.2078
247.48         277.952
247.94        236.8139
248.40        131.4369
248.85        98.38614
249.31        88.78609
249.77        88.55672
250.22        93.93909
250.68        105.0324
251.14        121.9184
251.59        135.0741
252.05        133.5806
252.51        121.0932
252.96        105.9675
253.42         96.7021
253.88        93.14478
254.33        92.41173
254.79        94.21079
255.25        97.60645
255.70        101.3508
256.16        105.5386
256.62        108.3983
257.07        108.0303
257.53        105.2964
257.99        100.6994
258.44        95.60654
258.90        92.77656
259.35        91.32813
259.81        90.51657
260.27        88.91486
260.72         85.1233
261.18        79.92033
261.63        73.85945
262.09        68.18674
262.55        63.57684
263.00        60.09697
263.46        57.60644
263.91        55.58962
264.37        53.82698
264.83        52.03595
265.28        50.15316
265.74         48.3887
266.19        46.79551
266.65        45.57937
267.11        44.62842
267.56        43.73711
268.02        42.64643
268.47        41.23037
268.93        39.57996
269.38        37.82989
269.84        36.45338
270.30        35.58967
270.75        35.13889
271.21        34.88245
271.66        34.47897
272.12        33.82087
272.57        32.99929
273.03        32.19661
273.48        31.59702
273.94        31.26939
274.39        31.10386
274.85        30.94956
275.31        30.57715
275.76        29.94013
276.22        29.14578
276.67        28.35114
277.13        27.88353
277.58        27.72644
278.04        27.78564
278.49        27.81192
278.95        27.52045
279.40        26.84501
279.86        25.97435
280.31        25.03727
280.77         24.3412
281.22        23.92109
281.68        23.70014
282.13        23.62387
282.59        23.65437
283.04        23.74176
283.50        23.92998
283.95        24.09336
284.41        24.05593
284.86        23.79482
285.32        23.37756
285.77        22.99506
286.22         23.0064
286.68        23.43688
287.13        24.12943
287.59        24.82528
288.04         25.1278
288.50        24.98341
288.95        24.51577
289.41        23.94118
289.86        23.47118
290.32        23.24232
290.77        23.18314
291.22         23.3058
291.68        23.58833
292.13        24.02467
292.59        24.64269
293.04        25.43729
293.50        26.38713
293.95        27.45546
294.40         28.6001
294.86        29.78255
295.31        30.96519
295.77        32.14999
296.22         33.3571
296.68        34.57957
297.13        35.77436
297.58        36.95637
298.04        38.14912
298.49        39.45311
298.95        41.07851
299.40        43.03947
299.85        45.26539
300.31        47.55894
300.76        49.59734
301.21        51.27298
301.67        52.70665
302.12        53.99162
302.58        55.38453
303.03        56.92397
303.48        58.56915
303.94        60.33694
304.39        62.18693
304.84        64.10847
305.30        66.10758
305.75        68.06734
306.20        69.83438
306.66         71.3958
307.11        72.73462
307.57        73.98237
308.02        75.21507
308.47        76.52637
308.93        77.90653
309.38        79.31094
309.83        80.72384
310.29        82.11573
310.74         83.4456
311.19        84.72704
311.65        85.97889
312.10        87.18732
312.55        88.36575
313.00         89.4049
313.46        90.13757
313.91        90.53305
314.36        90.66362
314.82        90.78115
315.27        91.21798
315.72        92.07914
316.18        93.26726
316.63        94.55846
317.08        95.52876
317.53        96.05537
317.99        96.24467
318.44        96.33421
318.89        96.72012
319.35        97.47399
319.80        98.49756
320.25        99.50655
320.70        100.0386
321.16        99.98601
321.61        99.50378
322.06        98.89423
322.51        98.62878
322.97        98.80426
323.42        99.32711
323.87        99.95358
324.32        100.2671
324.78        100.1489
325.23        99.78408
325.68        99.37256
326.13        99.26424
326.59        99.52787
327.04        100.0698
327.49        100.7432
327.94        101.3436
328.39        101.7858
328.85         102.112
329.30        102.3742
329.75        102.4828
330.20        102.4735
330.66        102.3594
331.11        102.3507
331.56        102.7077
332.01        103.5032
332.46        104.6524
332.92        105.9709
333.37        107.3139
333.82        108.4699
334.27        109.4629
334.72        110.1893
335.17        110.5144
335.63        110.4512
336.08        110.1008
336.53        109.6821
336.98        109.6032
337.43        109.9789
337.88        110.7081
338.34        111.6606
338.79        112.7005
339.24        113.6943
339.69        114.6992
340.14        115.5583
340.59        116.0029
341.05        116.0102
341.50        115.6361
341.95        115.1917
342.40        115.1785
342.85        115.7004
343.30        116.6197
343.75        117.6619
344.20        118.3294
344.66        118.4873
345.11        118.2802
345.56        117.8955
346.01        117.6126
346.46        117.5337
346.91        117.5751
347.36        117.7083
347.81        117.9016
348.26        118.1313
348.72        118.4256
349.17        118.7375
349.62        119.0228
350.07        119.2477
350.52         119.394
350.97        119.4394
351.42        119.3683
351.87        119.1873
352.32        118.9124
352.77        118.5714
353.22        118.2103
353.67         117.852
354.13        117.5077
354.58        117.1685
355.03        116.8743
355.48        116.6217
355.93        116.4016
356.38        116.1543
356.83        115.7854
357.28        115.2708
357.73        114.6268
358.18        113.9202
358.63        113.2609
359.08        112.6785
359.53        112.1538
359.98         111.609
360.43        110.9203
360.88        110.0632
361.33        109.0717
361.78        108.0712
362.23        107.2627
362.68        106.6958
363.13        106.3282
363.58        105.9885
364.03         105.402
364.48        104.5156
364.93        103.4065
365.38        102.2924
365.83        101.5298
366.28        101.1787
366.73        101.0982
367.18         101.043
367.63        100.6185
368.08        99.74258
368.53        98.59164
368.98        97.33036
369.43        96.19368
369.88        95.26785
370.33         94.4685
370.78        93.84975
371.23        93.50735
371.68        93.42465
372.13        93.58016
372.58        93.76305
373.03        93.60529
373.48        93.03056
373.93        92.14917
374.38        91.18929
374.83         90.5121
375.28        90.19912
375.72        90.11537
376.17        90.14159
376.62        90.06052
377.07        89.78371
377.52        89.36509
377.97        88.82036
378.42        88.17124
378.87        87.46257
379.32        86.72503
379.77        85.97566
380.22        85.23363
380.67        84.50566
381.11         83.7814
381.56        83.15405
382.01        82.77495
382.46        82.66563
382.91        82.79752
383.36        82.93615
383.81        82.70998
384.26        82.05779
384.71        81.08243
385.15        80.09053
385.60        79.61758
386.05        79.70067
386.50        80.16592
386.95        80.65407
387.40        80.56181
387.85        79.80415
388.29        78.62827
388.74        77.48336
389.19        76.68157
389.64        76.27943
390.09         76.1003
390.54        76.12097
390.98        76.30972
391.43        76.59886
391.88        76.97838
392.33        77.21399
392.78        76.93507
393.23        76.15662
393.67        75.05303
394.12        74.03663
394.57        73.36737
395.02        73.16956
395.47        73.50123
395.91        74.22517
396.36        74.78848
396.81        75.04595
397.26        75.16811
397.71        75.12708
398.15        74.74341
398.60        74.14106
399.05         73.4678
399.50        72.81725
399.95        71.95904
400.39        71.34224
400.84        71.06023
401.29        71.15659
401.74        71.32487
402.18        71.45519
402.63        71.39227
403.08        71.25646
403.53        71.41507
403.97        71.87005
404.42        72.35882
404.87        72.67733
405.32         72.5614
405.76        71.95792
406.21        71.13465
406.66        70.30399
407.11        69.60149
407.55        69.23997
408.00        69.45893
408.45        70.11053
408.90        70.74793
409.34        71.02386
409.79         70.5027
410.24        69.49775
410.68        69.02945
411.13        69.20679
411.58        69.44356
412.03          69.649
412.47        69.93705
412.92        70.20401
413.37        70.45185
413.81        70.59792
414.26        70.55776
414.71        70.31016
415.15        69.87248
415.60        69.38863
416.05        69.11142
416.49        69.10808
416.94        69.33582
417.39        69.60151
417.83         69.5548
418.28        69.14121
418.73        68.48357
419.17         67.8597
419.62        67.71108
420.07          68.078
420.51        68.80397
420.96        69.59441
421.41        69.90011
421.85        69.57106
422.30        69.05538
422.74        68.48924
423.19        67.80801
423.64        67.22612
424.08        67.51912
424.53        68.50716
424.98        69.07917
425.42        69.07887
425.87        69.32771
426.31        69.78883
426.76         69.5563
427.21        68.91666
427.65        69.22076
428.10        70.35259
428.54        71.17178
428.99        71.59476
429.44        71.83093
429.88        71.87624
430.33        72.46667
430.77        73.06651
431.22        71.80436
431.66        69.25708
432.11        68.05636
432.56        68.42874
433.00        69.09547
433.45        69.95309
433.89        71.77115
434.34        73.19714
434.78        74.52679
435.23        71.02709
435.67        69.04729
436.12        71.28195
436.57        72.37098
437.01        72.99081
437.46        73.29968
437.90        73.51787
438.35        72.61662
438.79        73.43266
439.24        73.31916
439.68        73.15137
440.13        72.78463
440.57        72.57967
441.02        73.62427
441.46        75.41998
441.91        76.27201
442.35        75.96693
442.80        74.93996
443.24        73.69451
443.69        74.32719
444.13        76.37586
444.58        76.35685
445.02        74.49529
445.47         74.1104
445.91         75.1626
446.36        75.49559
446.80        75.05322
447.24        74.96207
447.69        75.25158
448.13        75.49697
448.58        75.68873
449.02        75.88688
449.47        76.07677
449.91        76.25087
450.36        76.40535
450.80        76.51777
451.25        76.55987
451.69        76.46377
452.13         76.2491
452.58        75.94271
453.02        75.65398
453.47        75.59527
453.91        75.78266
454.36        76.16125
454.80        76.56268
455.24         76.6397
455.69        76.34789
456.13        75.85783
456.58        75.39564
457.02        74.99825
457.46        74.84728
457.91        75.24088
458.35        75.93354
458.79         76.2469
459.24        76.14063
459.68        75.81709
460.13         75.3494
460.57        75.03143
461.01        75.03342
461.46        74.05513
461.90        73.76653
462.34        74.30962
462.79        73.69617
463.23         73.8148
463.68        73.92634
464.12        74.19598
464.56        74.51128
465.01        74.76141
465.45        74.74979
465.89        74.61251
466.34        74.30328
466.78        73.21416
467.22        71.89163
467.67        71.64058
468.11        72.83418
468.55        73.59327
468.99        73.68742
469.44        73.33376
469.88        72.74026
470.32        72.65034
470.77        73.00251
471.21         72.9356
471.65        72.42365
472.10        72.13431
472.54        72.13042
472.98        72.17513
473.42        72.25444
473.87        72.56006
474.31        72.91398
474.75        72.82188
475.20        72.37732
475.64        72.15833
476.08        72.23879
476.52        72.14781
476.97         71.8908
477.41        71.97376
477.85        72.39958
478.29         71.9006
478.74        72.52793
479.18        72.19904
479.62        71.68761
480.06        72.28557
480.50        72.47604
480.95         72.8263
481.39        72.91046
481.83        71.74818
482.27         71.9157
482.72        71.72086
483.16        70.22629
483.60        70.51059
484.04        72.07241
484.48        72.46272
484.93         72.0927
485.37        74.06564
485.81        74.30287
486.25        73.27656
486.69        99.14817
487.14        80.54346
487.58        50.14597
488.02        61.24921
488.46        69.83203
488.90        68.73456
489.34        70.59436
489.79         69.7478
490.23        71.78493
490.67        72.62868
491.11        71.61025
491.55        71.64068
491.99        72.24462
492.43        72.11169
492.88        71.32463
493.32        71.22221
493.76        71.34026
494.20        71.56802
494.64        71.65642
495.08        71.94568
495.52        72.36936
495.96        72.15607
496.41        71.40573
496.85        71.76296
497.29         72.9204
497.73        71.81017
498.17        69.46429
498.61        69.73392
499.05        72.58324
499.49        73.11821
499.93         72.8961
500.37        72.61372
500.82        72.16666
501.26        72.09377
501.70        72.22243
502.14        72.49345
502.58        72.69937
503.02        72.68375
503.46        72.41471
503.90        71.93723
504.34         71.4343
504.78        71.19998
505.22        71.29541
505.66         71.6134
506.10        72.01856
506.54        72.23497
506.98        72.11174
507.42        71.85372
507.86        71.54654
508.30        70.75784
508.74        71.36212
509.18        71.67478
509.62        72.08418
510.06        72.21441
510.50        72.22359
510.94        71.99966
511.38        71.71079
511.82        71.56019
512.26        71.59889
512.70        71.75707
513.14        71.96661
513.58        72.12592
514.02         72.1925
514.46        72.19943
514.90        72.16734
515.34         72.1092
515.78        72.02729
516.22        71.97118
516.66        71.94515
517.10        71.80115
517.54        71.54292
517.98        71.75941
518.42        71.63909
518.86        71.76624
519.30        71.88954
519.74        72.07182
520.18        72.26606
520.62        72.38881
521.06        72.42936
521.50        72.40038
521.93        72.33651
522.37        72.29568
522.81         72.2993
523.25         72.3334
523.69        72.38058
524.13        72.41287
524.57        72.42522
525.01        72.42988
525.45        72.44003
525.89        72.47686
526.32        72.53204
526.76        72.58647
527.20        72.62081
527.64        72.62504
528.08        72.61137
528.52        72.53197
528.96        72.35072
529.40        72.21455
529.83        72.17292
530.27        71.45979
530.71        71.56347
531.15        71.46555
531.59        71.60589
532.03        71.89777
532.46        72.29433
532.90        72.67815
533.34        72.97914
533.78        73.21961
534.22        73.35418
534.66        73.32944
535.09         73.1409
535.53        72.83321
535.97         72.4817
536.41        72.23267
536.85        72.13021
537.28         72.1474
537.72        72.22547
538.16        72.27332
538.60        72.26332
539.04        72.16942
539.47        72.02635
539.91         72.0789
540.35        72.25906
540.79        72.24132
541.22        72.04414
541.66        71.99379
542.10        72.08935
542.54         72.1368
542.97        72.13527
543.41        72.19423
543.85        72.30318
544.29        72.45995
544.72          72.563
545.16        72.48438
545.60        72.20165
546.04        71.75546
546.47        71.34637
546.91        71.29053
547.35        71.63167
547.79        72.33381
548.22        73.06415
548.66        73.22031
549.10        72.73286
549.53        71.91121
549.97        71.10603
550.41        70.68703
550.84        70.77082
551.28        71.27101
551.72        71.96893
552.15         72.4198
552.59        72.49293
553.03        72.47531
553.46        72.18421
553.90        72.04795
554.34        72.03879
554.77        72.01612
555.21        71.93816
555.65         71.9873
556.08        72.19423
556.52        71.63708
556.96        71.99628
557.39         71.9053
557.83        71.88741
558.27        71.88104
558.70        71.91618
559.14        72.03512
559.57        72.20204
560.01        72.37572
560.45        72.49173
560.88        72.54391
561.32        72.50098
561.75        72.17908
562.19        71.73369
562.63        71.38222
563.06        71.23433
563.50        71.42587
563.93        71.82536
564.37        72.12811
564.80        72.20724
565.24        72.09363
565.68        71.83969
566.11        71.67545
566.55        71.68785
566.98        71.60942
567.42        71.50275
567.85        71.79411
568.29        72.39514
568.72        72.44615
569.16        72.16363
569.60        72.52278
570.03        73.20517
570.47        73.18158
570.90        72.74064
571.34        71.29661
571.77        72.25998
572.21        72.08901
572.64        71.91319
573.08         70.5932
573.51        67.64592
573.95        70.28476
574.38        74.89836
574.82        72.55516
575.25        71.94982
575.69        70.05415
576.12        68.70454
576.56        68.08436
576.99         69.3153
577.42        72.71654
577.86        72.86415
578.29        72.05711
578.73        75.73714
579.16        70.03446
579.60        64.07974
580.03        66.93032
580.47        70.91168
580.90        73.19949
581.33        71.41749
581.77        70.48075
582.20        77.20754
582.64        77.00696
583.07        66.38988
583.51        64.82276
583.94        63.35046
584.37        66.23611
584.81        69.42924
585.24        73.25809
585.68        75.03621
586.11        73.82139
586.54        68.75219
586.98        66.45816
587.41        67.10176
587.85        70.64361
588.28        73.50723
588.71        69.91837
589.15        67.74255
589.58        69.23395
590.01        69.41892
590.45        70.82456
590.88        71.17891
591.31        70.41018
591.75        69.90742
592.18        70.00404
592.61         71.6924
593.05        72.04064
593.48        75.16902
593.91        75.98716
594.35        69.92194
594.78        68.01452
595.21         67.8185
595.65        70.82826
596.08        73.64893
596.51        70.81514
596.94        68.68599
597.38        69.34557
597.81        72.18897
598.24        74.06432
598.68        72.65881
599.11        71.21474
599.54        74.33082
599.97        75.36753
600.41        70.39107
600.84        70.37423
601.27        71.85021
601.70        70.77402
602.14         70.7935
602.57         69.7532
603.00        70.28627
603.43        71.93524
603.87        73.68556
604.30        73.18617
604.73         70.9478
605.16         69.2225
605.60        70.38885
606.03        71.50915
606.46          72.535
606.89        72.15018
607.32        70.09286
607.76        70.10558
608.19        72.38446
608.62        71.46899
609.05        70.21536
609.48         70.7203
609.92        70.62862
610.35        70.17636
610.78        72.25524
611.21        73.02333
611.64         69.7615
612.07        70.56416
612.50        71.04266
612.94        71.51472
613.37        70.89122
613.80        71.10683
614.23        71.46445
614.66        71.37368
615.09        71.61267
615.52         71.5956
615.96        71.48404
616.39        71.52895
616.82         70.5058
617.25        70.60725
617.68        71.30387
618.11        71.89264
618.54        72.08536
618.97        71.56452
619.40        70.71429
619.84         70.6993
620.27        71.46475
620.70        72.17413
621.13        72.56261
621.56        71.80276
621.99        70.31705
622.42        71.05519
622.85        73.51965
623.28        73.05025
623.71        72.66891
624.14        72.41769
624.57        71.99539
625.00        71.87019
625.43        72.03017
625.86        71.37833
626.29        71.27078
626.72        72.18025
627.15        71.53027
627.58        71.69104
628.01        71.79284
628.44        71.99081
628.87        72.29619
629.30        72.41803
629.73        72.99886
630.16         73.0284
630.59        72.69906
631.02        72.16312
631.45        71.60603
631.88        71.26147
632.31        71.19348
632.74        71.34518
633.17        71.60163
633.60        71.76234
634.03        71.76604
634.46        71.68198
634.89        71.56279
635.32        71.49194
635.75        71.49836
636.18        71.53587
636.61        71.60367
637.04        71.71444
637.47        71.85608
637.89        72.03668
638.32        72.17892
638.75        72.19997
639.18        72.08344
639.61         71.8621
640.04        71.59962
640.47        71.39818
640.90        71.29387
641.33        71.25883
641.76        71.25198
642.18        71.30431
642.61        71.39838
643.04        71.36801
643.47        71.17449
643.90        71.67902
644.33        71.40223
644.76        71.53176
645.18         71.6041
645.61        71.60717
646.04         71.5189
646.47        71.33773
646.90        71.17033
647.33        71.13449
647.75        71.27727
648.18        71.61351
648.61        71.92308
649.04        71.87839
649.47        71.44754
649.89        70.55901
650.32        69.67014
650.75        69.75155
651.18        70.69151
651.61        71.50565
652.03        71.83907
652.46        71.66088
652.89        71.32829
653.32         70.9653
653.74        70.16224
654.17        71.14703
654.60        72.73756
655.03        69.39433
655.46        71.00989
655.88        75.29487
656.31        80.01739
656.74        180.2963
657.16         117.458
657.59        41.57523
658.02        31.05077
658.45        53.53603
658.87        68.64886
659.30        72.31567
659.73        71.05901
660.15        68.77721
660.58        71.17837
661.01        73.06106
661.44        70.82643
661.86        69.98364
662.29         69.7629
662.72        70.33931
663.14        71.52802
663.57        71.54459
664.00        70.59552
664.42        70.47322
664.85        71.22907
665.27        71.67456
665.70         71.6236
666.13        71.47086
666.55        71.20762
666.98        70.71287
667.41        70.16721
667.83        69.92725
668.26        70.06775
668.69        70.44987
669.11        70.85231
669.54        71.25601
669.96        70.91908
670.39         70.5101
670.82        70.03008
671.24        69.77522
671.67        69.87694
672.09        70.32142
672.52        70.82685
672.94        71.35275
673.37        70.66891
673.80        70.49069
674.22        70.52496
674.65        70.49132
675.07        70.37954
675.50        70.21819
675.92        70.07618
676.35        70.09483
676.77        70.28815
677.20        70.53405
677.62        70.77312
678.05        70.91141
678.47        70.90456
678.90        70.81322
679.32        70.70335
679.75        70.49068
680.17        70.46915
680.60        70.62848
681.02        70.58041
681.45        70.53005
681.87        70.35016
682.30        70.08593
682.72        69.84344
683.15        69.81644
683.57        70.05258
684.00        70.38821
684.42        70.84263
684.85        71.06617
685.27        71.03922
685.70        70.84078
686.12        70.55464
686.54        70.36069
686.97        70.29845
687.39        70.33777
687.82        70.41486
688.24        70.47359
688.66        70.47208
689.09        70.44099
689.51        70.42349
689.94        70.45335
690.36        70.54537
690.78        70.67338
691.21        70.79203
691.63        70.83858
692.06        70.80395
692.48        70.72074
692.90        70.63518
693.33        70.60457
693.75        70.64587
694.17        70.74363
694.60        70.87838
695.02        70.99944
695.44        71.05273
695.87         71.2197
696.29        71.47687
696.71        71.23505
697.14        70.68188
697.56        71.03606
697.98        72.07012
698.41        71.83585
698.83        71.08567
699.25        70.67357
699.68        70.84041
700.10        70.80986
700.52        70.58298
700.94        70.56928
701.37         70.7624
701.79        71.04681
702.21        71.35966
702.64        71.73158
703.06        72.03065
703.48        72.04224
703.90        71.74962
704.33        71.21979
704.75        70.62913
705.17        70.35121
705.59        70.48289
706.01        70.80726
706.44        71.14791
706.86        71.82941
707.28        71.81478
707.70        71.91117
708.12        71.88383
708.55         71.8163
708.97        71.71612
709.39        71.56669
709.81        71.42543
710.23        71.38421
710.66        71.46441
711.08        71.67612
711.50        71.90633
711.92        71.98457
712.34        71.87333
712.76        71.60556
713.19        71.31383
713.61          71.246
714.03        71.43925
714.45        71.82309
714.87        72.20679
715.29        72.28716
715.71        72.00689
716.13        71.47025
716.56        70.88484
716.98        70.61463
717.40        70.74165
717.82        71.15158
718.24        71.66415
718.66        71.97247
719.08        71.98475
719.50        71.79999
719.92        71.51525
720.34        71.30344
720.76        71.22725
721.19        71.11359
721.61        71.18385
722.03         71.3019
722.45        71.51481
722.87        71.81504
723.29        72.14017
723.71        72.37209
724.13        72.47357
724.55        72.46435
724.97        72.38722
725.39        72.32623
725.81        72.30739
726.23        72.30683
726.65        72.30906
727.07        72.28577
727.49        72.23624
727.91        72.19125
728.33        72.15591
728.75        72.13219
729.17        72.12276
729.59        72.11305
730.01        72.14423
730.43        72.27506
730.85        72.50896
731.27        72.84933
731.69        73.17555
732.10        73.27116
732.52        73.09576
732.94        72.75568
733.36        72.44091
733.78        72.32291
734.20        72.45033
734.62        73.07244
735.04        73.93713
735.46        73.89514
735.88        73.18164
736.30        73.47552
736.72        74.69849
737.13        75.15305
737.55        74.60367
737.97        74.36493
738.39         74.5211
738.81        73.90503
739.23        72.89516
739.65        73.62873
740.06        75.62966
740.48        75.78442
740.90        74.20638
741.32        73.52705
741.74        73.98703
742.16        74.24804
742.57        74.34852
742.99        75.05586
743.41        76.13181
743.83         76.7405
744.25        76.74042
744.67        76.34976
745.08        75.84208
745.50        75.65844
745.92        75.93323
746.34        76.51662
746.75        77.19009
747.17        77.58713
747.59        77.62945
748.01        77.43183
748.42        77.21582
748.84        77.31434
749.26        77.80768
749.68        78.55566
750.09        79.34513
750.51        79.83166
750.93        79.93562
751.35        79.71007
751.76        79.30104
752.18        79.13094
752.60        79.18972
753.01        79.03591
753.43        78.74546
753.85         78.8422
754.27         79.3653
754.68        80.07933
755.10        80.79361
755.52        81.35284
755.93         81.6611
756.35        81.70724
756.77        81.64157
757.18        81.58694
757.60        81.58627
758.02        81.94627
758.43        82.41029
758.85        81.79949
759.26        80.51418
759.68        80.38783
760.10        81.35189
760.51        81.66906
760.93         81.2113
761.34        79.96505
761.76         80.0833
762.18        79.45695
762.59        78.91991
763.01        79.21082
763.42        80.32615
763.84        81.11135
764.26        81.40622
764.67        81.76572
765.09        82.05166
765.50        81.83201
765.92        81.14668
766.33         79.9043
766.75        78.57976
767.16        78.22221
767.58        78.95387
768.00         80.3204
768.41        81.99855
768.83        83.37304
769.24        83.88169
769.66        83.26115
770.07        81.94587
770.49        80.23843
770.90        78.70103
771.32        79.50735
771.73        81.97025
772.15        81.56173
772.56        78.72955
772.97        78.23519
773.39        79.98413
773.80        80.59612
774.22        79.84373
774.63        79.73455
775.05        80.24009
775.46         80.4931
775.88        80.40104
776.29        80.19943
776.70        79.98093
777.12        79.92971
777.53        80.09777
777.95           80.37
778.36        80.58722
778.77        80.47643
779.19         80.0322
779.60         79.3545
780.02        78.69893
780.43        78.52784
780.84        78.98098
781.26        79.51646
781.67        80.03977
782.09        81.21622
782.50         82.5147
782.91        81.73806
783.33        79.55869
783.74        78.93915
784.15        80.03201
784.57        80.86876
784.98        81.09898
785.39        81.15972
785.81        80.96107
786.22        80.24726
786.63         79.4103
787.04         79.1779
787.46        79.64452
787.87        80.58101
788.28        81.64056
788.70        82.23112
789.11        82.18729
789.52        81.70338
789.93        81.05206
790.35         80.6052
790.76        80.48322
791.17        80.63046
791.58        80.89381
792.00        80.99054
792.41        80.85011
792.82         80.5351
793.23        80.29927
793.65        80.29894
794.06        80.65451
794.47        81.88534
794.88        83.24007
795.29        82.95358
795.71        80.68401
796.12        78.66235
796.53        77.36552
796.94        77.03983
797.35        77.70992
797.76        78.76944
798.18        79.70316
798.59        80.39074
799.00        80.53963
799.41        79.82873
799.82        78.66423
800.23        78.02979
800.64        78.11149
801.06        78.52805
801.47        79.13731
801.88        79.59684
802.29        79.77267
802.70        79.81596
803.11         79.7579
803.52         79.6166
803.93        79.43452
804.34        79.16409
804.75        78.93198
805.17         79.0018
805.58        79.44466
805.99         80.0282
806.40        80.51276
806.81        80.89134
807.22        80.87366
807.63        79.67366
808.04        77.84308
808.45        77.02063
808.86        77.40263
809.27        78.25475
809.68        79.17387
810.09        79.68517
810.50        79.56808
810.91        78.99425
811.32        78.23824
811.73        77.73867
812.14        77.62457
812.55        77.71657
812.96        77.96606
813.37        78.28563
813.78        78.60317
814.19        79.00301
814.60        79.27531
815.01        79.08032
815.42        78.39404
815.83        77.27264
816.24        76.16555
816.65        75.87126
817.05        76.61426
817.46         78.1313
817.87        79.81615
818.28        80.57639
818.69        80.11539
819.10        78.70937
819.51        77.03537
819.92        76.24558
820.33        76.64812
820.74        77.89581
821.14        79.37331
821.55        79.97809
821.96        79.47215
822.37         78.2473
822.78        76.85047
823.19        76.08221
823.60        76.15403
824.00        76.84169
824.41        77.77374
824.82        78.43771
825.23        78.60278
825.64        78.46986
826.04        78.15089
826.45        77.79479
826.86        77.46809
827.27        77.06998
827.68        76.70763
828.08        76.62168
828.49        76.79531
828.90        77.26289
829.31        77.76328
829.72        77.79288
830.12        77.27231
830.53        76.34515
830.94        75.44808
831.35        75.19195
831.75        75.73139
832.16         76.8193
832.57        78.13299
832.97        79.00842
833.38        79.14097
833.79        78.73566
834.20        78.08196
834.60        77.61376
835.01        77.49044
835.42        77.57155
835.82        77.72379
836.23        77.65386
836.64         77.3371
837.04        76.91379
837.45        76.55408
837.86        76.51729
838.26        76.85898
838.67        77.41994
839.08        78.06656
839.48         78.5599
839.89        78.76263
840.29        78.76426
840.70        78.53771
841.11        78.02458
841.51        77.28183
841.92        76.33143
842.33        75.43942
842.73        75.05276
843.14        75.23221
843.54        75.89261
843.95        76.70307
844.35        77.15662
844.76        77.08473
845.17        76.64234
845.57        76.03512
845.98         75.5963
846.38        75.42477
846.79        75.38868
847.19        75.43928
847.60        75.41624
848.00        75.31261
848.41        75.17567
848.81        75.06409
849.22        74.96906
849.62        74.94658
850.03        74.98981
850.43        75.13577
850.84        75.37156
851.24         75.7244
851.65        76.01287
852.05        76.37472
852.46        76.86252
852.86         77.4637
853.27        78.18077
853.67        78.54398
854.07        77.95728
854.48        76.46378
854.88         74.2869
855.29         72.2151
855.69         71.3844
856.10        72.00763
856.50        73.94337
856.90        76.48893
857.31        78.00909
857.71         77.9827
858.12        76.80772
858.52         75.2123
858.92        74.15385
859.33        73.85166
859.73        74.04758
860.13          74.589
860.54        75.16499
860.94        75.70004
861.34        76.27335
861.75        76.83794
862.15        77.39554
862.55        77.89278
862.96        78.26255
863.36        78.51829
863.76        78.67677
864.17        78.74667
864.57        78.78795
864.97        78.81234
865.38        78.82347
865.78        78.87999
866.18        78.91496
866.58        78.99091
866.99        79.19386
867.39        79.58784
867.79        80.18539
868.19        80.71473
868.60        80.66255
869.00        79.93829
869.40        78.68948
869.80         77.5915
870.21        77.69128
870.61        79.28507
871.01        82.05291
871.41        85.10972
871.81        86.94019
872.22        87.12468
872.62        86.08058
873.02        84.65675
873.42        84.34731
873.82        85.32863
874.22        86.90354
874.63        88.56722
875.03         89.2412
875.43        88.44221
875.83        87.36211
876.23         85.2353
876.63         84.3273
877.03        84.69132
877.44        86.55495
877.84        103.0201
878.24        93.78596
878.64        93.17638
879.04        91.95539
879.44        87.06982
879.84        84.56446
880.24        88.80918
880.64        91.27621
881.04        92.79057
881.44        93.73481
881.84        93.28873
882.24        91.78345
882.65        90.22149
883.05        89.62023
883.45        90.17816
883.85        91.78418
884.25        93.83398
884.65          95.049
885.05        95.02197
885.45        94.21158
885.85        93.19566
886.25        92.75378
886.65        93.06747
887.05        93.83679
887.45        94.81357
887.85        95.57585
888.25        95.92436
888.65        96.02034
889.04        95.85032
889.44         95.4238
889.84        94.79238
890.24         93.9557
890.64        93.14195
891.04        92.71405
891.44          92.728
891.84        93.10589
892.24        93.61597
892.64        93.79778
893.04        93.58011
893.44        93.20266
893.83        92.84997
894.23        92.81154
894.63        93.13387
895.03        93.60225
895.43        94.36121
895.83        95.65502
896.23        97.39579
896.63        99.50803
897.02        101.1573
897.42        100.9983
897.82        98.89808
898.22         95.3801
898.62        91.77338
899.01        90.02367
899.41        90.53308
899.81        92.65124
900.21        95.37595
900.61        97.06299
901.00        97.22873
901.40        96.41071
901.80        95.16328
902.20        94.34191
902.59        94.21808
902.99        94.45956
903.39        94.86472
903.79        95.13857
904.18        95.16351
904.58         95.1325
904.98        95.09368
905.38         95.0817
905.77         95.0948
906.17        95.06738
906.57        95.02612
906.96        95.08258
907.36         95.1814
907.76        95.32545
908.15        95.36477
908.55        94.93635
908.95         94.0537
909.34         92.8112
909.74        91.61086
910.14        90.89745
910.53        90.81645
910.93        91.30113
911.33        92.12616
911.72        92.88382
912.12        93.32692
912.52        93.48666
912.91        93.57747
913.31        93.89916
913.70        94.55883
914.10        95.50742
914.49        96.33587
914.89        96.02624
915.29        94.39478
915.68        91.87484
916.08        89.68371
916.47        88.94558
916.87        89.73654
917.26        91.69947
917.66        93.87363
918.05        94.68681
918.45        93.73982
918.84        91.58106
919.24        89.25779
919.64        88.30811
920.03        89.13164
920.42        91.25475
920.82        93.87479
921.21        95.70356
921.61        96.11976
922.00        95.56598
922.40        94.47679
922.79        93.44202
923.19        92.71496
923.58         92.0371
923.98        91.26041
924.37        90.50433
924.77        90.03526
925.16        87.83625
925.55        88.26168
925.95         88.7109
926.34         90.4629
926.74        92.93195
927.13        95.39784
927.52        96.42955
927.92        95.81982
928.31        94.04937
928.70        91.72415
929.10        89.88689
929.49        88.84256
929.89        88.30952
930.28        88.40926
930.67        89.34476
931.07        90.90131
931.46        93.09867
931.85        95.08721
932.24        95.57935
932.64        94.36716
933.03        91.64292
933.42         88.2198
933.82        85.95845
934.21        85.41889
934.60         86.1217
934.99        87.20891
935.39        87.75041
935.78        87.59195
936.17        86.64903
936.56         84.7893
936.96        85.36621
937.35        84.16154
937.74        84.56293
938.13        85.08986
938.53        85.95591
938.92        87.17774
939.31        88.87852
939.70        90.60801
940.09        91.02761
940.49        89.77949
940.88        87.45567
941.27        85.08423
941.66        83.86315
942.05        83.94794
942.44        84.96463
942.84        86.51593
943.23        87.96984
943.62        88.93493
944.01        89.53409
944.40        89.79947
944.79        89.79642
945.18        89.55656
945.57        88.99648
945.97         88.0153
946.36        86.64596
946.75        85.21225
947.14        83.97224
947.53        83.21758
947.92         83.1197
948.31        83.60842
948.70        84.64925
949.09        85.95359
949.48        86.79972
949.87        86.84077
950.26        86.18541
950.65        85.25283
951.04        84.73584
951.43         84.8102
951.82        85.29543
952.21        85.81168
952.60        85.75639
952.99         84.9961
953.38        83.73773
953.77        82.46545
954.16        81.85231
954.55        82.02946
954.94        82.85143
955.33        83.74056
955.72        83.73266
956.11        82.62149
956.50        80.66186
956.89        78.73003
957.28        78.42137
957.66        80.22553
958.05        83.40749
958.44        86.83738
958.83        88.84449
959.22        88.99104
959.61        87.68499
960.00        85.66555
960.39        84.14958
960.78         83.5323
961.16        83.54731
961.55        83.59566
961.94        82.69386
962.33        80.72456
962.72        78.20326
963.11        75.99946
963.49        75.19537
963.88        75.93633
964.27        77.93465
964.66        80.43339
965.04        81.78825
965.43        81.29061
965.82        79.55987
966.21         77.5214
966.60        76.37038
966.98        76.36173
967.37        77.05038
967.76        78.13314
968.15        79.01033
968.53        79.40428
968.92        79.50671
969.31        79.38934
969.69        79.08014
970.08        78.65224
970.47        78.07886
970.86        77.46774
971.24        77.06924
971.63        76.96714
972.02           77.12
972.40        77.52966
972.79        78.12011
973.17        78.90728
973.56        79.77738
973.95         80.5229
974.33        80.72113
974.72        80.20131
975.11        79.09093
975.49        77.86308
975.88         77.2382
976.26        77.30153
976.65        77.93887
977.04        78.63524
977.42          78.168
977.81        76.24183
978.19        73.41325
978.58         71.1349
978.96        70.80486
979.35        72.58968
979.74         76.1836
980.12        80.86739
980.51        83.85626
980.89        84.28941
981.28        82.86354
981.66        80.64812
982.05        79.02048
982.43        78.30212
982.82        78.04399
983.20        78.36094
983.59        79.53847
983.97        81.64339
984.35        84.76079
984.74        88.10033
985.12         90.0184
985.51        89.44003
985.89        86.59866
986.28        82.42617
986.66        78.56852
987.04        76.02026
987.43        74.62765
987.81        73.92262
988.20        73.18474
988.58        72.06607
988.96        70.38189
989.35         68.7447
989.73        69.50405
990.12         73.5157
990.50        79.39198
990.88        83.56631
991.27        83.59811
991.65        80.07512
992.03        73.70786
992.42        67.08041
992.80        64.89905
993.18         68.2379
993.56        74.49684
993.95        80.85857
994.33        84.65926
994.71        85.47081
995.10         84.5616
995.48        82.55688
995.86         80.1964
996.24        77.81057
996.63        74.86053
997.01        71.95483
997.39        71.19606
997.77        73.35332
998.15        78.06188
998.54        82.84872
998.92        84.39585
999.30        81.72338
999.68        75.63492
1000.06        67.82008
1000.45        62.50007
1000.83        61.28754
1001.21        62.75103
1001.59        65.60317
1001.97        68.54134
1002.35        71.24913
1002.73        74.61109
1003.12         77.5581
1003.50        76.96034
1003.88        71.86364
1004.26        64.05727
1004.64        57.06935
1005.02        53.79087
1005.40        54.35004
1005.78        58.71531
1006.16        67.37106
1006.54        75.84765
1006.92        78.65659
1007.30        77.33183
1007.69        74.87788
1008.07        73.43333
1008.45         72.9589
1008.83        72.63834
1009.21        71.10038
1009.59        61.51779
1009.97        25.59847
1010.35       -33.68052
1010.73       -32.66853
1011.11     -0.08336297
1011.49        25.57913
1011.86         44.7825
1012.24        55.97703
1012.62        61.33839
1013.00        63.38936
1013.38        63.23317
1013.76        63.00508
1014.14        68.64645
1014.52        84.67157
1014.90        112.3507
1015.28        143.6974
1015.66        157.4796
1016.04        141.6012
1016.41         100.899
1016.79         58.2202
1017.17        37.36841
1017.55        36.09889
1017.93        42.21761
1018.31        49.80095
1018.69        56.21624
1019.06        61.87019
1019.44        68.30396
1019.82        76.86356
1020.20        86.59628
1020.58        94.80375
1020.95        96.81808
1021.33        73.62502
1021.71        541.2925
1022.09        169.1483
1022.46        152.2264
1022.84        149.9507
1023.22        156.6468
1023.60        181.0216
1023.97        429.8444
1024.35        7.525751
1024.73        54.41629
