SpectraSmart Spectrum 2.9.0.0
--------- Device Information -----------
Spectrum Name :  反射率_0
Saving Time :  2024/04/26 01:30:01
Spectro-Module Model Name : SE2030-DUVN
Spectro-Module Serial Number : OS361AC55029948
Wavelength Start : 200
Wavelength End : 1025
Wavelength Unit : Wavelength(nm)
Spectrum Unit : Reflectance(%)
-----------Spectrum Setting ------------
Integration Time : 20ms
Average : 10
Boxcar : 0
Background removal :  enabled
linearity correction :  enabled
SC :  disabled
Intensity correction :  disabled
DWT denoise :  enabled
savitzky-golay :  disabled
FFT :  disabled
Running average :  disabled
Kalman :  disabled
High pass :  disabled
---------------BEGIN--------------------
Wavelength(nm)             Reflectance(%)
200.29               0
200.75        94.28146
201.21        86.98605
201.67        78.78144
202.13        73.46048
202.58         71.5255
203.04        72.48035
203.50        74.84546
203.96        76.10209
204.42        75.64208
204.88        74.19627
205.34        73.30822
205.80        74.94812
206.26        80.33157
206.72        92.43985
207.18        115.5286
207.64        133.8346
208.10        117.3833
208.55        88.33217
209.01         70.6995
209.47        65.11221
209.93        66.48573
210.39          72.309
210.85         79.9229
211.31        83.44386
211.77        80.73912
212.23         74.1421
212.69        67.23996
213.14        65.58309
213.60        70.05474
214.06        78.73914
214.52         88.7197
214.98        95.70631
215.44        98.24935
215.90        97.68663
216.36        95.11861
216.81        91.86707
217.27        89.02795
217.73        86.35043
218.19        83.46342
218.65        79.67626
219.11        74.34464
219.57         66.5612
220.02        57.08372
220.48        51.43688
220.94        52.60022
221.40        59.51081
221.86        65.88406
222.32        65.04762
222.77        57.92374
223.23        48.39262
223.69        40.58266
224.15        38.78115
224.61        42.37584
225.06         49.1242
225.52        55.75488
225.98         58.1623
226.44        55.64444
226.90        49.99114
227.36        43.55391
227.81        39.46311
228.27        38.71982
228.73        40.10262
229.19        42.43012
229.65        43.98586
230.10        44.32232
230.56        44.07502
231.02        43.79449
231.48        44.06052
231.93        44.87527
232.39        45.93214
232.85        46.82946
233.31        47.04337
233.77        46.45855
234.22        45.27827
234.68        43.84534
235.14         42.7762
235.60        42.39439
236.05          42.621
236.51        43.29877
236.97        44.16963
237.43        45.23578
237.88        46.73675
238.34        48.85915
238.80        51.84403
239.26        55.47126
239.71        59.47549
240.17        63.00483
240.63        65.40927
241.08        66.64879
241.54        66.80527
242.00         66.6292
242.46        67.30873
242.91          69.964
243.37        76.56979
243.83        97.19462
244.28        164.3821
244.74        240.8553
245.20         198.779
245.66        160.5752
246.11        151.1214
246.57        159.4742
247.03         194.229
247.48        296.5894
247.94        240.5131
248.40        130.0593
248.85         96.6376
249.31        87.04285
249.77        86.52287
250.22        91.19714
250.68         101.336
251.14        116.4571
251.59        126.3082
252.05        120.8784
252.51        104.8233
252.96        88.06964
253.42        79.91425
253.88        79.61664
254.33        83.59569
254.79        89.75185
255.25        94.64216
255.70        97.03439
256.16        98.48019
256.62        98.43182
257.07        96.13879
257.53        92.44798
257.99        87.35964
258.44         82.2396
258.90         79.7447
259.35        78.92324
259.81         78.9527
260.27        78.04089
260.72        74.43428
261.18        68.97192
261.63        62.43427
262.09        56.48649
262.55        52.35583
263.00        49.99257
263.46        48.87394
263.91        48.04371
264.37         46.7734
264.83        44.85294
265.28        42.45576
265.74        40.17598
266.19        38.66294
266.65        38.13427
267.11        38.19451
267.56        38.28265
268.02        37.74512
268.47        36.45452
268.93        34.64263
269.38        32.66177
269.84        31.34977
270.30        30.92848
270.75        31.15311
271.21        31.57202
271.66        31.50949
272.12        30.79442
272.57        29.65679
273.03        28.45092
273.48        27.62029
273.94        27.29827
274.39          27.278
274.85        27.34174
275.31        27.17276
275.76        26.68492
276.22        26.02079
276.67        25.30141
277.13        24.78273
277.58        24.46863
278.04        24.29865
278.49        24.12101
278.95        23.78247
279.40        23.23594
279.86        22.60681
280.31        21.96731
280.77        21.52584
281.22        21.28591
281.68        21.20053
282.13        21.20075
282.59        21.22279
283.04        21.23064
283.50        21.26807
283.95        21.28846
284.41        21.23702
284.86        21.10463
285.32        20.91544
285.77         20.7556
286.22        20.81817
286.68        21.10365
287.13        21.52316
287.59        21.91435
288.04        22.02962
288.50        21.84664
288.95        21.43552
289.41           20.96
289.86        20.56156
290.32        20.34722
290.77        20.27039
291.22        20.33532
291.68        20.50761
292.13        20.78266
292.59         21.1796
293.04        21.72264
293.50        22.44133
293.95        23.31223
294.40        24.28753
294.86        25.28458
295.31        26.19449
295.77        27.00566
296.22        27.75856
296.68        28.51463
297.13         29.3428
297.58        30.28419
298.04        31.33157
298.49        32.49978
298.95        33.85749
299.40        35.39364
299.85        37.08389
300.31        38.83063
300.76        40.47498
301.21         41.9451
301.67        43.29499
302.12         44.5286
302.58        45.75593
303.03        46.98174
303.48        48.19616
303.94        49.46689
304.39        50.84028
304.84        52.32751
305.30         53.9154
305.75        55.44899
306.20        56.71146
306.66        57.68951
307.11        58.41227
307.57        59.08662
308.02        59.91336
308.47        60.98793
308.93        62.24929
309.38        63.55856
309.83        64.74361
310.29        65.73982
310.74        66.56591
311.19        67.30701
311.65        68.09415
312.10        68.94669
312.55        69.83338
313.00        70.62336
313.46        71.11554
313.91        71.26767
314.36        71.17497
314.82        71.06645
315.27        71.24429
315.72        71.80391
316.18        72.65395
316.63        73.61546
317.08        74.35045
317.53        74.75569
317.99        74.91272
318.44        74.99723
318.89        75.30193
319.35        75.87579
319.80        76.64049
320.25        77.37492
320.70         77.7224
321.16        77.60735
321.61        77.15942
322.06        76.61909
322.51        76.35902
322.97        76.45606
323.42        76.82878
323.87        77.30571
324.32        77.59251
324.78        77.59361
325.23        77.43887
325.68        77.22047
326.13        77.10804
326.59        77.13889
327.04        77.27598
327.49        77.49088
327.94        77.76842
328.39         78.0877
328.85        78.44613
329.30        78.83089
329.75         79.0753
330.20         79.1657
330.66        79.13314
331.11         79.1535
331.56        79.44463
332.01         80.0686
332.46        80.94212
332.92        81.92575
333.37        82.91449
333.82        83.75414
334.27        84.47646
334.72        84.99837
335.17        85.20274
335.63        85.10235
336.08        84.77865
336.53        84.43466
336.98        84.43753
337.43        84.87953
337.88        85.66412
338.34        86.62488
338.79        87.55502
339.24        88.32411
339.69        89.00523
340.14        89.54629
340.59        89.86362
341.05        89.96661
341.50        89.85302
341.95        89.71192
342.40        89.85638
342.85        90.35033
343.30        91.12877
343.75        91.97591
344.20        92.49654
344.66         92.5957
345.11        92.37551
345.56        92.05941
346.01        91.98535
346.46        92.23923
346.91        92.71645
347.36        93.25539
347.81        93.61111
348.26         93.7274
348.72        93.70413
349.17        93.64862
349.62        93.78488
350.07        94.15026
350.52        94.64119
350.97         95.1208
351.42        95.39486
351.87        95.41725
352.32        95.26513
352.77        95.00178
353.22        94.72452
353.67        94.47952
354.13        94.25162
354.58        94.04749
355.03        93.93337
355.48        93.90588
355.93        93.95002
356.38        93.97829
356.83        93.84668
357.28        93.51845
357.73        93.02502
358.18        92.44958
358.63        91.92856
359.08        91.50644
359.53        91.16354
359.98        90.82871
360.43        90.38754
360.88        89.81761
361.33        89.14761
361.78        88.49803
362.23        88.05956
362.68        87.86144
363.13        87.84158
363.58        87.80711
364.03         87.4563
364.48        86.73456
364.93        85.74033
365.38        84.69043
365.83        83.94011
366.28         83.5687
366.73        83.44685
367.18         83.4026
367.63        83.15352
368.08        82.62655
368.53        81.95151
368.98        81.18532
369.43        80.39872
369.88        79.63848
370.33        78.86561
370.78          78.202
371.23        77.86124
371.68        77.86832
372.13        78.16871
372.58        78.52573
373.03        78.52735
373.48        78.07735
373.93        77.30168
374.38        76.43839
374.83        75.85898
375.28        75.65018
375.72        75.67537
376.17        75.80286
376.62        75.79296
377.07        75.56103
377.52         75.1769
377.97        74.69346
378.42        74.18951
378.87        73.71039
379.32        73.24854
379.77        72.78451
380.22        72.29053
380.67        71.75798
381.11        71.19305
381.56        70.67014
382.01        70.30991
382.46        70.13956
382.91        70.14408
383.36        70.15786
383.81        69.91924
384.26        69.38885
384.71        68.63803
385.15        67.90299
385.60        67.59993
386.05        67.74628
386.50        68.20087
386.95        68.65119
387.40         68.5743
387.85        67.89895
388.29        66.84172
388.74        65.79961
389.19        65.05949
389.64        64.67695
390.09        64.50699
390.54        64.52242
390.98        64.67934
391.43        64.91535
391.88        65.22395
392.33        65.43344
392.78        65.23936
393.23        64.64616
393.67        63.86803
394.12        63.19367
394.57        62.57776
395.02        62.20654
395.47        62.57067
395.91        63.51365
396.36        64.09803
396.81        64.17333
397.26        64.16011
397.71        64.07623
398.15        63.73513
398.60        63.25576
399.05        62.70484
399.50        62.16494
399.95        61.56683
400.39        61.21566
400.84        60.92463
401.29        60.76694
401.74        60.72452
402.18         60.7948
402.63        60.90929
403.08        61.08058
403.53         61.3235
403.97        61.61609
404.42        61.92667
404.87        62.12018
405.32        61.98519
405.76        61.49702
406.21        60.77896
406.66        60.06977
407.11        59.72776
407.55        59.83075
408.00        60.25418
408.45        60.80039
408.90        61.05489
409.34        60.88719
409.79        60.45482
410.24        59.94948
410.68        59.62891
411.13         59.5742
411.58         59.6774
412.03        59.90075
412.47        60.19859
412.92        60.48139
413.37        60.78577
413.81         61.0246
414.26        61.09977
414.71        60.98323
415.15        60.69088
415.60        60.32802
416.05         60.0923
416.49        60.04412
416.94        60.15786
417.39        60.31344
417.83        60.28447
418.28        60.04525
418.73        59.68333
419.17         59.3889
419.62        59.46726
420.07        59.93197
420.51        60.66102
420.96        61.43539
421.41        61.81399
421.85        61.66113
422.30        61.40845
422.74        61.11486
423.19        60.49149
423.64        59.80379
424.08        60.12671
424.53        61.26277
424.98        61.86161
425.42         61.7649
425.87        61.80791
426.31        62.06158
426.76        62.04503
427.21        61.92963
427.65        62.30922
428.10        63.07981
428.54        63.83503
428.99        64.51913
429.44        64.81128
429.88        64.79873
430.33        65.69617
430.77        66.85641
431.22        65.99648
431.66        63.63146
432.11        62.35467
432.56        62.50687
433.00        63.27915
433.45        64.52303
433.89        66.33496
434.34         67.4607
434.78        68.47053
435.23        65.47775
435.67        63.68208
436.12        65.77843
436.57        66.76426
437.01        67.32907
437.46        67.66495
437.90        67.95632
438.35        67.44155
438.79         68.2448
439.24        68.26476
439.68        68.15099
440.13        67.90547
440.57        67.83419
441.02        68.62772
441.46        69.97362
441.91        70.96909
442.35        71.25546
442.80        70.53836
443.24        69.24883
443.69        69.59826
444.13        71.29335
444.58        71.26817
445.02        69.76588
445.47        69.77131
445.91        71.14948
446.36        71.69267
446.80        71.28754
447.24         71.1541
447.69        71.39275
448.13        71.31145
448.58        71.50021
449.02         71.7389
449.47         72.1414
449.91        72.49023
450.36        72.75619
450.80        73.02048
451.25         73.2274
451.69        73.22552
452.13        73.03008
452.58        72.70015
453.02        72.36237
453.47         72.2579
453.91        72.41064
454.36        72.74498
454.80        73.13469
455.24        73.26863
455.69        73.09273
456.13        72.86295
456.58        72.67504
457.02        72.15389
457.46        71.57622
457.91        71.79825
458.35        72.61301
458.79        72.96439
459.24        72.79359
459.68        72.61794
460.13          72.488
460.57        72.26093
461.01        72.02967
461.46        71.62122
461.90        71.01147
462.34        71.45162
462.79        71.00708
463.23         71.0927
463.68        71.14193
464.12        71.56308
464.56        72.17551
465.01        72.37685
465.45        72.08962
465.89        71.95786
466.34        71.85093
466.78        70.87371
467.22        69.60666
467.67         68.6978
468.11        70.09682
468.55        70.85071
468.99        71.15952
469.44        70.95763
469.88        70.43166
470.32        70.43993
470.77        70.89201
471.21        70.86235
471.65         70.3129
472.10        69.92147
472.54        69.79219
472.98        69.74681
473.42        69.80434
473.87        70.16608
474.31        70.59088
474.75        70.48444
475.20        70.03566
475.64        69.54394
476.08        70.19868
476.52        70.21854
476.97        69.89262
477.41        70.06154
477.85         70.7382
478.29        69.96891
478.74        70.16575
479.18        70.21283
479.62        69.11139
480.06        69.73351
480.50        70.06633
480.95        70.61036
481.39        70.85491
481.83        70.12943
482.27        70.07684
482.72        69.99157
483.16        68.72329
483.60        68.49034
484.04        70.30653
484.48        70.66386
484.93        70.47755
485.37        72.13568
485.81        72.99616
486.25         71.9034
486.69        97.36017
487.14        79.14802
487.58        48.97285
488.02        60.46106
488.46        68.61794
488.90        67.58738
489.34        69.18975
489.79        68.28191
490.23         70.3282
490.67         71.2379
491.11        70.29971
491.55        70.19805
491.99         70.5312
492.43        70.31741
492.88        69.67429
493.32        69.74068
493.76         69.9855
494.20        70.29314
494.64        70.39861
495.08         70.5266
495.52        70.72887
495.96        70.65556
496.41        70.32224
496.85        70.82018
497.29         71.7978
497.73        70.53069
498.17        68.09846
498.61        68.22341
499.05        70.91413
499.49        71.50704
499.93        71.47129
500.37        71.28335
500.82        70.83625
501.26        70.78735
501.70         70.9523
502.14        71.35683
502.58        71.44373
503.02        71.41537
503.46        71.14205
503.90        70.65435
504.34         70.1482
504.78        69.92892
505.22        70.05064
505.66        70.46595
506.10        71.01253
506.54         71.1817
506.98        70.83641
507.42        70.76469
507.86         70.4208
508.30         69.6791
508.74        70.18036
509.18         70.4008
509.62        70.72271
510.06        70.87334
510.50        70.81084
510.94        70.59478
511.38        70.32762
511.82        70.20863
512.26        70.28365
512.70        70.48851
513.14        70.74384
513.58         70.9259
514.02        70.98874
514.46         70.9649
514.90        70.90597
515.34        70.87529
515.78        70.88217
516.22        70.96533
516.66          71.077
517.10        70.97803
517.54        70.65523
517.98        70.74416
518.42        70.47126
518.86        70.54411
519.30        70.72192
519.74        71.03384
520.18        71.37499
520.62        71.56872
521.06        71.58036
521.50        71.45788
521.93        71.26855
522.37        71.12217
522.81        71.06388
523.25        71.06484
523.69        71.11278
524.13         71.1898
524.57        71.28345
525.01        71.39784
525.45        71.52204
525.89        71.63461
526.32        71.71477
526.76        71.75636
527.20         71.7423
527.64        71.67058
528.08        71.56374
528.52        71.37296
528.96        71.09736
529.40        70.93536
529.83        70.93951
530.27        70.33835
530.71        70.54235
531.15        70.46208
531.59        70.51534
532.03        70.64911
532.46          70.864
532.90        71.12477
533.34        71.38884
533.78        71.65018
534.22        71.85122
534.66        71.91987
535.09        71.83651
535.53        71.65074
535.97          71.409
536.41        71.20438
536.85        71.06577
537.28        71.00547
537.72        71.01385
538.16        70.99441
538.60        70.91792
539.04        71.09187
539.47        70.90437
539.91         71.0358
540.35         71.2246
540.79        71.18347
541.22         70.9374
541.66        70.82834
542.10        70.87199
542.54         70.8698
542.97        70.83247
543.41        70.88588
543.85        71.02245
544.29        71.23437
544.72        71.41391
545.16        71.42374
545.60        71.23423
546.04        70.87631
546.47        70.53675
546.91        70.53345
547.35        70.89715
547.79        71.54802
548.22        72.18791
548.66        72.31284
549.10        71.86483
549.53        71.11037
549.97        70.36813
550.41        69.96882
550.84         70.0184
551.28        70.45245
551.72        71.08029
552.15        71.48831
552.59        71.55696
553.03        71.61523
553.46         71.3739
553.90        71.31487
554.34        71.36839
554.77        71.41617
555.21        71.41476
555.65        71.43059
556.08        71.65813
556.52        71.08321
556.96        71.41527
557.39         71.2351
557.83          71.092
558.27        71.03573
558.70        71.11471
559.14        71.29584
559.57        71.53568
560.01        71.87577
560.45        72.19279
560.88        72.27121
561.32        72.10435
561.75        71.74306
562.19        71.34573
562.63        70.95446
563.06        70.69491
563.50        70.85276
563.93        71.28989
564.37        71.57872
564.80        71.59997
565.24        71.49303
565.68        71.31253
566.11        71.16357
566.55        71.11796
566.98         71.0704
567.42        71.11427
567.85        71.12906
568.29        71.92133
568.72        71.99471
569.16        71.80652
569.60        72.20441
570.03        72.84115
570.47        72.82185
570.90        72.46086
571.34        70.89359
571.77        71.61276
572.21        71.99225
572.64        71.42474
573.08         70.2427
573.51        67.16535
573.95         69.8772
574.38        74.59588
574.82        72.55773
575.25        71.99651
575.69         69.7556
576.12        68.51079
576.56        67.96298
576.99        69.41241
577.42        72.53448
577.86        72.83754
578.29        71.95993
578.73        75.64913
579.16        69.72062
579.60        63.97038
580.03        66.23685
580.47        70.85986
580.90        72.85675
581.33        71.24104
581.77        70.61729
582.20        77.83723
582.64        77.28268
583.07         66.1444
583.51        64.38879
583.94        63.39302
584.37        66.09869
584.81          69.409
585.24        73.16499
585.68        75.00767
586.11         73.6789
586.54        68.59476
586.98        66.38803
587.41        66.87746
587.85        70.71185
588.28        73.24706
588.71        69.66485
589.15        67.49234
589.58        68.87848
590.01          69.028
590.45        70.30806
590.88        70.75531
591.31        70.12393
591.75        69.80209
592.18        69.74547
592.61        70.99258
593.05        71.41708
593.48        74.74503
593.91        75.61559
594.35        69.82585
594.78        68.16283
595.21        67.51884
595.65        70.47311
596.08        73.41257
596.51        70.66772
596.94         68.5442
597.38        69.12586
597.81        71.77632
598.24        73.84956
598.68        72.09019
599.11        70.86867
599.54        73.86711
599.97        75.35422
600.41        70.34638
600.84        70.51504
601.27        71.95547
601.70        70.70148
602.14        70.70312
602.57        69.65104
603.00        70.28123
603.43        72.05988
603.87        73.43903
604.30        73.38237
604.73        71.41995
605.16        69.41986
605.60        70.59158
606.03        71.55044
606.46        72.47253
606.89        72.74859
607.32        70.03837
607.76        70.11977
608.19        72.40633
608.62         71.5578
609.05        70.36999
609.48        70.74824
609.92        70.38074
610.35        70.29374
610.78         72.5721
611.21        73.26531
611.64        69.87273
612.07        70.50685
612.50        70.93839
612.94        71.41486
613.37        70.89119
613.80        71.01546
614.23        71.77161
614.66        71.61372
615.09        71.61296
615.52        71.59473
615.96        71.69521
616.39        71.89429
616.82        70.75681
617.25        70.74254
617.68         71.4666
618.11        72.06798
618.54        72.28899
618.97        71.67019
619.40        70.63652
619.84        70.58588
620.27        71.48029
620.70         72.2718
621.13        72.66068
621.56         72.0684
621.99        70.87883
622.42        71.53127
622.85        73.48724
623.28        73.35473
623.71        72.67047
624.14        72.20773
624.57        72.14199
625.00        71.91735
625.43        72.25631
625.86        71.66387
626.29        71.61794
626.72        72.77359
627.15        71.98984
627.58        72.11409
628.01        72.10519
628.44        72.20525
628.87        72.45145
629.30        72.45522
629.73        72.73306
630.16        73.18633
630.59        72.63741
631.02        72.30989
631.45        71.93013
631.88        71.63545
632.31        71.45617
632.74        71.50681
633.17        71.52845
633.60        71.60136
634.03        71.63028
634.46        71.65275
634.89        71.66982
635.32        71.68525
635.75        71.70353
636.18        71.70575
636.61        71.70613
637.04        71.73814
637.47        71.80354
637.89        71.90329
638.32        71.98093
638.75        71.99133
639.18        71.92436
639.61         71.8039
640.04        71.66271
640.47        71.55142
640.90        71.49152
641.33        71.46512
641.76        71.44824
642.18        71.50398
642.61        71.62253
643.04        71.62358
643.47        71.45514
643.90        71.96276
644.33        71.65707
644.76         71.7421
645.18        71.76081
645.61         71.7109
646.04        71.57859
646.47        71.36401
646.90        71.17924
647.33        71.15035
647.75        71.32049
648.18        71.69599
648.61        72.05399
649.04         72.0484
649.47         71.6426
649.89        70.80804
650.32        69.97172
650.75        69.99352
651.18        70.80475
651.61        71.55072
652.03        71.89534
652.46        71.83201
652.89        71.68056
653.32        71.18767
653.74        70.73668
654.17        71.69964
654.60        72.35027
655.03        69.95033
655.46        70.88503
655.88        75.19408
656.31        79.78085
656.74        183.4102
657.16        119.0728
657.59        41.79072
658.02        31.20283
658.45        53.71066
658.87        68.64278
659.30        72.64439
659.73         71.6041
660.15          68.814
660.58        71.50528
661.01        73.26237
661.44        71.01269
661.86        70.24297
662.29        70.15482
662.72        70.84522
663.14        72.05467
663.57        71.89893
664.00        70.66382
664.42        70.38768
664.85        71.14547
665.27         71.6309
665.70        71.62212
666.13        71.50114
666.55         71.2536
666.98        70.74865
667.41        70.18993
667.83        69.96667
668.26         70.1596
668.69        70.61556
669.11         71.0825
669.54        71.51036
669.96        71.16077
670.39        70.66449
670.82        70.05052
671.24        69.83301
671.67        70.15897
672.09        70.40004
672.52        71.02721
672.94        71.59772
673.37        71.04539
673.80         70.7677
674.22        70.54073
674.65        70.43896
675.07        70.47656
675.50        70.50467
675.92        70.52354
676.35        70.63911
676.77         70.8418
677.20        71.02273
677.62        71.16386
678.05        71.24292
678.47        71.24339
678.90        71.18871
679.32        71.11748
679.75        70.95971
680.17        71.01254
680.60          71.041
681.02        71.07652
681.45        71.00989
681.87        70.83787
682.30        70.58775
682.72         70.3595
683.15        70.32837
683.57        70.53701
684.00        70.84106
684.42        71.26176
684.85        71.45094
685.27        71.39438
685.70        71.17751
686.12        70.89169
686.54        70.72054
686.97        70.70471
687.39        70.82176
687.82         70.9898
688.24        71.10677
688.66        71.12184
689.09        71.08701
689.51         71.0462
689.94        71.03973
690.36        71.09194
690.78        71.15025
691.21        71.20261
691.63        71.30007
692.06         71.4092
692.48        71.41102
692.90        71.33252
693.33        71.31564
693.75        71.37447
694.17        71.43398
694.60        71.49163
695.02        71.57118
695.44         71.6322
695.87        71.80976
696.29        72.08302
696.71        71.92264
697.14        71.48656
697.56        71.87296
697.98        72.84512
698.41        72.59424
698.83         71.7818
699.25         71.2896
699.68        71.35932
700.10        71.29513
700.52        71.10986
700.94        71.19383
701.37        71.49987
701.79        71.83768
702.21        72.12514
702.64        72.41758
703.06        72.61962
703.48        72.57413
703.90        72.28165
704.33        71.79098
704.75        71.25854
705.17        71.02773
705.59        71.18468
706.01        71.52081
706.44        71.86695
706.86         72.5638
707.28        72.56766
707.70        72.68787
708.12        72.67838
708.55        72.61304
708.97        72.49784
709.39        72.31876
709.81        72.14693
710.23        72.09696
710.66          72.194
711.08         72.4408
711.50        72.70297
711.92        72.77528
712.34        72.61527
712.76        72.27167
713.19        71.89849
713.61        71.77963
714.03        71.96281
714.45        72.36205
714.87        72.78387
715.29        72.92072
715.71        72.70699
716.13        72.24912
716.56        71.72665
716.98        71.45687
717.40        71.51794
717.82        71.81212
718.24        72.20589
718.66        72.47404
719.08        72.54326
719.50        72.48058
719.92        72.34564
720.34        72.25312
720.76        72.24245
721.19        72.15449
721.61        72.20348
722.03        72.23582
722.45        72.30571
722.87         72.4114
723.29        72.53436
723.71        72.63052
724.13        72.68396
724.55        72.70309
724.97        72.69466
725.39        72.67522
725.81        72.65398
726.23        72.62943
726.65        72.61072
727.07        72.61064
727.49        72.63559
727.91        72.68959
728.33        72.76501
728.75        72.84643
729.17        72.92232
729.59        72.98414
730.01        73.04633
730.43        73.12519
730.85        73.22668
731.27        73.37394
731.69        73.50818
732.10        73.51191
732.52        73.36974
732.94         73.1628
733.36        73.02803
733.78        73.04412
734.20        73.22846
734.62         73.8555
735.04        74.70089
735.46        74.65453
735.88        73.96793
736.30        74.32008
736.72        75.61026
737.13        76.08118
737.55         75.4847
737.97          75.179
738.39        75.28045
738.81        74.62707
739.23        73.62453
739.65        74.48234
740.06         76.6691
740.48        76.88902
740.90        75.23519
741.32        74.43846
741.74        74.78152
742.16         74.9641
742.57        75.04964
742.99        75.79461
743.41         76.9398
743.83        77.60966
744.25        77.64748
744.67        77.28448
745.08        76.78907
745.50         76.5948
745.92         76.8355
746.34        77.35423
746.75        77.95641
747.17        78.31912
747.59         78.3784
748.01        78.24436
748.42        78.09576
748.84        78.22732
749.26        78.71542
749.68        79.32921
750.09        79.92997
750.51        80.55366
750.93        81.01669
751.35        80.75587
751.76        79.98473
752.18        79.72156
752.60        79.97514
753.01        79.97162
753.43        79.74831
753.85        79.85658
754.27        80.31097
754.68        80.99689
755.10        81.78742
755.52         81.9472
755.93        82.48285
756.35        82.47912
756.77        82.40053
757.18        82.38896
757.60        82.52395
758.02        82.97423
758.43        83.34467
758.85        83.09618
759.26        81.50395
759.68        80.92467
760.10        82.60037
760.51        83.16217
760.93        82.61847
761.34        81.79735
761.76        80.99754
762.18        80.35449
762.59        80.09972
763.01        80.42895
763.42        81.29646
763.84         82.0157
764.26        82.47529
764.67        82.86805
765.09        83.09882
765.50        83.11282
765.92        82.83267
766.33        81.62174
766.75        79.98171
767.16        79.46029
767.58        80.21789
768.00        81.43819
768.41        82.82579
768.83        84.22551
769.24        85.01285
769.66        84.30177
770.07        82.63393
770.49          80.994
770.90        79.88061
771.32        80.89743
771.73        83.29977
772.15        82.85324
772.56        80.01791
772.97        79.37919
773.39        80.87105
773.80         81.5129
774.22        80.66608
774.63        80.67569
775.05        81.31914
775.46        81.61985
775.88        81.45446
776.29        81.11219
776.70        80.74812
777.12        80.62947
777.53        80.83224
777.95        81.20421
778.36         81.5581
778.77        81.57545
779.19        81.23259
779.60        80.64561
780.02        80.04883
780.43        79.89796
780.84        80.33823
781.26          80.743
781.67        81.08133
782.09        82.32548
782.50        83.87563
782.91         83.0749
783.33        80.61333
783.74        79.84186
784.15        80.92604
784.57         81.6676
784.98         81.7413
785.39        81.75151
785.81        81.62067
786.22        81.02839
786.63        80.33808
787.04        80.24176
787.46        80.81345
787.87        81.83745
788.28        82.93384
788.70        83.45142
789.11        83.23361
789.52        82.51245
789.93        81.63273
790.35         81.0742
790.76        80.97327
791.17        81.23138
791.58        81.66905
792.00        81.91666
792.41        81.86069
792.82        81.68735
793.23        81.57845
793.65        81.31108
794.06        81.10566
794.47        82.10144
794.88        83.60777
795.29        83.10809
795.71        80.85858
796.12        78.99043
796.53        78.07148
796.94        77.76582
797.35        78.17059
797.76        79.39851
798.18        80.89068
798.59        81.84486
799.00        81.91577
799.41         81.1584
799.82        80.01913
800.23        79.37289
800.64        79.41807
801.06        79.80321
801.47        80.37441
801.88        80.76781
802.29         80.8466
802.70        80.76824
803.11        80.58263
803.52        80.33972
803.93        80.10408
804.34        79.83076
804.75        79.62952
805.17        79.78614
805.58        80.37382
805.99        80.99174
806.40          81.449
806.81        82.19504
807.22        82.76076
807.63        81.49737
808.04        79.05638
808.45         77.9518
808.86        78.43307
809.27        79.27422
809.68        80.06257
810.09        80.55026
810.50        80.52388
810.91        80.10284
811.32        79.50098
811.73        79.05466
812.14        78.86948
812.55        78.79205
812.96        78.85694
813.37        79.12553
813.78         79.5624
814.19        80.20101
814.60        80.72693
815.01        80.64331
815.42        79.89067
815.83        78.57513
816.24        77.22182
816.65        76.75873
817.05        77.46024
817.46        79.03275
817.87        80.82512
818.28        81.66837
818.69        81.23869
819.10        79.83016
819.51        78.16039
819.92        77.44551
820.33        77.99996
820.74        79.44497
821.14        81.08472
821.55        81.69378
821.96         81.0106
822.37        79.47003
822.78        77.72116
823.19        76.71077
823.60        76.69445
824.00        77.43304
824.41         78.4778
824.82        79.16831
825.23        79.23219
825.64        78.90477
826.04        78.43209
826.45         78.1675
826.86        78.20139
827.27        78.36077
827.68        78.54735
828.08        78.65776
828.49        78.58333
828.90        78.45757
829.31        78.24467
829.72        77.86296
830.12        77.37345
830.53        76.79091
830.94        76.37415
831.35        76.47453
831.75        77.17378
832.16        78.30882
832.57        79.59499
832.97        80.43103
833.38        80.53915
833.79        80.07834
834.20        79.35739
834.60        78.85548
835.01        78.73715
835.42         78.8701
835.82        79.06688
836.23         78.9306
836.64         78.4214
837.04        77.71075
837.45        77.06953
837.86        76.91263
838.26        77.33181
838.67        78.13467
839.08        79.07295
839.48        79.70265
839.89        79.83149
840.29         79.6069
840.70        79.14181
841.11        78.59425
841.51        78.05846
841.92        77.47531
842.33        76.96893
842.73        76.75822
843.14        76.84423
843.54        77.22311
843.95        77.67203
844.35        77.86412
844.76        77.69745
845.17        77.27615
845.57        76.76649
845.98        76.44324
846.38        76.37912
846.79        76.46076
847.19        76.63118
847.60        76.70526
848.00        76.66174
848.41        76.53773
848.81        76.39499
849.22        76.23616
849.62        76.13208
850.03        76.09445
850.43        76.16641
850.84        76.34219
851.24        76.65894
851.65        76.91983
852.05        77.32526
852.46         78.0209
852.86        78.98464
853.27        80.17868
853.67        80.94968
854.07        80.43405
854.48        78.64397
854.88         75.8877
855.29        73.19035
855.69        72.04153
856.10        72.74401
856.50        75.10097
856.90        78.20148
857.31        79.94286
857.71        79.64841
858.12         77.8732
858.52        75.66853
858.92        74.41339
859.33         74.4029
859.73        75.27188
860.13        76.62006
860.54        77.62199
860.94        78.00439
861.34         77.9755
861.75        77.80377
862.15        77.99912
862.55        78.64323
862.96        79.52599
863.36        80.38101
863.76        80.74261
864.17        80.50329
864.57        79.91555
864.97        79.26683
865.38        78.96552
865.78        79.16924
866.18        79.66124
866.58        80.34259
866.99        81.03901
867.39        81.70478
867.79        82.41721
868.19        82.91721
868.60        82.71523
869.00        81.75774
869.40        80.18409
869.80        78.71387
870.21        78.47798
870.61        79.80474
871.01        82.36906
871.41        85.32737
871.81        87.20567
872.22        87.57483
872.62        86.84052
873.02        85.71411
873.42        85.48087
873.82         86.2915
874.22        87.49097
874.63        88.71827
875.03        89.25945
875.43        88.74911
875.83        88.20546
876.23        86.67039
876.63        86.02394
877.03        86.26078
877.44        87.54215
877.84        102.9943
878.24        93.65919
878.64        93.72831
879.04        93.31445
879.44        89.74678
879.84        87.94299
880.24        91.25147
880.64        93.09569
881.04        94.08907
881.44        94.53546
881.84        93.88263
882.24        92.41067
882.65        91.05956
883.05        90.77576
883.45        91.72996
883.85        93.84253
884.25        96.36814
884.65        97.77441
885.05        97.59301
885.45        96.35051
885.85        94.84008
886.25        94.15851
886.65        94.53682
887.05        95.57155
887.45        96.87885
887.85        97.77987
888.25        97.99999
888.65        97.82437
889.04        97.28854
889.44        96.47146
889.84        95.47921
890.24        94.27689
890.64        93.23241
891.04        92.92608
891.44        93.42445
891.84         94.5937
892.24        95.91418
892.64        96.40961
893.04        95.88485
893.44        94.73787
893.83        93.51007
894.23        93.00095
894.63        93.36879
895.03        94.28158
895.43        95.62643
895.83         97.1697
896.23        98.68829
896.63        100.2635
897.02        101.3774
897.42        101.1984
897.82         99.6904
898.22        97.14236
898.62        94.55047
899.01        93.39749
899.41        93.97421
899.81        95.79061
900.21        97.99119
900.61        99.16333
901.00        98.92256
901.40        97.74225
901.80        96.19624
902.20        95.16928
902.59          94.935
902.99        95.19879
903.39         95.6983
903.79        96.00435
904.18        95.97316
904.58        95.82074
904.98        95.70273
905.38        95.83424
905.77        96.22136
906.17        96.70226
906.57        97.15426
906.96        97.47769
907.36        97.57101
907.76        97.51015
908.15        97.22836
908.55        96.49818
908.95        95.39838
909.34        94.00531
909.74        92.72156
910.14        91.98758
910.53        91.94212
910.93        92.52242
911.33        93.51566
911.72        94.50581
912.12        95.21738
912.52        95.66274
912.91        95.97854
913.31         96.3978
913.70        97.01689
914.10         97.7556
914.49        98.31649
914.89        97.93875
915.29        96.52111
915.68        94.42063
916.08        92.55486
916.47        91.67407
916.87        91.84595
917.26        92.81881
917.66        93.98436
918.05        94.39073
918.45        93.78979
918.84        92.53864
919.24        91.22753
919.64        90.68929
920.03        91.15536
920.42        92.33316
920.82        93.84746
921.21        95.21133
921.61        96.01644
922.00        96.39702
922.40        96.32615
922.79        95.78104
923.19        94.87971
923.58        93.58984
923.98        92.00038
924.37        90.67963
924.77        90.12593
925.16        88.22015
925.55        89.04765
925.95        89.85001
926.34        91.76611
926.74        94.29137
927.13        96.81183
927.52        98.06297
927.92        97.84912
928.31        96.54247
928.70        94.58302
929.10        92.76405
929.49        91.34652
929.89        90.16691
930.28        89.49685
930.67        89.78291
931.07         90.9284
931.46        92.92062
931.85        94.92945
932.24        95.67924
932.64        94.94267
933.03        92.92039
933.42        90.31828
933.82        88.73054
934.21        88.57656
934.60        89.38468
934.99        90.43937
935.39        90.98731
935.78        90.91019
936.17        90.18761
936.56        88.63393
936.96        88.65639
937.35        87.12445
937.74        86.82979
938.13         86.7939
938.53        87.27483
938.92        88.25424
939.31         89.8173
939.70        91.53117
940.09        92.10643
940.49        91.16328
940.88        89.21663
941.27        87.21918
941.66        86.32328
942.05        86.66026
942.44        87.83197
942.84        89.38954
943.23        90.62405
943.62        91.15559
944.01        91.20157
944.40        90.83736
944.79        90.16085
945.18        89.22426
945.57        87.90411
945.97        86.39639
946.36        85.30527
946.75        84.97193
947.14        85.29382
947.53        85.90449
947.92        86.37586
948.31        86.65825
948.70        86.86983
949.09        87.11501
949.48        87.57585
949.87         88.2439
950.26        88.92878
950.65        89.48956
951.04        89.78879
951.43        89.78234
951.82        89.52818
952.21        88.96094
952.60        88.01207
952.99        86.75145
953.38        85.24137
953.77        83.81974
954.16        82.94382
954.55        82.70011
954.94        83.06092
955.33        83.58112
955.72        83.47915
956.11         82.6044
956.50        81.14599
956.89        79.85434
957.28        80.10173
957.66        82.25654
958.05        85.58247
958.44        89.03721
958.83        91.10257
959.22        91.38835
959.61         90.2941
960.00        88.41434
960.39        86.73428
960.78        85.62775
961.16        84.89594
961.55        84.29008
961.94        83.42528
962.33         82.2689
962.72        81.09344
963.11        80.23624
963.49        80.06715
963.88        80.61098
964.27        81.76907
964.66        83.13358
965.04        83.86489
965.43        83.55524
965.82        82.49861
966.21        81.30711
966.60        80.80013
966.98        81.12612
967.37        81.99503
967.76        82.98603
968.15        83.28362
968.53         82.6659
968.92        81.44214
969.31        80.07774
969.69        79.13343
970.08        78.75426
970.47         78.7917
970.86        79.03219
971.24        79.11919
971.63        78.92633
972.02        78.54574
972.40        78.26199
972.79        78.53284
973.17        79.56525
973.56        81.09501
973.95        82.63421
974.33        83.25846
974.72        82.63822
975.11        81.07172
975.49        79.32632
975.88        78.47755
976.26        78.67125
976.65        79.71203
977.04        80.84567
977.42          80.321
977.81        77.68935
978.19        73.76676
978.58        70.45911
978.96        69.64812
979.35        71.58347
979.74        75.89163
980.12        81.60642
980.51        85.31297
980.89        85.85578
981.28        84.07226
981.66        81.44289
982.05        79.90405
982.43        79.80305
982.82        80.46381
983.20        81.60953
983.59        82.95197
983.97        84.43697
984.35        86.31467
984.74        88.13458
985.12        89.12636
985.51        88.70322
985.89        86.90493
986.28        84.39983
986.66        82.27962
987.04         81.1498
987.43        80.85233
987.81        80.87958
988.20        80.55796
988.58        79.63364
988.96        77.96455
989.35        75.89142
989.73        75.47912
990.12        77.75848
990.50        81.87015
990.88         85.1245
991.27        85.58892
991.65        83.64681
992.03        79.84821
992.42        75.81828
992.80        74.35716
993.18        76.18426
993.56        79.64012
993.95        83.11443
994.33        85.24721
994.71        85.73766
995.10        85.40448
995.48        84.33202
995.86        82.42988
996.24        79.78832
996.63         76.0872
997.01        72.34621
997.39        71.60008
997.77        74.99227
998.15         81.7302
998.54        88.63708
998.92        91.53027
999.30        89.20675
999.68        82.71279
1000.06        73.86781
1000.45        67.27731
1000.83         64.9678
1001.21        65.56215
1001.59        67.92251
1001.97        70.89369
1002.35        74.12768
1002.73        78.48277
1003.12        82.91143
1003.50        83.90137
1003.88        79.88918
1004.26         72.5892
1004.64        65.31628
1005.02        60.71027
1005.40         58.7507
1005.78        58.86441
1006.16        61.83802
1006.54        67.49289
1006.92        72.76659
1007.30         76.1904
1007.69        78.04288
1008.07        79.51286
1008.45        81.31808
1008.83        84.01868
1009.21        87.78006
1009.59        87.39451
1009.97        60.12468
1010.35       -12.80271
1010.73       -33.67876
1011.11       -1.523798
1011.49        30.29967
1011.86        55.37262
1012.24        69.91674
1012.62         75.0036
1013.00         73.8433
1013.38        67.91257
1013.76        59.52171
1014.14        58.06604
1014.52        71.95587
1014.90        103.4818
1015.28        144.7852
1015.66        169.9836
1016.04        162.5888
1016.41         127.064
1016.79         83.2445
1017.17        54.63903
1017.55        44.10266
1017.93         41.8778
1018.31        43.96124
1018.69        49.12339
1019.06        57.36465
1019.44         70.6188
1019.82        91.54843
1020.20        117.8293
1020.58        144.7207
1020.95        167.5836
1021.33        184.0551
1021.71       -158.7491
1022.09        100.4105
1022.46         112.121
1022.84        115.8064
1023.22        120.2397
1023.60        130.9476
1023.97        226.1408
1024.35         69.4315
1024.73        92.54437
