SpectraSmart Spectrum 2.9.0.0
--------- Device Information -----------
Spectrum Name :  反射率_0
Saving Time :  2024/04/26 01:19:31
Spectro-Module Model Name : SE2030-DUVN
Spectro-Module Serial Number : OS361AC55029948
Wavelength Start : 200
Wavelength End : 1025
Wavelength Unit : Wavelength(nm)
Spectrum Unit : Reflectance(%)
-----------Spectrum Setting ------------
Integration Time : 20ms
Average : 10
Boxcar : 0
Background removal :  enabled
linearity correction :  enabled
SC :  disabled
Intensity correction :  disabled
DWT denoise :  enabled
savitzky-golay :  disabled
FFT :  disabled
Running average :  disabled
Kalman :  disabled
High pass :  disabled
---------------BEGIN--------------------
Wavelength(nm)             Reflectance(%)
200.29               0
200.75        84.95412
201.21        82.80801
201.67        79.71568
202.13        76.89225
202.58        74.49986
203.04        72.66352
203.50        70.94805
203.96        68.87077
204.42        66.64883
204.88        64.64974
205.34        63.15156
205.80        62.21664
206.26        61.78775
206.72        62.11761
207.18        63.79398
207.64        66.90796
208.10        68.65681
208.55        67.82936
209.01        67.34392
209.47        68.98837
209.93        72.42778
210.39        77.46357
210.85        82.24889
211.31        82.40253
211.77        76.73844
212.23        67.13699
212.69        57.39319
213.14        53.29148
213.60         55.7883
214.06        63.56133
214.52        73.24464
214.98        79.47018
215.44        80.69101
215.90        78.38638
216.36         74.7969
216.81        72.96025
217.27        73.71376
217.73        75.85652
218.19        77.39722
218.65        75.73138
219.11         69.8671
219.57        58.99371
220.02        44.63965
220.48        35.94798
220.94        38.10399
221.40        48.73924
221.86         58.9681
222.32        59.41939
222.77        51.19096
223.23        39.58545
223.69        29.62092
224.15        26.31058
224.61        29.11744
225.06        35.43919
225.52        41.96687
225.98        44.67725
226.44        42.84209
226.90        38.29186
227.36        33.14786
227.81        30.18456
228.27        30.32829
228.73        32.39218
229.19        35.41261
229.65        38.00253
230.10        39.63547
230.56        40.69697
231.02        41.47733
231.48        42.26998
231.93        43.14033
232.39        43.98481
232.85        44.61332
233.31        44.81369
233.77        44.55009
234.22        43.88259
234.68        43.13926
235.14        42.86316
235.60        43.23554
236.05        44.16467
236.51        45.21981
236.97        45.73024
237.43        45.61081
237.88        45.08351
238.34        44.65111
238.80        45.71997
239.26        48.82248
239.71        53.50977
240.17        58.65902
240.63        62.82688
241.08         65.4893
241.54        66.88805
242.00        67.33781
242.46        67.34352
242.91        67.34377
243.37        66.74211
243.83        67.44246
244.28        86.92171
244.74        140.8222
245.20        150.9027
245.66        141.7993
246.11        140.9502
246.57        149.1216
247.03        173.7506
247.48        239.1268
247.94        189.3889
248.40        116.0228
248.85        95.39217
249.31        89.87386
249.77        89.44492
250.22        91.75357
250.68        96.95311
251.14        105.0245
251.59        111.0201
252.05        109.7499
252.51        103.2763
252.96        95.58361
253.42        91.19147
253.88        89.81748
254.33        89.80193
254.79        91.51172
255.25        94.82538
255.70        98.72113
256.16        102.9631
256.62        105.6999
257.07        105.0228
257.53        101.8409
257.99        96.79294
258.44        91.44413
258.90        88.68429
259.35        87.62054
259.81        87.39479
260.27        86.36398
260.72         82.9419
261.18        77.92685
261.63         71.9479
262.09        66.45355
262.55        62.34409
263.00        59.61162
263.46        57.96547
263.91        56.64762
264.37        55.20963
264.83          53.399
265.28        51.25042
265.74        49.20615
266.19        47.65547
266.65        46.81505
267.11        46.41121
267.56         45.9806
268.02        44.98179
268.47        43.27985
268.93        41.07786
269.38        38.71981
269.84        37.05717
270.30        36.33533
270.75         36.3189
271.21        36.57911
271.66        36.45664
272.12         35.7656
272.57        34.71033
273.03        33.58363
273.48        32.72924
273.94        32.27395
274.39         32.0517
274.85        31.89905
275.31        31.57513
275.76        31.01607
276.22        30.33524
276.67        29.66496
277.13        29.28853
277.58        29.18058
278.04        29.26268
278.49        29.28675
278.95        28.98257
279.40        28.28447
279.86        27.36476
280.31        26.38264
280.77        25.69569
281.22        25.33436
281.68        25.21233
282.13        25.19202
282.59        25.11558
283.04        24.93302
283.50        24.74745
283.95        24.55294
284.41        24.35916
284.86        24.17264
285.32        23.98278
285.77        23.88315
286.22        24.08661
286.68        24.57445
287.13        25.23925
287.59        25.83496
288.04        25.98174
288.50         25.6519
288.95        24.96558
289.41        24.19609
289.86        23.64455
290.32        23.45254
290.77        23.51344
291.22        23.77068
291.68        24.09204
292.13        24.44526
292.59        24.89694
293.04        25.47072
293.50        26.19491
293.95        27.05706
294.40          27.998
294.86        29.00333
295.31        30.07423
295.77        31.20835
296.22        32.41288
296.68        33.62405
297.13        34.70262
297.58        35.64671
298.04        36.51553
298.49        37.46175
298.95         38.7772
299.40        40.49921
299.85         42.5268
300.31        44.65945
300.76         46.5694
301.21        48.13966
301.67        49.49874
302.12         50.6968
302.58        51.91595
303.03        53.19305
303.48        54.50782
303.94        55.95431
304.39        57.61579
304.84         59.5023
305.30         61.5812
305.75        63.65081
306.20        65.42371
306.66        66.85297
307.11        67.95879
307.57         68.9511
308.02        70.03008
308.47        71.30769
308.93        72.73604
309.38        74.18043
309.83        75.48185
310.29        76.59348
310.74        77.53786
311.19        78.44309
311.65        79.50051
312.10        80.72894
312.55        82.07191
313.00        83.32734
313.46        84.17466
313.91         84.5329
314.36        84.52693
314.82        84.43312
315.27        84.62386
315.72        85.22796
316.18        86.13495
316.63        87.16685
317.08        87.98442
317.53        88.47673
317.99        88.72609
318.44        88.90077
318.89        89.27656
319.35        89.89651
319.80        90.69837
320.25        91.44106
320.70        91.74075
321.16        91.52657
321.61         90.9344
322.06        90.27705
322.51        90.03899
322.97        90.31171
323.42        90.99551
323.87         91.8046
324.32        92.24579
324.78        92.17213
325.23        91.76934
325.68        91.27161
326.13        91.09084
326.59        91.31742
327.04        91.84538
327.49        92.49164
327.94        92.98798
328.39         93.2405
328.85        93.31683
329.30        93.34226
329.75        93.36176
330.20         93.4395
330.66        93.54955
331.11        93.78742
331.56        94.23454
332.01        94.91374
332.46        95.78105
332.92        96.75758
333.37        97.87456
333.82        98.99282
334.27         100.091
334.72        100.9739
335.17        101.3468
335.63        101.1752
336.08        100.6057
336.53        99.94666
336.98        99.73926
337.43        100.1291
337.88        100.9705
338.34        102.0435
338.79        103.0625
339.24        103.8594
339.69         104.537
340.14        105.0434
340.59        105.2904
341.05         105.303
341.50        105.0817
341.95        104.8331
342.40        104.9041
342.85        105.3611
343.30        106.1151
343.75        106.9625
344.20        107.5255
344.66        107.7031
345.11        107.5967
345.56         107.339
346.01        107.1314
346.46        107.0533
346.91        107.0459
347.36        107.1123
347.81        107.2648
348.26        107.4953
348.72        107.8251
349.17        108.1778
349.62        108.4677
350.07        108.6551
350.52        108.7346
350.97        108.7374
351.42        108.7283
351.87        108.7198
352.32        108.6963
352.77        108.6041
353.22        108.3602
353.67        107.9644
354.13        107.4759
354.58        106.9654
355.03        106.5988
355.48         106.404
355.93        106.3225
356.38        106.2623
356.83        106.0749
357.28        105.7155
357.73        105.2345
358.18        104.6601
358.63        104.0388
359.08         103.402
359.53        102.7381
359.98        102.0893
360.43        101.5234
360.88        101.0397
361.33        100.6107
361.78        100.1759
362.23        99.63441
362.68        98.96621
363.13        98.21542
363.58        97.40813
364.03         96.5801
364.48        95.75935
364.93        94.94594
365.38        94.18827
365.83        93.56487
366.28        93.07819
366.73        92.68702
367.18         92.3358
367.63        91.93217
368.08        91.44845
368.53        90.92683
368.98        90.34073
369.43        89.64378
369.88        88.84718
370.33        87.96241
370.78        87.12484
371.23        86.56595
371.68        86.33083
372.13        86.35101
372.58        86.45264
373.03        86.33372
373.48         85.9138
373.93        85.29236
374.38          84.594
374.83        84.00691
375.28        83.58542
375.72         83.2529
376.17        82.99232
376.62        82.75776
377.07        82.51649
377.52        82.27144
377.97        81.99732
378.42        81.64706
378.87        81.22122
379.32        80.75304
379.77        80.23781
380.22        79.66652
380.67        79.04303
381.11        78.36151
381.56         77.7187
382.01        77.27955
382.46        77.08218
382.91        77.10693
383.36        77.15925
383.81         76.9249
384.26        76.35247
384.71        75.52847
385.15        74.71494
385.60        74.37419
386.05         74.5275
386.50        75.01629
386.95        75.50301
387.40        75.42389
387.85        74.70166
388.29        73.56973
388.74         72.4548
389.19        71.65676
389.64        71.23395
390.09        71.02795
390.54        71.02028
390.98        71.18268
391.43        71.44974
391.88        71.81007
392.33        72.05334
392.78        71.81461
393.23        71.09834
393.67        70.15106
394.12        69.32127
394.57        68.60799
395.02        68.21803
395.47        68.66302
395.91        69.74446
396.36        70.39865
396.81        70.44808
397.26        70.36563
397.71         70.2009
398.15        69.78926
398.60        69.26816
399.05        68.71546
399.50        68.20184
399.95        67.57441
400.39         67.1853
400.84        66.95556
401.29        66.93935
401.74        66.94488
402.18        66.95823
402.63        67.01852
403.08        67.15855
403.53        67.37292
403.97        67.63756
404.42        67.91666
404.87        68.08989
405.32        67.91788
405.76        67.36488
406.21        66.70533
406.66        66.09315
407.11        65.46283
407.55        65.03249
408.00        65.37353
408.45        66.27821
408.90         66.7266
409.34        66.48592
409.79        65.89914
410.24        65.22829
410.68        64.84796
411.13        64.85436
411.58        65.02431
412.03        65.29448
412.47        65.64715
412.92        65.97804
413.37        66.31323
413.81        66.56071
414.26        66.62489
414.71        66.47871
415.15        66.13259
415.60        65.71699
416.05        65.47084
416.49        65.46133
416.94        65.65192
417.39         65.8727
417.83        65.81716
418.28        65.43897
418.73        64.84169
419.17          64.291
419.62         64.2076
420.07         64.6338
420.51        65.42826
420.96         66.2736
421.41        66.62324
421.85        66.33379
422.30        65.72784
422.74        65.02925
423.19        64.56236
423.64        64.42812
424.08         64.7637
424.53        65.40481
424.98        65.86758
425.42        66.03679
425.87         66.2773
426.31        66.56408
426.76        66.37663
427.21        65.93721
427.65        66.13739
428.10        66.90253
428.54         67.5962
428.99        68.17171
429.44        68.42239
429.88        68.39801
430.33        69.32445
430.77        70.47942
431.22        69.28236
431.66        66.38321
432.11        64.94775
432.56        65.27473
433.00        66.00977
433.45        67.04836
433.89        68.91815
434.34        70.16468
434.78        71.71526
435.23        68.05753
435.67        65.72131
436.12        67.74758
436.57        68.91003
437.01        70.01237
437.46        70.51584
437.90        70.54399
438.35        70.23373
438.79        70.82623
439.24        70.79459
439.68        70.53188
440.13        70.07701
440.57        69.79138
441.02        70.51535
441.46        71.91536
441.91        72.95511
442.35        73.22993
442.80        72.35972
443.24        70.84383
443.69        71.21326
444.13        73.13586
444.58        73.15283
445.02        71.50207
445.47        71.43351
445.91        72.79932
446.36        73.29012
446.80        72.80305
447.24        72.50192
447.69        72.51705
448.13        72.60013
448.58        72.78692
449.02         73.0816
449.47        73.40544
449.91        73.65067
450.36        73.78207
450.80        73.81353
451.25        73.76057
451.69        73.61531
452.13        73.41791
452.58        73.18327
453.02        72.97787
453.47        72.94981
453.91        73.09809
454.36        73.37572
454.80        73.69226
455.24        73.79819
455.69        73.65317
456.13        73.47585
456.58        73.33663
457.02        72.83979
457.46          72.246
457.91         72.4008
458.35        73.10767
458.79        73.34689
459.24        73.07523
459.68        72.80423
460.13         72.6068
460.57        72.35471
461.01        72.13302
461.46        71.79853
461.90        71.33129
462.34         71.7188
462.79         71.3931
463.23        71.54925
463.68        71.68916
464.12         71.9136
464.56        72.15182
465.01        72.32696
465.45        72.27704
465.89        72.17403
466.34        71.94978
466.78         70.9498
467.22        69.67723
467.67        69.37695
468.11        70.46156
468.55         71.0624
468.99        71.02108
469.44        70.61858
469.88         70.0707
470.32        70.07975
470.77        70.54434
471.21        70.55488
471.65        70.06375
472.10          69.743
472.54        69.67711
472.98        69.67687
473.42        69.74387
473.87        70.04303
474.31        70.39913
474.75          70.349
475.20        69.96999
475.64        69.78207
476.08        69.86625
476.52        69.80923
476.97        69.60548
477.41        69.74513
477.85        70.22547
478.29        69.71658
478.74        70.19047
479.18        70.03818
479.62        69.32418
480.06        69.87706
480.50        70.04741
480.95          70.336
481.39        70.32912
481.83        69.34798
482.27        69.64109
482.72        69.36551
483.16        68.25719
483.60        68.54824
484.04        69.97374
484.48        70.35072
484.93        70.13503
485.37        71.58552
485.81        72.48065
486.25        70.99323
486.69        97.30309
487.14        79.09933
487.58        48.84499
488.02         59.8701
488.46        68.11919
488.90         67.2747
489.34        69.02355
489.79        68.05313
490.23        69.90543
490.67        70.65064
491.11        69.68714
491.55        69.67018
491.99        70.15558
492.43        69.99629
492.88        69.29131
493.32        69.30527
493.76        69.51437
494.20        69.76779
494.64        69.81801
495.08         69.8323
495.52        69.91502
495.96        69.97568
496.41        69.94405
496.85         70.4741
497.29        71.24918
497.73        69.92426
498.17        67.60513
498.61        67.89881
499.05        70.72999
499.49        71.25517
499.93        70.97724
500.37        70.54561
500.82        69.94563
501.26        70.03651
501.70        70.54875
502.14        70.83838
502.58        70.72512
503.02        70.59512
503.46         70.4361
503.90        69.97167
504.34        69.39359
504.78        69.15169
505.22        69.31187
505.66        69.75169
506.10        70.28171
506.54        70.50138
506.98        70.30168
507.42        69.95908
507.86        69.69706
508.30         69.1048
508.74        69.48843
509.18        69.75567
509.62        70.12493
510.06        70.32941
510.50        70.31053
510.94        70.13958
511.38        69.90816
511.82        69.78585
512.26        69.81815
512.70        69.94384
513.14        70.08775
513.58        70.20149
514.02         70.2634
514.46        70.17387
514.90        69.94574
515.34        70.21887
515.78        69.97619
516.22        70.08179
516.66        70.19186
517.10        70.09789
517.54        69.78258
517.98         69.9073
518.42        69.66985
518.86         69.7629
519.30        69.93673
519.74        70.22646
520.18        70.55003
520.62        70.76823
521.06        70.85072
521.50        70.83162
521.93         70.7394
522.37        70.62083
522.81        70.50945
523.25        70.40056
523.69        70.32352
524.13        70.32431
524.57        70.40667
525.01        70.55352
525.45        70.73325
525.89        70.88998
526.32        70.99004
526.76        71.04055
527.20        71.02311
527.64        70.93175
528.08        70.79339
528.52        70.56097
528.96        70.25233
529.40        70.09437
529.83        70.14421
530.27        69.62889
530.71        69.92442
531.15        69.92101
531.59        70.02275
532.03         70.1834
532.46        70.40947
532.90        70.67823
533.34        70.94832
533.78        71.20341
534.22        71.38416
534.66         71.4175
535.09        71.28416
535.53        71.04063
535.97        70.72536
536.41          70.421
536.85        70.17026
537.28        69.96966
537.72        69.83443
538.16        69.79528
538.60        69.85018
539.04        69.93253
539.47        70.00963
539.91        70.21836
540.35         70.4629
540.79        70.45394
541.22         70.2312
541.66        70.14826
542.10        70.22039
542.54        70.24742
542.97        70.23103
543.41        70.28668
543.85        70.40455
544.29        70.58048
544.72         70.7173
545.16        70.69195
545.60        70.48027
546.04        70.11298
546.47        69.76247
546.91        69.73133
547.35        70.05172
547.79        70.62643
548.22        71.18752
548.66        71.34067
549.10        71.00275
549.53        70.28019
549.97        69.49637
550.41        69.11536
550.84        69.24531
551.28        69.72507
551.72        70.34447
552.15        70.74352
552.59        70.80937
553.03        70.69231
553.46        70.49144
553.90        70.34231
554.34        70.27146
554.77        70.45889
555.21        70.30444
555.65        70.44234
556.08        70.70992
556.52        70.33802
556.96        70.87756
557.39        70.56364
557.83        70.05479
558.27        69.98242
558.70        70.33978
559.14         70.5669
559.57        70.61118
560.01        70.72872
560.45        70.91151
560.88        71.17142
561.32        71.40076
561.75        71.22591
562.19        70.75915
562.63        70.22618
563.06        69.80671
563.50        69.87395
563.93        70.29752
564.37        70.48141
564.80        70.35497
565.24        70.31455
565.68        70.36703
566.11        70.37923
566.55        70.40443
566.98        70.39481
567.42        70.39005
567.85        70.60153
568.29         70.9986
568.72        71.01897
569.16        70.89544
569.60        71.29186
570.03         71.8634
570.47         71.9846
570.90        71.91457
571.34        70.02189
571.77        71.33016
572.21        71.25783
572.64        70.76215
573.08        69.79893
573.51        66.65805
573.95        69.29948
574.38        73.70051
574.82        72.05558
575.25        71.67525
575.69        69.07605
576.12        67.71812
576.56        67.29173
576.99        68.54468
577.42         72.2557
577.86        71.72996
578.29        71.31762
578.73        75.37653
579.16        69.44994
579.60        63.32928
580.03        65.95605
580.47        70.25123
580.90        72.09388
581.33        70.85516
581.77        69.54304
582.20        76.97252
582.64        76.49229
583.07        65.65335
583.51        64.21963
583.94        62.52891
584.37        65.45804
584.81        68.62589
585.24        72.61943
585.68        74.62786
586.11        73.35246
586.54        68.20927
586.98         65.7106
587.41        66.28734
587.85        69.90035
588.28        72.38303
588.71        69.33475
589.15        66.69994
589.58        68.15974
590.01        68.34739
590.45        69.56031
590.88        70.28599
591.31        69.54661
591.75        68.92481
592.18         68.9165
592.61        70.59769
593.05        70.78812
593.48        74.06987
593.91        75.32414
594.35        69.00844
594.78        67.58955
595.21        67.10171
595.65        70.10093
596.08        72.88065
596.51        69.87203
596.94        67.85625
597.38        68.40936
597.81        71.07132
598.24        73.09966
598.68        71.46092
599.11        70.42692
599.54         73.1781
599.97        74.72047
600.41        69.45008
600.84        69.61655
601.27         71.1656
601.70        70.25878
602.14        70.40617
602.57        69.36403
603.00        69.76374
603.43        71.20261
603.87        72.79224
604.30        72.35138
604.73        70.27034
605.16        68.98283
605.60         69.7404
606.03        70.89394
606.46        72.03284
606.89        71.76344
607.32        69.23132
607.76        69.43297
608.19        71.55541
608.62        70.82953
609.05        69.75461
609.48        70.21798
609.92        69.88435
610.35        69.53081
610.78          71.804
611.21         72.3159
611.64        69.21301
612.07        69.91605
612.50        70.34316
612.94        70.80906
613.37        70.26152
613.80        70.28198
614.23        70.80934
614.66        70.62817
615.09        70.76428
615.52        70.82664
615.96         70.8996
616.39        71.04664
616.82        70.04889
617.25         69.6304
617.68        70.29307
618.11        70.85711
618.54        71.28706
618.97         70.8925
619.40        69.98885
619.84        69.90076
620.27        70.60229
620.70        71.11691
621.13        71.29479
621.56        70.80361
621.99        69.91267
622.42        70.72382
622.85         72.7532
623.28        72.10403
623.71        71.76553
624.14         71.5218
624.57        71.43356
625.00        71.04765
625.43        71.35038
625.86        70.71803
626.29        70.79897
626.72        71.41707
627.15        71.14211
627.58        71.28503
628.01         71.1622
628.44        71.79698
628.87        71.56639
629.30        71.49139
629.73        71.92786
630.16        72.63054
630.59        71.81117
631.02        71.43089
631.45        71.03425
631.88        70.72377
632.31        70.53474
632.74        70.47874
633.17        70.53559
633.60        70.61267
634.03        70.68315
634.46        70.76921
634.89        70.85368
635.32        70.90943
635.75        70.93048
636.18        70.90726
636.61        70.86789
637.04        70.87068
637.47        70.92448
637.89        71.02113
638.32        71.09979
638.75        71.10724
639.18        71.02939
639.61        70.89469
640.04        70.73104
640.47         70.5799
640.90        70.46284
641.33         70.3653
641.76         70.2775
642.18        70.28402
642.61        70.38293
643.04        70.39496
643.47        70.25529
643.90        70.77243
644.33        70.47463
644.76        70.54736
645.18        70.55865
645.61        70.53566
646.04        70.46714
646.47        70.34241
646.90        70.23524
647.33        70.21094
647.75        70.30435
648.18        70.54658
648.61        70.76443
649.04        70.68855
649.47        70.29648
649.89         69.5423
650.32        68.81973
650.75        68.89494
651.18        69.70572
651.61        70.52905
652.03        70.96111
652.46        70.87914
652.89        70.68219
653.32         70.0057
653.74         69.2082
654.17        70.98147
654.60        71.71027
655.03        69.08411
655.46        69.53611
655.88        74.19693
656.31        79.85216
656.74        183.4489
657.16        119.1968
657.59        41.89124
658.02        31.06819
658.45        53.26973
658.87        67.80683
659.30        71.53512
659.73        70.35136
660.15        67.75897
660.58         70.1822
661.01         71.9721
661.44        69.87246
661.86        69.23347
662.29        69.23753
662.72        69.93459
663.14         71.0989
663.57        71.00361
664.00        69.91595
664.42        69.70311
664.85        70.43636
665.27        70.90754
665.70         70.9037
666.13        70.77714
666.55        70.50776
666.98        69.99065
667.41        69.42313
667.83        69.18973
668.26        69.36971
668.69        69.80271
669.11        70.26053
669.54        70.72592
669.96        70.46252
670.39        70.10765
670.82        69.63831
671.24         69.4205
671.67        69.55762
672.09        69.77179
672.52        69.89531
672.94        70.46146
673.37        70.16341
673.80        69.98517
674.22        69.66951
674.65        69.55004
675.07        69.63842
675.50        69.61019
675.92        69.49374
676.35        69.52473
676.77        69.70955
677.20        69.90449
677.62        70.06985
678.05        70.14974
678.47        70.11905
678.90        70.01691
679.32        69.90529
679.75        69.74834
680.17        69.84241
680.60        69.94106
681.02        70.04695
681.45        70.00861
681.87        69.81338
682.30        69.50531
682.72        69.20325
683.15        69.11499
683.57        69.29587
684.00        69.58595
684.42        70.01807
684.85        70.25748
685.27         70.2847
685.70        70.16121
686.12         69.9564
686.54        69.85147
686.97        69.88177
687.39        69.97728
687.82        70.04103
688.24        70.17972
688.66        70.04786
689.09         69.8858
689.51        69.70699
689.94         69.7625
690.36         70.0298
690.78        70.21381
691.21        70.27879
691.63        70.31984
692.06        70.44733
692.48        70.45254
692.90        70.39408
693.33        70.35881
693.75        70.36017
694.17        70.37298
694.60        70.40945
695.02        70.45547
695.44        70.46754
695.87        70.68546
696.29        71.05399
696.71        70.77203
697.14        70.08793
697.56        70.57941
697.98         71.9543
698.41        71.86189
698.83        71.02886
699.25        70.51875
699.68        70.62118
700.10        70.55511
700.52        70.34043
700.94        70.38673
701.37        70.64834
701.79        70.94358
702.21          71.195
702.64        71.45589
703.06        71.63397
703.48        71.57729
703.90        71.28497
704.33        70.80274
704.75        70.27934
705.17        70.04528
705.59        70.18418
706.01        70.49349
706.44        70.81082
706.86         71.4803
707.28        71.47632
707.70        71.59137
708.12        71.58502
708.55        71.53359
708.97        71.44021
709.39        71.28912
709.81        71.13731
710.23        71.07433
710.66        71.12392
711.08        71.30298
711.50        71.49634
711.92        71.52914
712.34        71.36776
712.76        71.04764
713.19        70.72623
713.61        70.69107
714.03        70.98048
714.45        71.50414
714.87        72.02797
715.29        72.18084
715.71        71.88885
716.13        71.27847
716.56        70.58514
716.98        70.21944
717.40        70.28418
717.82        70.65572
718.24        71.15935
718.66        71.49601
719.08         71.5691
719.50        71.47218
719.92         71.2828
720.34        71.14193
720.76        71.10078
721.19        70.99004
721.61        71.03034
722.03        71.08978
722.45        71.22211
722.87        71.42277
723.29        71.64606
723.71        71.80085
724.13        71.85915
724.55        71.83862
724.97        71.77444
725.39        71.73299
725.81        71.73431
726.23        71.76002
726.65        71.79227
727.07        71.80045
727.49        71.78236
727.91         71.7622
728.33        71.75282
728.75        71.77172
729.17        71.82083
729.59           71.88
730.01        71.96591
730.43        72.09824
730.85        72.27712
731.27        72.52307
731.69        72.74912
732.10        72.79477
732.52        72.63218
732.94        72.34531
733.36        72.10886
733.78        72.06618
734.20        72.25916
734.62        72.95512
735.04        73.87376
735.46        73.84525
735.88        73.10182
736.30        73.23974
736.72        74.26424
737.13         74.7963
737.55        74.52937
737.97        74.41669
738.39        74.49335
738.81        73.61046
739.23        72.28528
739.65        73.10184
740.06        75.51728
740.48        75.81084
740.90        74.05576
741.32        73.26632
741.74        73.71419
742.16        73.93127
742.57        73.96722
742.99        74.62503
743.41        75.68504
743.83        76.34075
744.25        76.44942
744.67         76.2112
745.08        75.84593
745.50        75.71153
745.92        75.92278
746.34         76.3525
746.75        76.83543
747.17        77.09528
747.59         77.0816
748.01        76.88704
748.42        76.70464
748.84        76.81784
749.26        77.29205
749.68        78.00616
750.09        78.76208
750.51        79.23756
750.93        79.35704
751.35         79.1583
751.76        78.77882
752.18        78.63009
752.60        78.70006
753.01        78.55907
753.43        78.27546
753.85        78.35617
754.27        78.84301
754.68        79.50609
755.10        80.18634
755.52        80.78139
755.93        81.19911
756.35        81.39433
756.77        81.45431
757.18        81.48049
757.60        81.51264
758.02        81.75837
758.43        81.94228
758.85        81.60898
759.26        79.85979
759.68        79.84455
760.10        81.02103
760.51        81.52781
760.93        81.02959
761.34        80.28078
761.76        79.58978
762.18        79.12475
762.59        79.05653
763.01        79.32822
763.42        79.93495
763.84        80.51427
764.26        80.99521
764.67        81.44223
765.09         81.7127
765.50        81.63467
765.92        81.18121
766.33        80.00525
766.75        78.58941
767.16        78.15378
767.58        78.83231
768.00        80.12019
768.41        81.68449
768.83        82.88081
769.24        83.22997
769.66         82.6041
770.07        81.43724
770.49        80.04681
770.90        78.86094
771.32         79.6705
771.73        81.81352
772.15        81.22153
772.56        78.38239
772.97        77.75522
773.39        79.26876
773.80        79.76898
774.22        79.06085
774.63        79.07683
775.05         79.7413
775.46        80.10735
775.88         80.0517
776.29        79.83598
776.70          79.578
777.12        79.49953
777.53        79.67042
777.95        79.96867
778.36        80.23036
778.77        80.17461
779.19        79.79028
779.60        79.17776
780.02        78.60171
780.43        78.52591
780.84        79.07871
781.26        79.74511
781.67        80.39261
782.09        81.50999
782.50        82.60809
782.91        81.77752
783.33        79.64502
783.74        78.88101
784.15        79.63657
784.57        80.11092
784.98         80.0727
785.39         80.0786
785.81        80.06763
786.22        79.72823
786.63        79.31123
787.04        79.33911
787.46        79.85507
787.87        80.68638
788.28         81.5402
788.70        81.92403
789.11        81.72104
789.52        81.10222
789.93        80.35712
790.35         79.8843
790.76         79.8061
791.17         80.0685
791.58        80.48813
792.00        80.72897
792.41        80.69153
792.82         80.4069
793.23        80.15146
793.65        80.15736
794.06        80.51612
794.47        81.67065
794.88        82.90067
795.29        82.25533
795.71        80.01088
796.12        77.83203
796.53        76.42068
796.94        76.14359
797.35        77.04695
797.76        78.47601
798.18        79.80357
798.59        80.73478
799.00        80.91734
799.41        80.07443
799.82         78.6759
800.23        77.81149
800.64        77.71206
801.06         77.9738
801.47        78.47711
801.88        78.91761
802.29        79.16291
802.70         79.3594
803.11         79.4906
803.52         79.4833
803.93        79.35027
804.34        79.06232
804.75        78.76311
805.17        78.75008
805.58        79.11008
805.99        79.61171
806.40        80.03941
806.81        80.38789
807.22        80.39214
807.63        79.35213
808.04        77.74285
808.45        77.00558
808.86         77.3142
809.27        78.01044
809.68        78.78059
810.09        79.28864
810.50        79.35374
810.91        79.09863
811.32        78.69036
811.73        78.40022
812.14        78.30983
812.55        78.28283
812.96        78.33864
813.37        78.51797
813.78        78.79683
814.19         79.2208
814.60         79.5391
815.01        79.35208
815.42        78.61548
815.83        77.40633
816.24         76.1973
816.65        75.81863
817.05        76.51015
817.46        78.00851
817.87        79.67582
818.28        80.37011
818.69        79.78693
819.10        78.21071
819.51        76.39925
819.92        75.63529
820.33        76.24632
820.74        77.84511
821.14        79.67236
821.55        80.38973
821.96        79.70807
822.37        78.09129
822.78        76.25814
823.19        75.26799
823.60        75.40316
824.00        76.39058
824.41        77.71753
824.82        78.59496
825.23        78.69991
825.64        78.30154
826.04        77.70731
826.45        77.36308
826.86        77.39066
827.27        77.59907
827.68        77.84953
828.08        77.97291
828.49        77.83917
828.90        77.58701
829.31        77.24772
829.72        76.85671
830.12         76.4907
830.53         76.1231
830.94        75.87079
831.35        75.87695
831.75        76.19324
832.16         76.7224
832.57        77.35454
832.97        77.82336
833.38        77.97128
833.79        77.86207
834.20        77.63561
834.60        77.51444
835.01        77.58134
835.42        77.76038
835.82        77.93388
836.23        77.82393
836.64        77.42293
837.04        76.85751
837.45        76.31567
837.86        76.09585
838.26        76.27292
838.67         76.6983
839.08        77.25999
839.48        77.74364
839.89        78.01052
840.29        78.12962
840.70        78.04149
841.11         77.6414
841.51        76.96513
841.92        76.04003
842.33        75.11626
842.73        74.61909
843.14         74.6216
843.54        75.06223
843.95        75.66475
844.35        76.01069
844.76         75.9603
845.17        75.64357
845.57        75.24313
845.98        75.05752
846.38        75.15702
846.79            75.4
847.19        75.69327
847.60        75.79668
848.00        75.68366
848.41        75.43469
848.81        75.13503
849.22        74.81917
849.62         74.5693
850.03         74.3673
850.43        74.32552
850.84        74.56439
851.24        75.12991
851.65        75.80249
852.05        76.56174
852.46        77.19061
852.86        77.61955
853.27        77.94733
853.67        77.84753
854.07         76.9485
854.48        75.35586
854.88         73.2176
855.29        71.28618
855.69        70.64747
856.10        71.49312
856.50        73.72349
856.90         76.5752
857.31        78.25667
857.71        78.19619
858.12        76.81624
858.52        74.99764
858.92        73.92268
859.33        73.85029
859.73        74.47411
860.13        75.50455
860.54         76.3321
860.94        76.76369
861.34        76.95318
861.75        77.01849
862.15        77.22614
862.55        77.60343
862.96        78.02358
863.36         78.3885
863.76          78.518
864.17        78.38379
864.57        78.13924
864.97        77.92033
865.38        77.91189
865.78        78.20077
866.18        78.62316
866.58        79.15623
866.99        79.75319
867.39        80.41117
867.79        81.17995
868.19        81.72552
868.60        81.43032
869.00        80.22337
869.40        78.30992
869.80        76.56551
870.21          76.356
870.61        78.05257
871.01        81.24113
871.41        84.90112
871.81        87.26363
872.22        87.78612
872.62        86.93031
873.02        85.50793
873.42        84.96291
873.82        85.49763
874.22        86.39989
874.63        87.25005
875.03        87.30202
875.43        86.27013
875.83        85.42066
876.23         83.4907
876.63        82.66673
877.03        82.89953
877.44        84.44553
877.84        103.7441
878.24        92.25802
878.64        92.69851
879.04        92.42352
879.44        88.48236
879.84        86.56065
880.24         90.3624
880.64        92.52448
881.04         93.7328
881.44        94.16196
881.84        93.13906
882.24        91.08153
882.65        89.14404
883.05        88.44244
883.45        89.16135
883.85        91.22472
884.25        93.85585
884.65        95.40694
885.05        95.34472
885.45        94.19681
885.85        92.75307
886.25        92.10402
886.65        92.49357
887.05        93.55215
887.45        94.84107
887.85        95.59991
888.25        95.57007
888.65        95.05417
889.04        94.33731
889.44        93.88216
889.84        93.80464
890.24        93.89791
890.64         94.0988
891.04        94.34664
891.44        94.57965
891.84        94.85936
892.24        95.01239
892.64        94.70516
893.04        93.96241
893.44         92.9823
893.83        92.10718
894.23         91.8413
894.63        92.25085
895.03        93.11977
895.43        94.33115
895.83         95.6298
896.23        96.80717
896.63        97.91074
897.02        98.54463
897.42        98.10123
897.82        96.60008
898.22        94.31175
898.62        92.04128
899.01        90.96859
899.41        91.33865
899.81        92.74315
900.21        94.58566
900.61        95.86853
901.00        96.26138
901.40        96.06879
901.80        95.51836
902.20         94.9727
902.59        94.57896
902.99        94.18401
903.39        93.81709
903.79        93.56316
904.18        93.44571
904.58        93.54613
904.98        93.78836
905.38        94.01708
905.77        94.16724
906.17        94.23587
906.57        94.29945
906.96        94.53745
907.36        94.89745
907.76        95.32632
908.15        95.61933
908.55        95.33685
908.95        94.47263
909.34        93.16158
909.74        91.82866
910.14        90.95213
910.53        90.70276
910.93        91.00401
911.33        91.70065
911.72        92.50105
912.12         93.1608
912.52        93.65933
912.91        94.07201
913.31        94.53089
913.70        95.11279
914.10        95.78159
914.49        96.21958
914.89         95.6669
915.29        94.05474
915.68        91.73904
916.08        89.75452
916.47        89.00234
916.87        89.53248
917.26        91.05582
917.66        92.75786
918.05        93.31872
918.45        92.41045
918.84        90.50732
919.24         88.4765
919.64        87.58144
920.03        88.15711
920.42        89.79995
920.82        91.91389
921.21        93.58189
921.61        94.27435
922.00        94.29661
922.40        93.81559
922.79        93.07626
923.19        92.26611
923.58        91.20856
923.98        89.94319
924.37        89.02445
924.77        88.86092
925.16        87.12858
925.55        88.22054
925.95        88.94514
926.34        90.54027
926.74         92.5354
927.13        94.51009
927.52        95.48572
927.92        95.32977
928.31        94.37376
928.70        92.88492
929.10        91.36111
929.49        89.98988
929.89        88.67564
930.28        87.86828
930.67         88.3277
931.07        89.97815
931.46        92.61668
931.85        95.16425
932.24        95.98248
932.64        94.74675
933.03         91.8028
933.42         87.9139
933.82        84.88514
934.21        83.41434
934.60        83.11829
934.99        83.43472
935.39        83.82888
935.78        84.19875
936.17        84.34792
936.56        84.01255
936.96        85.70238
937.35        84.63055
937.74        84.44012
938.13        84.21793
938.53        84.65223
938.92        85.80106
939.31        87.65891
939.70         89.6639
940.09        90.21502
940.49        88.86162
940.88        86.32288
941.27        83.81773
941.66        82.76787
942.05        83.33298
942.44        85.02531
942.84        87.25008
943.23        89.02105
943.62        89.83175
944.01        89.93291
944.40        89.50046
944.79        88.80563
945.18        87.94913
945.57        86.77082
945.97        85.29633
946.36        83.82191
946.75        82.72204
947.14        82.14382
947.53        82.05109
947.92        82.28761
948.31        82.79096
948.70        83.61205
949.09        84.66962
949.48        85.68932
949.87        86.44961
950.26        86.85484
950.65        87.02357
951.04        87.24393
951.43        87.56705
951.82        87.90045
952.21        87.93839
952.60        87.22818
952.99         85.7468
953.38        83.71623
953.77        81.68397
954.16          80.395
954.55        80.01884
954.94        80.44869
955.33        81.13032
955.72          81.108
956.11         80.1683
956.50         78.5352
956.89        77.05615
957.28         77.2732
957.66        79.58705
958.05        83.19571
958.44        86.87124
958.83        88.82667
959.22        88.64253
959.61        86.82954
960.00        84.21467
960.39        82.15817
960.78        81.14053
961.16        80.85209
961.55        80.88603
961.94         80.5489
962.33        79.67339
962.72        78.59588
963.11        77.71286
963.49        77.48996
963.88        77.97598
964.27        79.01821
964.66        80.18428
965.04         80.6255
965.43        79.98312
965.82         78.6387
966.21        77.23023
966.60        76.56116
966.98        76.78577
967.37        77.61534
967.76        78.71761
968.15        79.42429
968.53         79.4716
968.92         79.0248
969.31        78.35132
969.69        77.77083
970.08        77.38603
970.47        77.13176
970.86        76.84564
971.24        76.27373
971.63        75.38641
972.02        74.28936
972.40         73.4171
972.79        73.48866
973.17        74.78124
973.56          77.004
973.95        79.51291
974.33        81.02773
974.72        81.02696
975.11        79.83582
975.49         78.2458
975.88        77.41196
976.26        77.51727
976.65        78.31525
977.04        79.10572
977.42        78.30737
977.81        75.58402
978.19        71.78372
978.58         68.6561
978.96        67.85702
979.35        69.58387
979.74         73.4442
980.12         78.7046
980.51        82.47568
980.89        83.69912
981.28        83.00183
981.66        81.24428
982.05        79.59533
982.43        78.40688
982.82        77.30506
983.20        76.65395
983.59        77.09687
983.97        78.79092
984.35        81.79756
984.74        85.15568
985.12        86.79594
985.51        85.52814
985.89        81.69566
986.28         76.7401
986.66         73.0881
987.04        71.73689
987.43        72.08297
987.81        72.96629
988.20        72.91726
988.58        71.45419
988.96        68.39037
989.35        64.38762
989.73        63.08167
990.12        66.72789
990.50        73.58371
990.88        79.16959
991.27        80.13715
991.65        77.03404
992.03        70.94564
992.42        64.36169
992.80        61.77375
993.18        64.36441
993.56        69.60235
993.95        75.17119
994.33          79.063
994.71        80.80179
995.10        81.44094
995.48        81.00918
995.86        79.27424
996.24        76.28844
996.63        71.62926
997.01        66.42462
997.39        64.24496
997.77        66.63215
998.15        72.95622
998.54        79.77888
998.92        82.30386
999.30         79.1563
999.68        71.43805
1000.06        61.60866
1000.45        55.52003
1000.83        55.27218
1001.21        58.76777
1001.59        63.56942
1001.97        67.13361
1002.35        68.91784
1002.73        69.87695
1003.12        69.63126
1003.50        67.42273
1003.88        63.55059
1004.26         58.8749
1004.64        54.82216
1005.02        52.24929
1005.40        50.98251
1005.78        50.90672
1006.16        53.05195
1006.54        58.36827
1006.92        64.33276
1007.30        68.58473
1007.69        70.89738
1008.07        72.33909
1008.45        73.49536
1008.83        74.55898
1009.21        74.28561
1009.59        64.13174
1009.97        18.31463
1010.35       -69.10456
1010.73       -77.27998
1011.11       -32.37057
1011.49        5.553201
1011.86        34.21004
1012.24        50.49495
1012.62        56.34194
1013.00        55.31848
1013.38        48.80457
1013.76        38.85182
1014.14        34.56572
1014.52        44.31384
1014.90        70.82162
1015.28        106.5031
1015.66        125.5813
1016.04        112.8107
1016.41         74.2418
1016.79        33.77507
1017.17        16.10928
1017.55        18.17417
1017.93        26.90926
1018.31        36.06853
1018.69        42.97455
1019.06        48.25387
1019.44        53.38413
1019.82        60.53113
1020.20        72.47515
1020.58        92.35604
1020.95        125.8789
1021.33        183.0914
1021.71        -415.121
1022.09        83.97224
1022.46        118.1607
1022.84        134.0359
1023.22        149.1095
1023.60        179.4261
1023.97        457.3951
1024.35       -9.963875
1024.73        43.79466
