SpectraSmart Spectrum 2.9.0.0
--------- Device Information -----------
Spectrum Name :  反射率_0
Saving Time :  2024/04/26 01:45:03
Spectro-Module Model Name : SE2030-DUVN
Spectro-Module Serial Number : OS361AC55029948
Wavelength Start : 200
Wavelength End : 1025
Wavelength Unit : Wavelength(nm)
Spectrum Unit : Reflectance(%)
-----------Spectrum Setting ------------
Integration Time : 20ms
Average : 10
Boxcar : 0
Background removal :  enabled
linearity correction :  enabled
SC :  disabled
Intensity correction :  disabled
DWT denoise :  enabled
savitzky-golay :  disabled
FFT :  disabled
Running average :  disabled
Kalman :  disabled
High pass :  disabled
---------------BEGIN--------------------
Wavelength(nm)             Reflectance(%)
200.29               0
200.75        100.7214
201.21        93.95613
201.67        85.49037
202.13        79.80363
202.58        77.59972
203.04        77.97812
203.50        79.48663
203.96        79.87584
204.42        78.71918
204.88        76.94682
205.34        75.81605
205.80        76.75492
206.26        80.70622
206.72        90.01073
207.18        108.5467
207.64        125.9966
208.10        117.4405
208.55         96.2469
209.01        82.53409
209.47        78.18249
209.93        79.38175
210.39        84.24545
210.85        89.69705
211.31        89.35129
211.77        81.54245
212.23        68.86215
212.69        56.79376
213.14        53.66778
213.60        60.71312
214.06        75.39931
214.52        91.85204
214.98        100.9888
215.44        100.6053
215.90        93.83547
216.36         84.6254
216.81        78.46615
217.27        76.98204
217.73        78.12251
218.19        79.64323
218.65        78.71132
219.11        74.21523
219.57        65.79538
220.02        54.54693
220.48        47.35926
220.94        48.16846
221.40        55.33469
221.86        61.91938
222.32        60.61255
222.77        52.46114
223.23        41.85216
223.69        33.20587
224.15        30.99944
224.61        34.60698
225.06        41.64325
225.52         48.7584
225.98         51.7923
226.44        49.99405
226.90        45.14996
227.36        39.57598
227.81        36.36222
228.27        36.47982
228.73        38.68011
229.19        41.71264
229.65        43.76941
230.10        44.39794
230.56        44.28884
231.02        44.09804
231.48        44.53453
231.93        45.62672
232.39        47.03777
232.85         48.3336
233.31        48.93432
233.77        48.70826
234.22        47.89019
234.68        46.80348
235.14        46.01285
235.60        45.81629
236.05        46.12406
236.51        46.84325
236.97        47.83516
237.43        49.14922
237.88        51.05133
238.34        53.66691
238.80        57.04222
239.26        60.84394
239.71        64.86115
240.17          68.353
240.63        70.92594
241.08        72.60505
241.54        73.32529
242.00        73.82076
242.46        75.39757
242.91        79.49139
243.37         88.9978
243.83        116.6519
244.28        198.3146
244.74        275.7694
245.20        214.1158
245.66        166.9319
246.11        154.6511
246.57        162.2133
247.03        197.6962
247.48        306.4218
247.94        256.5647
248.40          141.48
248.85        105.6737
249.31        95.09592
249.77        94.14758
250.22        98.65508
250.68        108.6334
251.14        123.8911
251.59        135.0469
252.05        132.2025
252.51        119.4273
252.96        105.3238
253.42        98.53233
253.88        98.63906
254.33        102.2599
254.79        108.2197
255.25        114.2676
255.70        118.8497
256.16        122.7984
256.62        124.7266
257.07        123.0672
257.53        118.9828
257.99        112.9738
258.44        106.6619
258.90        103.1897
259.35        101.5643
259.81        100.9117
260.27        99.52942
260.72        95.74452
261.18        90.41021
261.63        84.14381
262.09        78.30745
262.55        73.63523
263.00        70.15528
263.46          67.687
263.91         65.6675
264.37        63.92762
264.83        62.13374
265.28        60.19912
265.74        58.26767
266.19        56.26033
266.65        54.46292
267.11        52.87386
267.56        51.37263
268.02        49.79648
268.47        48.00007
268.93        46.03825
269.38        44.07096
269.84        42.62775
270.30        41.84486
270.75        41.58997
271.21        41.53589
271.66        41.17019
272.12        40.35836
272.57         39.2448
273.03        38.10052
273.48        37.24348
273.94        36.78636
274.39        36.56439
274.85         36.4162
275.31         36.0898
275.76        35.50887
276.22        34.78516
276.67        34.02116
277.13        33.47218
277.58        33.11944
278.04        32.92198
278.49        32.67319
278.95        32.16828
279.40        31.34958
279.86        30.37099
280.31        29.37735
280.77        28.71099
281.22        28.38392
281.68        28.31303
282.13        28.33171
282.59        28.24913
283.04        28.01109
283.50        27.73792
283.95        27.45227
284.41        27.21525
284.86        27.04452
285.32        26.91599
285.77        26.90486
286.22        27.20094
286.68        27.77259
287.13          28.508
287.59        29.16235
288.04         29.3515
288.50         29.0509
288.95        28.38405
289.41        27.61599
289.86        27.02827
290.32        26.77572
290.77        26.76691
291.22        26.99251
291.68        27.38872
292.13        27.93031
292.59        28.65699
293.04        29.54515
293.50        30.54872
293.95        31.62675
294.40          32.737
294.86        33.87733
295.31        35.06955
295.77        36.32651
296.22        37.65231
296.68        38.99313
297.13        40.22728
297.58        41.35408
298.04        42.42627
298.49        43.59592
298.95        45.15473
299.40        47.13443
299.85        49.43716
300.31         51.8262
300.76        53.91515
301.21        55.57788
301.67        56.95842
302.12        58.16898
302.58        59.50024
303.03        60.99767
303.48        62.61377
303.94        64.35747
304.39        66.17363
304.84        68.05182
305.30        70.00548
305.75        71.92844
306.20        73.68623
306.66        75.26566
307.11        76.63223
307.57         77.9007
308.02        79.11826
308.47         80.3709
308.93        81.65574
309.38        82.93121
309.83        84.18949
310.29        85.41394
310.74        86.57364
311.19        87.69065
311.65        88.79343
312.10         89.8711
312.55         90.9305
313.00        91.88367
313.46        92.59699
313.91        93.03522
314.36        93.25514
314.82        93.44258
315.27        93.82704
315.72        94.50025
316.18         95.3985
316.63         96.3761
317.08        97.14369
317.53        97.61215
317.99         97.8399
318.44        98.00945
318.89        98.42657
319.35        99.13227
319.80        100.0654
320.25        100.9402
320.70         101.291
321.16        101.0324
321.61        100.3284
322.06        99.54562
322.51        99.25568
322.97        99.56992
323.42        100.3634
323.87        101.3222
324.32        101.9022
324.78        101.9333
325.23        101.6228
325.68        101.1957
326.13        101.0525
326.59        101.2854
327.04        101.7914
327.49        102.4219
327.94        102.9738
328.39        103.3676
328.85        103.6532
329.30        103.9117
329.75        104.0914
330.20        104.2249
330.66         104.302
331.11        104.4735
331.56         104.907
332.01        105.6532
332.46        106.6546
332.92        107.7652
333.37        108.9219
333.82        109.9505
334.27        110.8559
334.72        111.5516
335.17        111.9242
335.63        111.9771
336.08        111.8063
336.53        111.5622
336.98        111.5416
337.43        111.8357
337.88          112.37
338.34        113.0838
338.79        113.9651
339.24        114.9184
339.69        115.9699
340.14        116.9194
340.59        117.4186
341.05        117.4187
341.50        117.0055
341.95        116.5177
342.40        116.4901
342.85        117.0419
343.30        118.0308
343.75        119.1655
344.20        119.9251
344.66        120.1591
345.11        119.9952
345.56        119.6585
346.01        119.4897
346.46        119.5849
346.91        119.8365
347.36        120.1011
347.81        120.1677
348.26        119.9986
348.72        119.6993
349.17        119.3968
349.62        119.3329
350.07        119.5508
350.52        119.9445
350.97        120.3626
351.42        120.5854
351.87        120.5502
352.32        120.3276
352.77        119.9747
353.22        119.5825
353.67        119.1987
354.13        118.8163
354.58        118.4303
355.03        118.1007
355.48        117.8261
355.93        117.5868
356.38        117.3451
356.83        117.0316
357.28        116.6183
357.73        116.1223
358.18         115.523
358.63        114.7933
359.08        113.9542
359.53        113.0358
359.98        112.1189
360.43        111.3267
360.88         110.679
361.33        110.1274
361.78        109.6264
362.23        109.0979
362.68        108.5147
363.13        107.9158
363.58        107.2578
364.03        106.4671
364.48        105.5503
364.93         104.526
365.38        103.5328
365.83        102.8035
366.28        102.3679
366.73        102.1329
367.18        101.9311
367.63        101.4861
368.08        100.7358
368.53        99.80228
368.98        98.76347
369.43        97.72684
369.88        96.75062
370.33        95.79901
370.78        94.98121
371.23        94.48428
371.68        94.32713
372.13        94.45843
372.58         94.6718
373.03        94.60435
373.48         94.1659
373.93        93.46625
374.38        92.67612
374.83        92.06669
375.28        91.70518
375.72        91.47796
376.17        91.33602
376.62        91.18196
377.07        90.95988
377.52        90.69346
377.97        90.33123
378.42        89.78643
378.87        89.07433
379.32         88.2542
379.77        87.40878
380.22        86.65121
380.67         86.0059
381.11        85.43793
381.56        84.96018
382.01        84.59508
382.46        84.34243
382.91        84.21768
383.36        84.10637
383.81        83.82557
384.26        83.34792
384.71        82.70692
385.15        82.07087
385.60        81.77838
386.05        81.82073
386.50        82.07944
386.95        82.29561
387.40        82.04246
387.85        81.28252
388.29        80.19992
388.74        79.16027
389.19        78.35811
389.64         77.8392
390.09        77.48606
390.54        77.33497
390.98        77.44908
391.43        77.78114
391.88        78.26807
392.33        78.66119
392.78        78.53813
393.23        77.88175
393.67        76.97318
394.12        76.14714
394.57        75.32602
395.02        74.74204
395.47        74.99378
395.91        75.94149
396.36        76.55896
396.81        76.67915
397.26         76.7609
397.71        76.80074
398.15        76.48222
398.60        75.92137
399.05        75.38154
399.50        74.88003
399.95        73.90984
400.39        73.01469
400.84        72.65713
401.29        72.89851
401.74        73.21185
402.18        73.41202
402.63        73.27808
403.08        72.95999
403.53        73.01192
403.97        73.44904
404.42        73.87485
404.87        74.09068
405.32        73.90549
405.76        73.26822
406.21        72.47034
406.66        71.71392
407.11        70.99452
407.55        70.57212
408.00        70.99184
408.45        72.02229
408.90        72.72149
409.34        72.71745
409.79        71.93766
410.24        70.76434
410.68          70.129
411.13         70.1675
411.58        70.35058
412.03        70.59969
412.47        71.01176
412.92        71.46475
413.37        71.95325
413.81        72.32793
414.26        72.40717
414.71        72.14876
415.15        71.58831
415.60        70.92451
416.05        70.50834
416.49        70.43734
416.94        70.64556
417.39        70.91189
417.83        70.83543
418.28        70.35081
418.73        69.60815
419.17        68.90653
419.62        68.71323
420.07        69.07231
420.51        69.81065
420.96        70.62602
421.41        70.95717
421.85        70.64472
422.30        70.14917
422.74        69.59219
423.19        68.87079
423.64        68.21015
424.08        68.43613
424.53        69.38311
424.98        69.93654
425.42        69.94579
425.87        70.22224
426.31        70.72164
426.76        70.55541
427.21        69.98745
427.65        70.28555
428.10        71.31985
428.54        72.05882
428.99        72.39128
429.44        72.45335
429.88         72.3122
430.33         72.9357
430.77        73.72277
431.22        72.60752
431.66        70.11716
432.11        68.74888
432.56        68.76599
433.00        69.50698
433.45        70.88493
433.89        72.56551
434.34        73.01612
434.78        75.38618
435.23        70.73788
435.67        68.98656
436.12        71.83598
436.57        73.04267
437.01         73.3195
437.46          73.535
437.90         73.9967
438.35        72.75768
438.79        73.54754
439.24        73.25712
439.68        73.04774
440.13        72.62666
440.57        72.37757
441.02        73.59214
441.46         75.6894
441.91        76.52209
442.35        75.95494
442.80        74.99816
443.24        74.08807
443.69        74.72565
444.13        76.46101
444.58        76.33251
445.02        74.60332
445.47        74.05138
445.91         75.1829
446.36        75.40766
446.80        74.83326
447.24        74.65269
447.69        74.95015
448.13        75.04572
448.58         75.5195
449.02        75.93097
449.47         76.3651
449.91        76.67581
450.36        76.82909
450.80        76.83288
451.25        76.70786
451.69        76.47617
452.13        76.19265
452.58        75.87614
453.02         75.6086
453.47        75.55704
453.91        75.71628
454.36        76.03375
454.80        76.40067
455.24        76.50164
455.69        76.28111
456.13        76.06449
456.58         75.9196
457.02        75.23817
457.46        74.38957
457.91         74.6701
458.35        75.77809
458.79        76.14407
459.24        75.70227
459.68        75.22398
460.13        74.82928
460.57        74.44825
461.01        74.21049
461.46        73.48971
461.90        73.25726
462.34        73.42593
462.79         73.1673
463.23        73.44371
463.68        73.81158
464.12        74.13155
464.56        74.29081
465.01        74.22345
465.45        73.87859
465.89        73.76576
466.34        73.74555
466.78        72.73423
467.22        71.25284
467.67        70.85473
468.11        71.95707
468.55        72.71808
468.99        72.88988
469.44        72.54495
469.88        71.88654
470.32        71.77002
470.77        72.14714
471.21        72.11687
471.65        71.64309
472.10        71.39235
472.54        71.42672
472.98        71.47393
473.42          71.508
473.87        71.83211
474.31        72.22827
474.75        71.89886
475.20        71.05153
475.64        70.85221
476.08        71.32493
476.52        71.36658
476.97        70.91751
477.41        71.25951
477.85        71.57715
478.29        71.23145
478.74        71.89867
479.18        71.85727
479.62        70.82036
480.06        71.27972
480.50        71.47763
480.95        71.72528
481.39        71.61165
481.83        70.51051
482.27        71.08066
482.72        70.47445
483.16         69.6987
483.60        69.92352
484.04        71.22089
484.48        71.65549
484.93        71.69856
485.37        72.92442
485.81        73.24008
486.25        72.02174
486.69        98.31725
487.14        79.46037
487.58        49.30769
488.02        60.15123
488.46        68.59753
488.90        68.03745
489.34        69.87727
489.79        68.90707
490.23        70.98966
490.67        71.82335
491.11        70.90147
491.55        70.83916
491.99         71.2271
492.43        71.01975
492.88        70.33042
493.32        70.38924
493.76        70.63475
494.20        70.87905
494.64        70.86578
495.08        70.80468
495.52        70.81805
495.96        70.82033
496.41        70.77751
496.85        71.35173
497.29         72.2188
497.73        71.10348
498.17        69.01337
498.61        69.23938
499.05         71.7574
499.49        72.13007
499.93        71.94643
500.37        71.58995
500.82        70.99885
501.26        71.13035
501.70        71.66904
502.14         71.8308
502.58        71.50361
503.02        71.30339
503.46        71.24221
503.90        70.93494
504.34        70.51206
504.78        70.36266
505.22        70.52363
505.66         70.9067
506.10        71.35615
506.54        71.52672
506.98        71.32419
507.42        71.17905
507.86         70.6653
508.30        70.48741
508.74          70.531
509.18         70.7632
509.62        71.05401
510.06        71.14655
510.50        71.02415
510.94        70.88638
511.38        70.81063
511.82        70.78975
512.26        70.85046
512.70        71.01982
513.14        71.22302
513.58        71.34889
514.02         71.3702
514.46        71.24734
514.90        71.02034
515.34         71.1282
515.78        70.95595
516.22        71.03992
516.66        71.14679
517.10        71.05094
517.54        70.73288
517.98        70.83754
518.42        70.58125
518.86        70.63341
519.30        70.75455
519.74        70.98272
520.18        71.25724
520.62        71.46994
521.06        71.59246
521.50        71.66337
521.93        71.69427
522.37        71.65362
522.81         71.5483
523.25        71.57672
523.69        71.42963
524.13        71.44824
524.57        71.53963
525.01         71.6977
525.45        71.86908
525.89        71.97036
526.32        71.97382
526.76        71.89658
527.20        71.77744
527.64        71.69782
528.08        71.69254
528.52        71.67728
528.96        71.59113
529.40        71.54097
529.83         71.5588
530.27        70.90205
530.71        71.02699
531.15        70.88983
531.59         70.9287
532.03        71.06441
532.46         71.3066
532.90        71.63549
533.34        71.99946
533.78        72.38977
534.22        72.69077
534.66         72.7402
535.09        72.51086
535.53        72.08339
535.97        71.58638
536.41        71.25051
536.85        71.14396
537.28        71.21152
537.72        71.36405
538.16        71.46341
538.60        71.46458
539.04        71.35596
539.47        71.18656
539.91        71.21729
540.35        71.38718
540.79        71.37064
541.22        71.17074
541.66        71.08808
542.10        71.12211
542.54        71.09107
542.97        71.02836
543.41        71.09453
543.85         71.2838
544.29        71.56968
544.72        71.80614
545.16        71.79993
545.60        71.51292
546.04        70.99829
546.47         70.4805
546.91        70.34508
547.35        70.64388
547.79        71.25598
548.22        71.87025
548.66        72.02081
549.10        71.61264
549.53         70.7869
549.97        69.89869
550.41        69.45955
550.84        69.59216
551.28         70.0989
551.72        70.75832
552.15        71.24263
552.59        71.41103
553.03        71.28809
553.46        70.98223
553.90        70.80782
554.34        70.81644
554.77        70.79882
555.21         70.7253
555.65        70.77741
556.08        70.96886
556.52        70.50764
556.96        70.99744
557.39        70.74258
557.83        70.33954
558.27        70.49265
558.70        70.71665
559.14        70.99827
559.57        71.13689
560.01        71.36976
560.45        71.61474
560.88        71.71106
561.32        71.63181
561.75        71.25849
562.19        70.76476
562.63        70.36349
563.06        70.16174
563.50        70.31641
563.93        70.67834
564.37        70.84637
564.80        70.74015
565.24        70.59621
565.68        70.47218
566.11        70.38373
566.55        70.40105
566.98        70.48647
567.42        70.59321
567.85        70.74398
568.29        70.98317
568.72        70.93925
569.16        70.77252
569.60        71.65774
570.03        71.75822
570.47        71.85675
570.90        71.82304
571.34        69.86327
571.77        71.04089
572.21        71.01391
572.64        70.29327
573.08        69.40398
573.51        66.65149
573.95        69.10361
574.38        73.73077
574.82        71.45648
575.25        70.89433
575.69        68.44544
576.12        67.70185
576.56        66.74117
576.99        68.03676
577.42        71.49675
577.86        71.92986
578.29          70.775
578.73        74.97186
579.16        68.82718
579.60        63.01354
580.03        65.36775
580.47        69.94631
580.90         71.5713
581.33        70.59521
581.77        69.33767
582.20        76.20594
582.64        75.64412
583.07        64.95607
583.51        63.70427
583.94        62.31089
584.37         65.0469
584.81        68.56056
585.24        72.25886
585.68        73.82573
586.11        72.57511
586.54        67.59615
586.98        65.39108
587.41        65.80463
587.85        69.32973
588.28        71.69712
588.71        68.28054
589.15        66.30375
589.58        67.84212
590.01        68.48758
590.45        69.00928
590.88        69.88379
591.31        69.11502
591.75        68.80459
592.18        68.73035
592.61        69.87043
593.05         70.5157
593.48        73.61242
593.91        74.41624
594.35        68.34169
594.78        66.97631
595.21        66.63786
595.65        69.72308
596.08        72.46736
596.51        69.63979
596.94        67.50829
597.38        68.02853
597.81        70.59711
598.24        72.72485
598.68        70.92969
599.11        69.80923
599.54        72.79137
599.97        73.98711
600.41        68.95858
600.84        69.02888
601.27        70.46989
601.70        69.48057
602.14         69.4989
602.57        68.45448
603.00        68.91472
603.43        70.43614
603.87        71.80023
604.30        71.53665
604.73        69.86742
605.16        68.17642
605.60        69.09636
606.03        69.98622
606.46        70.84905
606.89        71.19774
607.32        68.62321
607.76        68.64944
608.19         70.8885
608.62        69.92776
609.05        68.59905
609.48        69.12172
609.92        69.20858
610.35        68.80926
610.78        70.89857
611.21        71.68604
611.64        68.40346
612.07        69.08045
612.50        69.43236
612.94        69.77021
613.37        69.02105
613.80        69.58672
614.23        69.88277
614.66        69.83109
615.09        69.98045
615.52         70.0609
615.96        70.15957
616.39        70.27285
616.82        69.20471
617.25         68.9397
617.68        69.47993
618.11        70.08346
618.54        70.50507
618.97         70.0456
619.40        69.13982
619.84        68.59703
620.27        69.81812
620.70        70.47688
621.13        70.74322
621.56        70.09338
621.99        68.92458
622.42        69.67561
622.85        71.77518
623.28        71.55273
623.71        70.91093
624.14        70.39988
624.57        70.29074
625.00        70.11324
625.43        70.18684
625.86        69.63827
626.29         69.8971
626.72        70.38765
627.15        70.22234
627.58        70.44119
628.01        70.60793
628.44        70.73817
628.87        70.90038
629.30        70.77621
629.73        71.00542
630.16         71.4848
630.59        70.80242
631.02        70.48105
631.45        70.14258
631.88        69.88222
632.31         69.7248
632.74        69.68327
633.17        69.74532
633.60        69.83691
634.03         69.9343
634.46        70.05304
634.89        70.16704
635.32        70.23493
635.75        70.24975
636.18        70.21194
636.61         70.1579
637.04        70.15745
637.47        70.22165
637.89        70.33491
638.32        70.44116
638.75        70.48615
639.18        70.45069
639.61        70.38573
640.04        70.29031
640.47        70.10744
640.90        69.87947
641.33        69.72546
641.76        69.65067
642.18        69.65526
642.61        69.73901
643.04        69.78374
643.47        69.70389
643.90        70.23227
644.33        69.89949
644.76        69.90625
645.18        69.84171
645.61         69.7612
646.04        69.66572
646.47        69.53529
646.90         69.4445
647.33        69.46152
647.75        69.61442
648.18        69.92867
648.61        70.21585
649.04        70.17689
649.47        69.78049
649.89        69.00383
650.32        68.24727
650.75        68.24355
651.18        68.94152
651.61        69.74502
652.03        70.25938
652.46        70.13337
652.89        69.71648
653.32        69.29465
653.74        68.46926
654.17        70.11739
654.60        70.52467
655.03        68.31846
655.46        69.03215
655.88        72.78039
656.31        77.78172
656.74        176.0444
657.16        114.1507
657.59        40.31647
658.02        30.11556
658.45        52.46903
658.87        66.87631
659.30        70.08667
659.73        69.13675
660.15        67.29697
660.58        69.47979
661.01        71.15696
661.44        68.70723
661.86        67.98637
662.29        68.17413
662.72        69.04201
663.14        70.30196
663.57        70.16631
664.00        68.93105
664.42        68.64702
664.85          69.393
665.27        69.82132
665.70          69.732
666.13        69.57929
666.55        69.34766
666.98         68.8986
667.41        68.40094
667.83        68.19156
668.26        68.33933
668.69        68.71023
669.11        69.09277
669.54        69.47972
669.96        69.15227
670.39        68.75138
670.82        68.27886
671.24        68.04698
671.67        68.17132
672.09        68.58641
672.52        69.02871
672.94        69.51806
673.37        68.85979
673.80        68.69824
674.22        68.72861
674.65        68.65931
675.07        68.47877
675.50        68.22255
675.92        67.99673
676.35        67.99879
676.77        68.25148
677.20        68.61562
677.62        68.98408
678.05        69.18621
678.47        69.16263
678.90        68.98114
679.32        68.73895
679.75         68.4632
680.17        68.46936
680.60        68.49981
681.02        68.56125
681.45        68.50694
681.87        68.32113
682.30        68.06744
682.72        67.85193
683.15         67.8073
683.57         68.0004
684.00        68.38417
684.42        68.95653
684.85        69.20899
685.27        69.11816
685.70        68.83449
686.12        68.47518
686.54         68.2722
686.97         68.2786
687.39        68.31524
687.82        68.51976
688.24        68.62055
688.66        68.62888
689.09        68.57852
689.51        68.51729
689.94        68.48541
690.36        68.50459
690.78        68.55239
691.21         68.6031
691.63        68.62691
692.06        68.61979
692.48        68.60235
692.90         68.6023
693.33        68.64533
693.75        68.73779
694.17        68.87363
694.60        69.02656
695.02        69.13897
695.44         69.1587
695.87        69.25697
696.29        69.44211
696.71        69.19672
697.14        68.71046
697.56        69.15189
697.98        70.24667
698.41        70.01876
698.83        69.18903
699.25        68.60984
699.68        68.58576
700.10        68.48398
700.52         68.3352
700.94        68.50072
701.37        68.89236
701.79        69.26086
702.21        69.50899
702.64        69.70859
703.06        69.81091
703.48        69.73331
703.90        69.48982
704.33        69.10235
704.75        68.67701
705.17         68.4757
705.59        68.56525
706.01         68.7699
706.44        68.96391
706.86        69.53499
707.28        69.50365
707.70        69.62727
708.12        69.65182
708.55        69.62095
708.97        69.52946
709.39        69.37144
709.81        69.21611
710.23        69.17278
710.66         69.2667
711.08        69.50022
711.50        69.74172
711.92        69.79349
712.34        69.61577
712.76         69.2539
713.19        68.87315
713.61        68.77176
714.03        68.99963
714.45        69.47049
714.87        69.96114
715.29        70.11708
715.71        69.86388
716.13        69.31528
716.56        68.70024
716.98        68.41696
717.40        68.55847
717.82        69.00419
718.24        69.54739
718.66        69.83931
719.08        69.78164
719.50        69.48637
719.92        69.10159
720.34        68.87668
720.76        68.88489
721.19        68.93241
721.61        69.16277
722.03        69.32349
722.45        69.42719
722.87        69.52526
723.29         69.6381
723.71        69.71617
724.13        69.74297
724.55        69.98093
724.97        69.93415
725.39        69.99117
725.81        70.00636
726.23        70.00127
726.65        69.97346
727.07        69.92349
727.49        69.86555
727.91        69.80553
728.33         69.7672
728.75        69.78808
729.17        69.87044
729.59        69.99209
730.01        70.13799
730.43        70.27528
730.85        70.39342
731.27        70.52573
731.69        70.62835
732.10        70.61002
732.52        70.46504
732.94        70.26389
733.36        70.12718
733.78        70.13194
734.20        70.29476
734.62        70.84857
735.04         71.5877
735.46        71.61711
735.88        70.93694
736.30        71.35034
736.72        72.64957
737.13        73.09776
737.55        72.44471
737.97         71.9735
738.39         71.8712
738.81         71.2368
739.23        70.43905
739.65        71.34612
740.06        73.41144
740.48        73.61328
740.90        72.03214
741.32        71.18201
741.74        71.37627
742.16        71.51022
742.57         71.6683
742.99        72.52623
743.41        73.78606
743.83        74.52773
744.25        74.57478
744.67        74.17546
745.08         73.6168
745.50         73.3644
745.92        73.56295
746.34        74.04324
746.75        74.61451
747.17        74.96156
747.59        75.02666
748.01        74.92729
748.42        74.81755
748.84        74.98704
749.26        75.51166
749.68        76.04713
750.09        76.51087
750.51        77.29825
750.93        78.09805
751.35        77.74635
751.76        76.53703
752.18        76.03618
752.60        76.27502
753.01        76.46007
753.43         76.0445
753.85        76.14474
754.27         76.6185
754.68        77.20421
755.10         77.7717
755.52         78.2679
755.93        78.62435
756.35        78.80482
756.77        78.89331
757.18        78.90523
757.60        78.85817
758.02        79.08717
758.43        79.41274
758.85        78.78712
759.26        77.55777
759.68        77.65121
760.10        78.87678
760.51        79.24794
760.93         78.5537
761.34        77.97694
761.76        77.71062
762.18        77.36697
762.59        77.09587
763.01        77.21671
763.42        77.76057
763.84        78.22451
764.26        78.56684
764.67        78.89953
765.09        79.08218
765.50        79.02741
765.92        78.64499
766.33        77.34087
766.75        75.70156
767.16        75.28769
767.58        76.25493
768.00        78.02959
768.41        80.09367
768.83        81.25462
769.24        81.07223
769.66        80.12891
770.07        78.94074
770.49        77.43285
770.90        76.07296
771.32        76.91473
771.73        79.26241
772.15        78.84892
772.56        76.09595
772.97         75.4614
773.39        76.88535
773.80        77.29654
774.22        76.52342
774.63        76.42336
775.05        76.96631
775.46         77.3243
775.88        77.39004
776.29         77.3917
776.70        77.36137
777.12        77.37919
777.53        77.48208
777.95        77.58927
778.36        77.62057
778.77        77.44226
779.19          77.081
779.60        76.58553
780.02        76.15363
780.43        76.15257
780.84         76.6855
781.26        77.26917
781.67        77.79194
782.09        78.81217
782.50        79.84599
782.91        78.90137
783.33        76.66305
783.74        75.91618
784.15        76.81641
784.57        77.58854
784.98        77.90966
785.39        77.87303
785.81        77.86759
786.22        77.25352
786.63        76.55403
787.04        76.46368
787.46        77.06683
787.87         78.1255
788.28        79.25576
788.70        79.81915
789.11        79.65134
789.52        78.98418
789.93        78.14311
790.35        77.56136
790.76        77.38055
791.17        77.55417
791.58        77.91113
792.00        78.06009
792.41        77.89335
792.82        77.63336
793.23        77.49204
793.65        77.23291
794.06        77.10821
794.47        78.34968
794.88        80.15834
795.29        79.80833
795.71        77.51765
796.12        75.35589
796.53        74.03738
796.94         73.7709
797.35        74.61098
797.76        75.96616
798.18         77.2247
798.59        78.09569
799.00        78.24177
799.41        77.39516
799.82        76.03286
800.23        75.24547
800.64        75.25732
801.06        75.66028
801.47        76.29729
801.88        76.80481
802.29        77.03152
802.70        77.13242
803.11        77.12761
803.52        77.01077
803.93        76.81875
804.34        76.51275
804.75        76.20728
805.17        76.15816
805.58        76.44421
805.99        76.82291
806.40        77.12601
806.81        77.49937
807.22        77.65591
807.63        76.69756
808.04        75.08289
808.45        74.37618
808.86        74.74453
809.27        75.44411
809.68        76.16428
810.09        76.62545
810.50        76.65778
810.91        76.37233
811.32        75.93549
811.73         75.6165
812.14        75.49851
812.55        75.45121
812.96        75.50887
813.37        75.73227
813.78        76.09676
814.19        76.63536
814.60        77.06861
815.01        76.95646
815.42        76.24709
815.83        75.02967
816.24        73.79332
816.65        73.39994
817.05        74.09774
817.46        75.60945
817.87        77.29751
818.28        78.02132
818.69        77.47266
819.10        75.94371
819.51        74.15804
819.92        73.33991
820.33        73.81153
820.74        75.20184
821.14        76.82587
821.55        77.47166
821.96        76.87218
822.37        75.44776
822.78        73.82449
823.19        72.91984
823.60        72.97907
824.00        73.76391
824.41         74.8281
824.82        75.50729
825.23        75.53561
825.64        75.15575
826.04        74.63291
826.45        74.34618
826.86        74.39565
827.27        74.60499
827.68         74.8728
828.08        75.08557
828.49        75.12678
828.90        75.11916
829.31        75.00775
829.72        74.67971
830.12        74.18164
830.53        73.53371
830.94         72.9983
831.35        72.93054
831.75        73.42004
832.16        74.31564
832.57        75.36521
832.97        76.02898
833.38        76.06644
833.79        75.63098
834.20        75.01181
834.60        74.65429
835.01        74.69915
835.42        74.99979
835.82        75.36045
836.23        75.37655
836.64        74.99007
837.04         74.3678
837.45        73.73286
837.86        73.42987
838.26        73.55341
838.67        73.94859
839.08        74.48009
839.48        74.90128
839.89        75.07847
840.29        75.09828
840.70        74.96941
841.11        74.68758
841.51        74.29337
841.92        73.76827
842.33        73.25193
842.73        72.99232
843.14        73.01014
843.54        73.28413
843.95        73.61974
844.35        73.74369
844.76         73.5677
845.17        73.18988
845.57        72.74877
845.98        72.46544
846.38        72.39941
846.79         72.4549
847.19        72.58833
847.60        72.64347
848.00        72.61159
848.41        72.52406
848.81         72.4343
849.22        72.33955
849.62        72.29753
850.03        72.30023
850.43        72.40341
850.84        72.63175
851.24        73.01856
851.65        73.38554
852.05        73.81983
852.46        74.29192
852.86         74.7778
853.27        75.30595
853.67        75.48991
854.07        74.85895
854.48        73.46986
854.88        71.49944
855.29        69.64617
855.69         68.9105
856.10        69.47723
856.50        71.24801
856.90        73.57906
857.31        74.96867
857.71        74.95482
858.12        73.88418
858.52        72.47238
858.92        71.67221
859.33        71.68839
859.73        72.26311
860.13        73.15961
860.54        73.87709
860.94        74.27116
861.34        74.47871
861.75        74.56089
862.15        74.69827
862.55        74.90763
862.96        75.08949
863.36        75.27547
863.76        75.50351
864.17        75.75634
864.57        76.07752
864.97        76.38043
865.38         76.5113
865.78        76.49747
866.18        76.31293
866.58        76.08159
866.99        76.01432
867.39        76.21484
867.79        76.65045
868.19        77.08099
868.60        77.03843
869.00         76.4368
869.40        75.46239
869.80        74.64115
870.21        74.77265
870.61        76.10331
871.01         78.3326
871.41        80.87933
871.81        82.74509
872.22        83.59831
872.62        83.68805
873.02        83.34254
873.42        83.30403
873.82         83.6043
874.22        83.65446
874.63         83.4488
875.03        83.21019
875.43        82.94479
875.83         83.5779
876.23        82.87131
876.63        82.55687
877.03        82.34866
877.44        82.39422
877.84        105.1202
878.24        87.18024
878.64        88.08975
879.04        89.40618
879.44        85.82287
879.84         84.2166
880.24         88.5108
880.64        90.46348
881.04        90.99955
881.44        91.12357
881.84        90.49548
882.24        89.21095
882.65         88.0548
883.05        87.73351
883.45        88.36018
883.85        89.98048
884.25        91.93158
884.65        92.78102
885.05        92.15138
885.45        90.57296
885.85        88.82798
886.25          87.975
886.65        88.24202
887.05         89.2709
887.45        90.68774
887.85        91.82279
888.25        92.38063
888.65        92.56833
889.04        92.46422
889.44        92.23135
889.84        91.94338
890.24        91.52217
890.64        91.07402
891.04        90.79768
891.44        90.72273
891.84         90.8329
892.24        91.01575
892.64        91.02193
893.04         90.8306
893.44        90.59511
893.83        90.40836
894.23        90.41606
894.63        90.64047
895.03        90.95332
895.43        91.47929
895.83        92.43781
896.23        93.76084
896.63         95.3328
897.02        96.55608
897.42        96.47524
897.82        94.98902
898.22        92.51239
898.62        89.86262
899.01        88.22137
899.41        87.90022
899.81        88.50466
900.21        89.66009
900.61         90.7377
901.00        91.45699
901.40        91.99135
901.80        92.29173
902.20        92.27901
902.59        91.97485
902.99        91.33739
903.39        90.53395
903.79        89.91029
904.18        89.59579
904.58        89.59975
904.98         89.8166
905.38        90.04722
905.77        90.21208
906.17        90.34397
906.57        90.51842
906.96        90.89626
907.36        91.40939
907.76        91.98151
908.15        92.39937
908.55        92.22253
908.95        91.43199
909.34        90.15623
909.74        88.78661
910.14        87.75034
910.53        87.21658
910.93        87.13531
911.33         87.4304
911.72        87.96125
912.12          88.535
912.52        89.09585
912.91        89.63802
913.31         90.1692
913.70        90.74232
914.10        91.35477
914.49        91.71949
914.89        91.18882
915.29         89.7029
915.68        87.54103
916.08        85.68067
916.47        84.98656
916.87        85.50144
917.26        86.98764
917.66        88.60033
918.05        88.96165
918.45        87.77553
918.84        85.55701
919.24         83.3308
919.64        82.60722
920.03        83.75728
920.42        86.29179
920.82        89.41594
921.21        91.81203
921.61        92.78313
922.00        92.72788
922.40        91.92944
922.79        90.81063
923.19        89.63436
923.58        88.14346
923.98        86.38269
924.37        85.13068
924.77        84.90754
925.16        82.57284
925.55        83.98224
925.95        84.67731
926.34        86.32625
926.74        88.45067
927.13        90.55821
927.52        91.54449
927.92         91.2411
928.31        89.97531
928.70        88.18777
929.10        86.67564
929.49        85.66384
929.89         84.9878
930.28        84.76371
930.67        85.18192
931.07        86.09751
931.46        87.55872
931.85        88.95103
932.24        89.34847
932.64        88.59792
933.03        86.78214
933.42        84.44608
933.82        82.85273
934.21        82.35345
934.60        82.68185
934.99        83.17581
935.39        83.19354
935.78        82.65599
936.17        81.17044
936.56        78.65252
936.96        79.97456
937.35        79.16737
937.74        80.74669
938.13        82.20372
938.53        83.38312
938.92        84.34998
939.31        85.31622
939.70        86.13725
940.09        86.22658
940.49        85.50255
940.88        84.25043
941.27         82.9947
941.66        82.35989
942.05        82.41882
942.44        82.95954
942.84        83.82231
943.23        84.79647
943.62        85.64165
944.01        86.37477
944.40        86.78115
944.79        86.52953
945.18        85.54377
945.57        83.82758
945.97        81.66705
946.36        79.93639
946.75        79.19192
947.14        79.23669
947.53        79.75217
947.92        80.36063
948.31        80.96955
948.70        81.72429
949.09        82.49116
949.48        82.90516
949.87        82.80007
950.26        82.16632
950.65        81.35542
951.04        80.95779
951.43        81.10902
951.82         81.7057
952.21        82.32879
952.60        82.27978
952.99        81.41994
953.38        79.96546
953.77        78.51043
954.16         77.9122
954.55        78.31835
954.94        79.51334
955.33        80.78217
955.72        80.92548
956.11        79.67642
956.50        77.37614
956.89        74.99013
957.28        74.29427
957.66        75.86995
958.05         78.9275
958.44        82.39146
958.83        84.66492
959.22        85.29372
959.61        84.68204
960.00        83.35424
960.39        82.16843
960.78        81.43577
961.16         80.9447
961.55        80.39244
961.94        79.33912
962.33        77.77814
962.72        76.02953
963.11        74.58242
963.49        73.98943
963.88        74.30231
964.27        75.39788
964.66        76.79298
965.04        77.47173
965.43        76.99538
965.82        75.73919
966.21        74.39813
966.60        73.89076
966.98        74.38217
967.37        75.53178
967.76        76.89748
968.15        77.61685
968.53        77.39378
968.92        76.50217
969.31         75.3587
969.69        74.46663
970.08        73.97919
970.47        73.79668
970.86        73.72647
971.24        73.44994
971.63        72.90401
972.02        72.18851
972.40        71.72381
972.79        72.21934
973.17        73.90056
973.56        76.41188
973.95        78.99628
974.33         80.2249
974.72        79.61123
975.11        77.65304
975.49        75.27168
975.88        73.69706
976.26        73.12936
976.65        73.28941
977.04        73.67334
977.42        73.14326
977.81         71.4212
978.19         69.0547
978.58        67.32718
978.96        67.42188
979.35        69.49448
979.74        73.30534
980.12        78.11894
980.51        81.16091
980.89        81.57816
981.28        80.01685
981.66         77.7307
982.05        76.35838
982.43        76.17678
982.82        76.59148
983.20        77.42545
983.59        78.48966
983.97        79.73775
984.35        81.38904
984.74        82.80247
985.12        82.83656
985.51        80.88801
985.89         77.1484
986.28        72.94532
986.66        70.34598
987.04        70.05241
987.43        71.44731
987.81        73.23818
988.20        73.86555
988.58         72.8984
988.96        70.17776
989.35        66.17293
989.73        64.14948
990.12        66.36443
990.50        71.55848
990.88        75.93449
991.27        76.40873
991.65        73.44061
992.03        68.09731
992.42        62.58393
992.80        60.76682
993.18        63.58492
993.56        68.60081
993.95         73.9342
994.33        78.13654
994.71        80.73838
995.10        82.62161
995.48        83.27385
995.86         81.5949
996.24        77.42934
996.63         70.4786
997.01        62.55592
997.39        59.06212
997.77         62.4038
998.15        71.44962
998.54        81.58149
998.92        86.25819
999.30        83.63931
999.68        75.34038
1000.06        63.93796
1000.45        55.78577
1000.83        53.54351
1001.21        55.02667
1001.59        58.41723
1001.97         61.8524
1002.35        64.83546
1002.73         68.5958
1003.12           72.02
1003.50        71.47674
1003.88        65.92536
1004.26        57.32922
1004.64        49.61809
1005.02        46.11143
1005.40        46.99009
1005.78        52.15727
1006.16        62.32692
1006.54        72.67333
1006.92        76.60451
1007.30        75.55914
1007.69        72.75068
1008.07         70.3591
1008.45        68.08098
1008.83        64.16986
1009.21        54.21975
1009.59        24.38898
1009.97       -49.40785
1010.35       -137.0805
1010.73       -102.7223
1011.11       -33.22003
1011.49        13.31663
1011.86        44.29575
1012.24        61.19341
1012.62        67.96852
1013.00        68.55432
1013.38        64.46786
1013.76        57.57976
1014.14        55.16989
1014.52        63.57748
1014.90        84.47929
1015.28        111.1465
1015.66        122.3131
1016.04        106.0494
1016.41        68.92307
1016.79        32.26102
1017.17        16.61262
1017.55        18.53569
1017.93        26.27598
1018.31        34.37957
1018.69        40.59233
1019.06        45.43414
1019.44        50.20258
1019.82        56.17485
1020.20        63.47561
1020.58        71.34392
1020.95        78.45523
1021.33        74.21487
1021.71        299.5964
1022.09        127.3819
1022.46        123.0067
1022.84        124.3707
1023.22        130.1896
1023.60         147.267
1023.97        314.4218
1024.35        30.00401
1024.73        59.00652
