SpectraSmart Spectrum 2.9.0.0
--------- Device Information -----------
Spectrum Name :  反射率_0
Saving Time :  2024/04/26 01:08:01
Spectro-Module Model Name : SE2030-DUVN
Spectro-Module Serial Number : OS361AC55029948
Wavelength Start : 200
Wavelength End : 1025
Wavelength Unit : Wavelength(nm)
Spectrum Unit : Reflectance(%)
-----------Spectrum Setting ------------
Integration Time : 20ms
Average : 10
Boxcar : 0
Background removal :  enabled
linearity correction :  enabled
SC :  disabled
Intensity correction :  disabled
DWT denoise :  enabled
savitzky-golay :  disabled
FFT :  disabled
Running average :  disabled
Kalman :  disabled
High pass :  disabled
---------------BEGIN--------------------
Wavelength(nm)             Reflectance(%)
200.29               0
200.75        92.06978
201.21        89.09963
201.67        84.94051
202.13        81.55446
202.58        79.36035
203.04        78.28902
203.50        78.00011
203.96        78.07133
204.42        78.29261
204.88        78.58848
205.34        79.32409
205.80        81.18862
206.26        84.92097
206.72        92.57794
207.18        106.5368
207.64        116.5669
208.10        104.7915
208.55        85.63004
209.01        74.32638
209.47        70.97069
209.93        72.21671
210.39         76.7778
210.85        82.26921
211.31        83.52485
211.77        78.96919
212.23        70.41313
212.69        62.17222
213.14        60.98963
213.60        67.72056
214.06        80.26782
214.52        93.55977
214.98        99.87111
215.44        97.58385
215.90        89.60287
216.36        79.87209
216.81        73.85452
217.27        73.00201
217.73        75.19385
218.19        77.93383
218.65        78.13011
219.11        74.63812
219.57        67.10619
220.02         56.5318
220.48        49.44975
220.94        49.68724
221.40        56.01841
221.86        61.67046
222.32         59.4265
222.77        50.51801
223.23        39.28839
223.69        30.66382
224.15        29.72492
224.61        35.54704
225.06        45.26019
225.52        54.65047
225.98        58.21878
226.44        55.05714
226.90         47.6024
227.36        38.86425
227.81        32.90454
228.27        31.05644
228.73        31.84323
229.19        34.23771
229.65        36.70623
230.10        38.56687
230.56        40.18943
231.02        41.61654
231.48        42.83833
231.93        43.87652
232.39        44.66002
232.85        45.10443
233.31        45.19295
233.77        44.94027
234.22        44.36822
234.68        43.71288
235.14        43.34577
235.60        43.43637
236.05        43.99394
236.51        44.76368
236.97        45.32391
237.43        45.64885
237.88        45.91125
238.34        46.54398
238.80        48.60215
239.26        52.37303
239.71        57.57271
240.17        62.90078
240.63        66.70987
241.08        68.58189
241.54         68.7475
242.00        68.39747
242.46        69.52075
242.91        73.78822
243.37        84.23971
243.83        114.6126
244.28        201.9592
244.74        280.1391
245.20        211.8495
245.66        161.2752
246.11        147.1609
246.57        152.5103
247.03        182.4666
247.48        275.5107
247.94        231.7795
248.40        132.5959
248.85        101.9607
249.31        92.80186
249.77         91.4085
250.22        94.12817
250.68        100.7124
251.14        110.6716
251.59        116.8812
252.05        112.7084
252.51        101.7112
252.96        90.54373
253.42        85.64527
253.88        86.42366
254.33         90.2943
254.79         96.0607
255.25        101.4667
255.70         105.187
256.16        107.9719
256.62        109.0005
257.07        107.3064
257.53        103.8203
257.99        98.81626
258.44        93.34064
258.90        89.78153
259.35        87.42141
259.81         85.7925
260.27        83.74339
260.72        80.11057
261.18        75.51649
261.63        70.29103
262.09        65.45201
262.55        61.44551
263.00        58.31263
263.46        56.00632
263.91        54.08472
264.37        52.39745
264.83        50.68367
265.28        48.84847
265.74        47.11574
266.19        45.56176
266.65        44.39285
267.11         43.5159
267.56        42.67525
268.02        41.54309
268.47        39.99667
268.93         38.1303
269.38        36.18705
269.84        34.83419
270.30        34.23903
270.75        34.23593
271.21        34.39959
271.66        34.07566
272.12        33.11775
272.57         31.7412
273.03        30.35574
273.48        29.49408
273.94        29.29072
274.39        29.49625
274.85        29.80715
275.31        29.77344
275.76        29.28025
276.22        28.51715
276.67        27.65492
277.13        27.03184
277.58        26.67313
278.04        26.49336
278.49        26.32746
278.95        26.01444
279.40        25.49212
279.86        24.88625
280.31         24.2534
280.77        23.78181
281.22        23.46917
281.68         23.2819
282.13        23.15186
282.59        23.02082
283.04        22.86329
283.50        22.73692
283.95        22.62179
284.41        22.50377
284.86        22.38171
285.32        22.26755
285.77        22.22742
286.22        22.42492
286.68        22.84394
287.13        23.39049
287.59        23.89497
288.04        24.09964
288.50        23.98023
288.95        23.60506
289.41        23.13963
289.86        22.72614
290.32        22.48179
290.77        22.36831
291.22        22.40901
291.68        22.59401
292.13        22.92687
292.59        23.42681
293.04        24.11122
293.50        24.99599
293.95        26.05054
294.40        27.22777
294.86         28.4477
295.31        29.60607
295.77        30.69204
296.22        31.74118
296.68        32.80067
297.13        33.91855
297.58        35.12504
298.04        36.40946
298.49         37.8055
298.95         39.4183
299.40        41.24415
299.85        43.25816
300.31        45.32256
300.76        47.20752
301.21        48.83885
301.67        50.30924
302.12        51.69704
302.58         53.2341
303.03        54.94073
303.48        56.76981
303.94        58.72084
304.39         60.7268
304.84         62.7685
305.30        64.86038
305.75        66.87636
306.20        68.65266
306.66        70.18629
307.11        71.46992
307.57        72.68746
308.02        73.99398
308.47        75.49058
308.93        77.14126
309.38        78.83251
309.83         80.4359
310.29        81.89513
310.74        83.20195
311.19        84.42627
311.65        85.67795
312.10        86.96396
312.55        88.26289
313.00        89.42834
313.46        90.23276
313.91        90.62836
314.36        90.71732
314.82        90.76481
315.27         91.1186
315.72        91.89645
316.18        92.99522
316.63        94.21672
317.08        95.18245
317.53        95.77045
317.99        96.06642
318.44        96.26223
318.89         96.6795
319.35         97.3719
319.80        98.26872
320.25        99.10926
320.70        99.47345
321.16        99.28442
321.61        98.69707
322.06        98.04067
322.51        97.82647
322.97        98.14926
323.42        98.89304
323.87        99.77632
324.32        100.3121
324.78        100.3478
325.23        100.0809
325.68        99.69138
326.13        99.50574
326.59        99.60438
327.04        99.90551
327.49        100.3413
327.94        100.8396
328.39        101.3496
328.85        101.8854
329.30        102.4202
329.75        102.7176
330.20        102.7613
330.66         102.598
331.11        102.4865
331.56        102.7707
332.01        103.5518
332.46        104.7207
332.92        106.0655
333.37        107.3968
333.82        108.4913
334.27        109.3924
334.72        110.0394
335.17        110.3616
335.63        110.3848
336.08         110.187
336.53        109.9256
336.98        109.9154
337.43         110.246
337.88        110.8363
338.34        111.6153
338.79        112.5465
339.24        113.5249
339.69        114.5868
340.14        115.5128
340.59         115.926
341.05        115.7859
341.50        115.1967
341.95        114.5578
342.40         114.494
342.85        115.1326
343.30        116.2955
343.75        117.6349
344.20        118.5232
344.66         118.782
345.11        118.5922
345.56        118.1902
346.01        117.9349
346.46        117.9455
346.91        118.0974
347.36        118.3378
347.81        118.6038
348.26        118.8574
348.72        119.1438
349.17        119.4016
349.62        119.5589
350.07        119.5931
350.52        119.5087
350.97        119.3387
351.42        119.1488
351.87        118.9632
352.32        118.7756
352.77        118.5797
353.22        118.3614
353.67        118.1225
354.13          117.89
354.58        117.6503
355.03         117.441
355.48        117.2547
355.93        117.0619
356.38        116.8301
356.83        116.5133
357.28        116.0942
357.73        115.5898
358.18        114.9894
358.63        114.2799
359.08        113.4799
359.53        112.6084
359.98         111.736
360.43        110.9672
360.88        110.3153
361.33        109.7433
361.78        109.1884
362.23        108.5444
362.68        107.7944
363.13        106.9963
363.58         106.169
364.03         105.336
364.48        104.5161
364.93        103.6879
365.38         102.927
365.83        102.3616
366.28        101.9878
366.73        101.7467
367.18        101.4772
367.63        100.9186
368.08          100.03
368.53        98.92753
368.98        97.74934
369.43         96.6983
369.88        95.84152
370.33        95.11604
370.78        94.53853
371.23        94.13634
371.68        93.88662
372.13         93.7821
372.58        93.69905
373.03        93.42162
373.48        92.90849
373.93        92.22783
374.38        91.50602
374.83        90.94204
375.28        90.58384
375.72        90.35194
376.17        90.20757
376.62        90.06565
377.07        89.87248
377.52        89.62682
377.97        89.29591
378.42        88.82903
378.87        88.23597
379.32        87.56598
379.77        86.82912
380.22        86.03133
380.67        85.18913
381.11        84.30394
381.56        83.49878
382.01        82.97872
382.46        82.78666
382.91        82.88383
383.36        83.04037
383.81        82.88493
384.26        82.34207
384.71        81.50555
385.15        80.63682
385.60        80.20802
386.05        80.24395
386.50        80.58396
386.95        80.90927
387.40        80.69498
387.85        79.88201
388.29         78.6981
388.74        77.56146
389.19        76.73751
389.64        76.27538
390.09        76.01981
390.54         75.9668
390.98        76.11393
391.43        76.39977
391.88        76.80019
392.33        77.07545
392.78        76.82452
393.23        76.05033
393.67        75.00225
394.12        74.07195
394.57        73.32954
395.02        72.98067
395.47        73.46243
395.91        74.56591
396.36        75.26942
396.81        75.37083
397.26        75.28236
397.71        75.09924
398.15        74.65516
398.60        74.07677
399.05        73.69106
399.50        73.41753
399.95        72.30462
400.39         70.9967
400.84        70.75337
401.29        71.53667
401.74        71.78356
402.18        71.37123
402.63        71.11003
403.08        71.15122
403.53        71.33099
403.97        71.64956
404.42        72.08537
404.87        72.42697
405.32         72.3373
405.76        71.76756
406.21        70.91189
406.66        70.00282
407.11        69.43643
407.55        69.34044
408.00        69.40035
408.45        69.54842
408.90        70.13446
409.34        70.78459
409.79        70.31125
410.24         69.0319
410.68        68.45302
411.13        68.68545
411.58        68.89229
412.03        68.99649
412.47         69.2541
412.92        69.57254
413.37        69.91101
413.81        70.15604
414.26        70.17457
414.71        69.93258
415.15        69.46687
415.60        68.93542
416.05        68.61127
416.49         68.5699
416.94        68.76071
417.39        68.99541
417.83        68.93093
418.28        68.51595
418.73         67.8815
419.17        67.28707
419.62        67.14363
420.07        67.49046
420.51        68.17342
420.96        68.93726
421.41        69.31062
421.85        69.14034
422.30         68.8046
422.74        68.38168
423.19        67.77941
423.64        67.18736
424.08        67.30902
424.53        67.99843
424.98        68.38478
425.42        68.36855
425.87        68.47159
426.31         68.7265
426.76         68.8188
427.21        68.84183
427.65        69.09268
428.10        69.50111
428.54        70.02005
428.99        70.63852
429.44        70.75665
429.88        70.46085
430.33        71.32547
430.77        72.59036
431.22        71.33652
431.66        68.26573
432.11        66.89817
432.56        67.44124
433.00        68.25867
433.45        69.29177
433.89        71.03773
434.34        71.92391
434.78        74.63817
435.23        70.08044
435.67        67.91409
436.12        69.93302
436.57        71.00765
437.01        71.87782
437.46        72.18426
437.90        72.11492
438.35        71.66878
438.79        72.22228
439.24        72.20438
439.68        72.03089
440.13        71.72267
440.57        71.57926
441.02         72.3486
441.46        73.66628
441.91        74.51819
442.35        74.57943
442.80        73.56483
443.24        72.03207
443.69        72.53008
444.13        74.63236
444.58        74.94223
445.02        73.23709
445.47         72.8895
445.91        73.96173
446.36        74.22798
446.80        73.70318
447.24        73.40424
447.69        73.43841
448.13        73.56158
448.58        73.79222
449.02        74.14008
449.47        74.51366
449.91        74.78214
450.36        74.90584
450.80        74.89762
451.25        74.79878
451.69        74.64482
452.13        74.48293
452.58        74.31637
453.02        74.17341
453.47         74.1423
453.91        74.20772
454.36        74.34196
454.80        74.50109
455.24        74.48943
455.69        74.28406
456.13        74.15362
456.58        74.11871
457.02        73.54074
457.46        72.78483
457.91        72.98217
458.35        73.90565
458.79        74.23592
459.24        73.95192
459.68        73.58307
460.13        73.18314
460.57        72.99741
461.01        73.21642
461.46        71.90947
461.90        72.02941
462.34        72.40011
462.79        71.50871
463.23        71.58392
463.68         71.9209
464.12        72.41123
464.56        72.83132
465.01        72.99348
465.45        72.78299
465.89        72.51315
466.34        72.10252
466.78        71.05977
467.22        69.65559
467.67        68.85023
468.11        70.92313
468.55        71.52523
468.99        71.10801
469.44        70.57506
469.88        70.17368
470.32        70.17683
470.77         70.4897
471.21        70.47614
471.65        70.09541
472.10         69.9381
472.54        70.03455
472.98        70.08459
473.42         70.0646
473.87         70.2546
474.31        70.51048
474.75        70.25222
475.20        69.65623
475.64        69.57842
476.08        70.00536
476.52        70.08862
476.97        69.77177
477.41        69.79477
477.85         70.1947
478.29        69.66641
478.74        69.72512
479.18        69.97427
479.62        68.86034
480.06         69.4858
480.50        69.75574
480.95        70.22688
481.39        70.42382
481.83        69.37511
482.27        69.72151
482.72        69.23779
483.16        67.97862
483.60        68.18769
484.04         69.6554
484.48        70.06794
484.93        69.84505
485.37        71.56267
485.81        72.07928
486.25        70.97681
486.69        98.15766
487.14        79.36497
487.58        48.61682
488.02        59.28592
488.46        67.68853
488.90        66.41212
489.34        68.49718
489.79        67.78345
490.23        69.35889
490.67        70.06522
491.11        69.09579
491.55         69.1137
491.99        69.63658
492.43        69.45936
492.88        68.67764
493.32        68.61001
493.76        68.78117
494.20         69.0014
494.64        69.02274
495.08        69.18938
495.52        69.49945
495.96        69.33252
496.41        68.76939
496.85        69.29053
497.29        70.54194
497.73        69.46111
498.17        67.05978
498.61        67.27767
499.05        70.06415
499.49        70.36164
499.93        69.77272
500.37        69.48012
500.82        69.33362
501.26        69.39053
501.70        69.44543
502.14        69.63632
502.58        69.80463
503.02        69.81171
503.46        69.63458
503.90         69.2756
504.34        68.89165
504.78        68.75289
505.22        68.90724
505.66        69.27425
506.10         69.6955
506.54        69.83676
506.98        69.61099
507.42        69.25541
507.86        68.98026
508.30         68.3918
508.74        68.69769
509.18        68.89907
509.62        69.20432
510.06         69.3755
510.50         69.3618
510.94        69.22395
511.38        69.04724
511.82        68.98997
512.26        69.08674
512.70        69.27819
513.14         69.4916
513.58        69.61745
514.02        69.61638
514.46        69.52022
514.90        69.37872
515.34        69.24982
515.78        69.14627
516.22        69.12054
516.66        69.14159
517.10        68.98284
517.54        68.63574
517.98        68.76694
518.42        68.53262
518.86        68.66149
519.30        68.88513
519.74        69.23869
520.18        69.60596
520.62        69.79346
521.06        69.76709
521.50        69.58081
521.93        69.32048
522.37        69.12892
522.81        69.06013
523.25        69.07501
523.69         69.1537
524.13        69.26457
524.57        69.38892
525.01         69.5375
525.45         69.6884
525.89        69.80148
526.32        69.85766
526.76        69.85706
527.20        69.80976
527.64        69.76216
528.08        69.74298
528.52        69.67182
528.96        69.51971
529.40        69.46834
529.83        69.53992
530.27        68.92129
530.71        69.02211
531.15        68.87896
531.59        68.91574
532.03        69.03036
532.46        69.22011
532.90         69.4648
533.34        69.72119
533.78        69.98341
534.22        70.18908
534.66        70.25626
535.09         70.1629
535.53        69.95751
535.97         69.6925
536.41        69.47569
536.85        69.34634
537.28        69.28768
537.72        69.27003
538.16        69.25428
538.60        69.22719
539.04        69.14869
539.47        69.04242
539.91        69.12561
540.35        69.32547
540.79        69.33896
541.22        69.16827
541.66        69.10066
542.10        69.13569
542.54        69.09421
542.97        69.01188
543.41        69.05379
543.85        69.21761
544.29        69.47699
544.72        69.69272
545.16        69.67886
545.60        69.39865
546.04        68.90634
546.47        68.41525
546.91        68.28661
547.35        68.56943
547.79        69.16283
548.22        69.77386
548.66        69.93266
549.10        69.56142
549.53        68.86078
549.97        68.15063
550.41        67.79454
550.84        67.88695
551.28        68.37523
551.72         69.0832
552.15        69.36436
552.59        69.51862
553.03        69.58512
553.46         69.3028
553.90        69.18944
554.34        69.15631
554.77        69.07581
555.21           68.94
555.65        68.96506
556.08        69.18541
556.52        68.77009
556.96        69.26238
557.39        69.08736
557.83        68.81176
558.27        68.76437
558.70        68.97145
559.14        69.14645
559.57        69.24045
560.01        69.44518
560.45        69.69606
560.88        69.74863
561.32        69.60986
561.75         69.4722
562.19        69.38017
562.63        68.94649
563.06        68.36435
563.50        68.46792
563.93        69.10417
564.37        69.36092
564.80        69.15317
565.24        69.02264
565.68        69.01559
566.11        68.94301
566.55        68.85828
566.98        68.86797
567.42        69.03596
567.85        68.94183
568.29        69.55309
568.72         69.6906
569.16        69.78883
569.60        70.34447
570.03        70.75716
570.47        70.76845
570.90        70.67303
571.34        68.68242
571.77        69.59151
572.21        70.18463
572.64        69.28981
573.08        68.45824
573.51         65.5045
573.95        68.06277
574.38        72.32999
574.82        70.57557
575.25        70.01867
575.69        68.11964
576.12        66.73112
576.56        65.59964
576.99        67.53853
577.42        70.56528
577.86        70.31822
578.29        69.90572
578.73        74.15507
579.16        68.32253
579.60        62.35552
580.03        64.76197
580.47        69.37757
580.90        70.84459
581.33        69.51322
581.77        68.64883
582.20        75.78307
582.64        75.82582
583.07        64.53252
583.51        62.94183
583.94        61.70122
584.37        64.15353
584.81        67.28546
585.24        70.98502
585.68        72.81608
586.11        72.34356
586.54        67.15145
586.98        64.74628
587.41         65.1823
587.85        69.03131
588.28        71.51729
588.71        68.06254
589.15        65.44048
589.58        66.96916
590.01         66.7524
590.45        67.86263
590.88        68.92438
591.31        68.21127
591.75        67.43268
592.18          67.307
592.61        68.89021
593.05         69.6418
593.48        72.59298
593.91         74.0121
594.35        67.76017
594.78        66.30595
595.21        65.62215
595.65        68.48337
596.08        71.22167
596.51        68.44829
596.94        66.33909
597.38        66.86768
597.81          69.384
598.24        71.66829
598.68        70.13601
599.11        68.81974
599.54        71.88537
599.97        73.79166
600.41        68.05724
600.84        68.09508
601.27        69.52891
601.70        68.57227
602.14        68.37158
602.57        67.36169
603.00        68.00646
603.43        69.56609
603.87        71.10222
604.30        70.74067
604.73        68.86311
605.16         67.1993
605.60        68.04612
606.03        69.03114
606.46        70.04305
606.89        70.13267
607.32        68.07605
607.76        67.64592
608.19        70.15987
608.62        69.16611
609.05        67.62729
609.48        68.15096
609.92        68.46355
610.35        67.54328
610.78        69.71236
611.21        70.65817
611.64        67.28722
612.07        68.11909
612.50        68.65627
612.94        69.10517
613.37        68.36271
613.80        68.69015
614.23        69.00849
614.66        68.72296
615.09        69.24956
615.52        69.28136
615.96        69.11157
616.39        69.28954
616.82        68.44146
617.25        67.74324
617.68         68.5295
618.11        69.03664
618.54        69.46101
618.97        69.12605
619.40        67.92197
619.84        67.92229
620.27        68.89046
620.70        69.45943
621.13        69.46502
621.56        68.79026
621.99        67.95655
622.42        68.72871
622.85        70.67789
623.28        70.25031
623.71        69.73934
624.14        69.68762
624.57         69.4383
625.00        69.07869
625.43        69.25419
625.86        68.61754
626.29        68.80193
626.72        69.01963
627.15        68.93486
627.58        69.11824
628.01        69.28714
628.44        69.46783
628.87        69.70099
629.30        69.47283
629.73        69.94795
630.16        69.99082
630.59        69.89781
631.02        69.54977
631.45        69.06272
631.88        68.74687
632.31        68.64028
632.74         68.6006
633.17        68.59077
633.60        68.61075
634.03        68.64011
634.46        68.68393
634.89        68.73076
635.32        68.76056
635.75        68.76889
636.18        68.74876
636.61        68.72836
637.04        68.76019
637.47        68.85152
637.89          68.998
638.32        69.12695
638.75        69.16488
639.18        69.09252
639.61        68.93638
640.04        68.75311
640.47        68.63089
640.90        68.59734
641.33        68.62695
641.76        68.65627
642.18         68.6791
642.61         68.6776
643.04        68.50459
643.47        68.17433
643.90        68.59408
644.33        68.36325
644.76        68.59296
645.18        68.79033
645.61        68.85689
646.04        68.75428
646.47        68.52222
646.90        68.28394
647.33        68.19499
647.75        68.31345
648.18        68.59642
648.61        68.87994
649.04        68.96418
649.47         68.7676
649.89        68.14713
650.32        67.45052
650.75         67.3455
651.18        67.83916
651.61        68.54239
652.03        69.08095
652.46         68.9467
652.89        68.53472
653.32        67.98724
653.74        67.67632
654.17        69.19595
654.60         69.6878
655.03        67.30515
655.46        68.48332
655.88        71.77753
656.31        77.24944
656.74        180.0519
657.16        117.4754
657.59        40.96202
658.02         30.1574
658.45        51.95452
658.87        65.99242
659.30        69.35143
659.73        68.18683
660.15        65.99536
660.58        68.11628
661.01        69.87997
661.44        67.80864
661.86         67.1552
662.29        67.12965
662.72        67.88403
663.14         69.1693
663.57        69.07265
664.00         67.8788
664.42         67.6409
664.85        68.43472
665.27        68.94695
665.70        68.95361
666.13        68.84299
666.55           68.59
666.98        68.07523
667.41        67.50026
667.83        67.25362
668.26        67.41901
668.69        67.84937
669.11        68.30025
669.54        68.71539
669.96        68.37267
670.39        67.89314
670.82        67.30483
671.24        67.07693
671.67        67.32722
672.09        67.72907
672.52        67.96925
672.94         68.7627
673.37        67.84144
673.80        67.64495
674.22        67.59519
674.65        67.53521
675.07        67.45922
675.50        67.37992
675.92        67.33833
676.35        67.40009
676.77        67.56911
677.20        67.75145
677.62        67.91936
678.05        68.03594
678.47          68.075
678.90        68.05098
679.32        68.00895
679.75        67.89695
680.17        67.99831
680.60        68.08694
681.02        68.15491
681.45        68.03365
681.87        67.71114
682.30         67.2624
682.72        66.87176
683.15        66.76817
683.57        66.99952
684.00        67.71568
684.42        68.27299
684.85        68.65795
685.27        68.63853
685.70        68.34393
686.12          67.921
686.54        67.65843
686.97        67.62392
687.39        67.74097
687.82        67.90213
688.24        67.98378
688.66        67.92701
689.09        67.79037
689.51        67.65829
689.94        67.62991
690.36        67.73691
690.78        67.92887
691.21        68.13683
691.63         68.2597
692.06         68.2737
692.48        68.22616
692.90        68.15831
693.33        68.11852
693.75         68.1237
694.17        68.15672
694.60        68.22721
695.02        68.31488
695.44        68.37393
695.87         68.6322
696.29        69.00266
696.71        68.72777
697.14        68.06484
697.56         68.4214
697.98        69.50004
698.41         69.7384
698.83        68.65205
699.25        68.22749
699.68        68.38015
700.10        68.35577
700.52        68.15762
700.94        68.20396
701.37        68.46223
701.79        68.74265
702.21        68.97297
702.64        69.20132
703.06        69.35019
703.48        69.29294
703.90        69.03209
704.33        68.61021
704.75        68.14678
705.17        67.92207
705.59        68.01067
706.01         68.2271
706.44        68.45382
706.86        69.08952
707.28        69.15533
707.70        69.39376
708.12         69.5212
708.55        69.53691
708.97        69.42685
709.39         69.1954
709.81        68.93896
710.23        68.81557
710.66        68.86996
711.08        69.09958
711.50        69.35233
711.92        69.39481
712.34        69.18037
712.76        68.76485
713.19        68.34682
713.61        68.27736
714.03        68.61025
714.45        69.23358
714.87        69.87017
715.29        70.08182
715.71        69.77825
716.13        69.10652
716.56        68.33955
716.98        67.94785
717.40        68.05016
717.82        68.50238
718.24        69.09872
718.66        69.48875
719.08        69.56007
719.50        69.42353
719.92        69.17825
720.34        68.99749
720.76        68.94154
721.19        68.83254
721.61        68.87467
722.03        68.92516
722.45        69.03257
722.87        69.20348
723.29        69.39552
723.71        69.52019
724.13        69.55261
724.55        69.50963
724.97        69.44385
725.39        69.42455
725.81        69.46525
726.23        69.58762
726.65        69.75954
727.07        69.67134
727.49        69.72157
727.91        69.62196
728.33        69.52614
728.75        69.47548
729.17         69.4893
729.59        69.53278
730.01        69.62552
730.43        69.80226
730.85        70.05722
731.27        70.40627
731.69        70.72988
732.10        70.81445
732.52         70.6264
732.94        70.25601
733.36        69.90804
733.78        69.81709
734.20         70.0445
734.62        70.68531
735.04        71.69267
735.46        71.68308
735.88        70.93784
736.30        71.09923
736.72        72.15018
737.13         72.5174
737.55        71.98907
737.97         71.9192
738.39        72.30809
738.81        71.62414
739.23        70.32882
739.65        71.14254
740.06        73.52605
740.48        73.76482
740.90         71.9335
741.32        70.97379
741.74        71.20659
742.16        71.33252
742.57        71.42951
742.99        72.23461
743.41        73.46191
743.83        74.20525
744.25        74.29099
744.67        73.95265
745.08        73.45465
745.50        73.23196
745.92        73.41981
746.34        73.85757
746.75        74.37309
747.17        74.66861
747.59        74.68092
748.01        74.55719
748.42        74.44511
748.84        74.46239
749.26        74.71787
749.68        75.30309
750.09        76.05484
750.51        76.59135
750.93        76.79991
751.35        76.63303
751.76        76.23653
752.18        76.13267
752.60        76.30729
753.01        76.24806
753.43        75.99852
753.85         76.0649
754.27        76.48345
754.68        77.03822
755.10        77.57867
755.52        78.05548
755.93        78.38979
756.35        78.54567
756.77        78.61324
757.18        78.65154
757.60         78.6982
758.02         78.9972
758.43        79.29245
758.85        78.84581
759.26        77.59597
759.68        77.29298
760.10        78.73736
760.51        79.19753
760.93         78.6956
761.34        77.27459
761.76        77.21175
762.18        76.62129
762.59        76.31197
763.01        76.67344
763.42        77.68229
763.84        78.48476
764.26        78.92474
764.67        79.32774
765.09        79.55717
765.50        79.36911
765.92        78.75922
766.33        77.40439
766.75        75.82587
767.16         75.3373
767.58        76.09187
768.00        77.47587
768.41        79.14729
768.83        80.61075
769.24        81.25088
769.66        80.59982
770.07         79.1529
770.49        77.45927
770.90        76.09085
771.32        77.07539
771.73        79.66781
772.15        79.32571
772.56         76.4557
772.97        75.75552
773.39        77.19717
773.80        77.62046
774.22        76.85633
774.63         76.8086
775.05        77.40272
775.46        77.71986
775.88        77.64094
776.29         77.4206
776.70        77.16404
777.12        77.07333
777.53        77.20956
777.95        77.44969
778.36        77.64725
778.77        77.55788
779.19        77.18591
779.60        76.62378
780.02        76.09979
780.43        76.07922
780.84        76.69418
781.26         77.2693
781.67        77.72926
782.09        79.08479
782.50        80.66461
782.91        79.59052
783.33        76.67049
783.74        75.64058
784.15         76.7151
784.57         77.5488
784.98        77.75756
785.39        77.87341
785.81        77.78992
786.22        77.25182
786.63        76.61135
787.04        76.50614
787.46         77.0132
787.87        77.93331
788.28        78.93084
788.70        79.42333
789.11        79.26908
789.52        78.68616
789.93        77.95258
790.35        77.43982
790.76        77.26226
791.17        77.35777
791.58        77.62421
792.00         77.7839
792.41        77.74452
792.82        77.78266
793.23        78.00698
793.65        77.75945
794.06        77.38599
794.47        78.76197
794.88        81.01385
795.29         80.7662
795.71        78.22308
796.12        75.82993
796.53        74.35194
796.94          73.925
797.35        74.62907
797.76        75.90157
798.18        77.13127
798.59        78.01534
799.00        78.20667
799.41        77.43375
799.82        76.14777
800.23        75.40437
800.64        75.41723
801.06        75.77837
801.47         76.3468
801.88        76.79433
802.29        76.98421
802.70        77.06759
803.11        77.05811
803.52        76.93727
803.93        76.74009
804.34        76.43113
804.75        76.13866
805.17        76.14683
805.58        76.53522
805.99        77.02457
806.40        77.41225
806.81        77.84772
807.22        78.00408
807.63        76.87256
808.04        74.98676
808.45        74.13605
808.86         74.5192
809.27          75.297
809.68         76.1158
810.09        76.65443
810.50        76.71375
810.91        76.40767
811.32        75.93704
811.73        75.62719
812.14        75.57201
812.55        75.62685
812.96        75.76411
813.37        75.93858
813.78        76.11336
814.19        76.37134
814.60        76.53822
815.01        76.32687
815.42        75.71432
815.83        74.73756
816.24        73.80714
816.65        73.64407
817.05        74.44331
817.46        75.96897
817.87        77.60275
818.28        78.23917
818.69        77.59826
819.10        75.96129
819.51        74.09458
819.92        73.30118
820.33        73.90932
820.74        75.51543
821.14         77.3811
821.55        78.19345
821.96        77.65532
822.37        76.23154
822.78        74.53456
823.19         73.4623
823.60        73.27309
824.00        73.71631
824.41         74.4793
824.82        75.15357
825.23        75.51802
825.64        75.72874
826.04        75.79752
826.45        75.71471
826.86        75.50524
827.27        75.11539
827.68        74.65292
828.08        74.37251
828.49        74.28663
828.90        74.41178
829.31        74.61655
829.72        74.63055
830.12         74.4129
830.53        74.03844
830.94        73.71017
831.35        73.69402
831.75        74.08074
832.16        74.71519
832.57        75.47066
832.97        76.06454
833.38        76.31809
833.79        76.30428
834.20        76.13547
834.60        75.98483
835.01        75.93163
835.42          75.915
835.82        75.85715
836.23        75.55739
836.64         75.0366
837.04        74.40771
837.45        73.84069
837.86        73.59752
838.26        73.74103
838.67        74.14174
839.08        74.69135
839.48        75.17766
839.89        75.46855
840.29        75.62863
840.70        75.60555
841.11        75.31367
841.51        74.78564
841.92        74.03091
842.33        73.28419
842.73        72.94646
843.14        73.07645
843.54        73.61627
843.95        74.26644
844.35        74.57275
844.76        74.39981
845.17        73.89786
845.57        73.31141
845.98         73.0264
846.38        73.13763
846.79        73.49249
847.19        73.94885
847.60        74.17739
848.00        74.11418
848.41        73.84586
848.81        73.51476
849.22        73.24518
849.62        73.13641
850.03        73.15754
850.43        73.31153
850.84        73.52897
851.24        73.81625
851.65        74.01406
852.05        74.31097
852.46         74.8337
852.86          75.578
853.27        76.51988
853.67        77.09023
854.07        76.54787
854.48        74.91853
854.88          72.473
855.29        70.13206
855.69        69.23572
856.10        70.04545
856.50        72.37675
856.90        75.39689
857.31        77.16422
857.71        77.04668
858.12        75.55504
858.52        73.59261
858.92        72.34589
859.33        72.08463
859.73        72.46911
860.13        73.30302
860.54         74.1786
860.94        74.94175
861.34        75.69376
861.75        76.32975
862.15        76.75781
862.55        76.92627
862.96        76.80312
863.36        76.51381
863.76        76.28475
864.17        76.20119
864.57        76.27328
864.97         76.4708
865.38        76.72348
865.78        77.03631
866.18          77.339
866.58        77.62931
866.99        77.88413
867.39        78.13942
867.79         78.4372
868.19        78.54416
868.60        78.04421
869.00        76.91737
869.40        75.31956
869.80        74.01892
870.21        74.19095
870.61        76.12638
871.01        79.44788
871.41         83.1121
871.81        85.32271
872.22        85.57825
872.62          84.383
873.02        82.64712
873.42        81.99189
873.82        82.62579
874.22        83.71028
874.63        84.89172
875.03        85.47712
875.43        85.07468
875.83         84.8756
876.23        83.35352
876.63        82.61501
877.03        82.54485
877.44        83.27385
877.84         104.515
878.24        89.26006
878.64        89.65885
879.04        90.07363
879.44        85.93384
879.84        84.03339
880.24        88.50229
880.64        90.81187
881.04        91.86485
881.44        92.27064
881.84        91.43311
882.24        89.62993
882.65        87.89442
883.05        87.20758
883.45        87.72393
883.85        89.41007
884.25        91.57784
884.65         92.7223
885.05        92.40027
885.45        91.15702
885.85        89.67757
886.25        88.88945
886.65        89.00629
887.05        89.67381
887.45        90.65824
887.85        91.55901
888.25        92.16045
888.65        92.62292
889.04        92.81734
889.44        92.57077
889.84        91.90249
890.24        90.84559
890.64         89.7831
891.04        89.32657
891.44        89.57845
891.84        90.39046
892.24        91.34862
892.64        91.67284
893.04        91.21275
893.44        90.32227
893.83        89.39902
894.23         89.0134
894.63        89.28468
895.03        89.94672
895.43        90.98968
895.83        92.38084
896.23        93.95289
896.63        95.69539
897.02        97.02731
897.42        97.01215
897.82        95.57719
898.22        93.09048
898.62        90.47701
899.01        89.10917
899.41        89.29111
899.81        90.54376
900.21        92.27857
900.61        93.51712
901.00        93.91262
901.40         93.7791
901.80        93.25226
902.20        92.53117
902.59        91.74731
902.99        90.81359
903.39        89.89853
903.79        89.33414
904.18        89.22475
904.58        89.57562
904.98        90.23087
905.38        90.90732
905.77        91.46263
906.17        91.89191
906.57        92.22427
906.96        92.57401
907.36        92.88454
907.76        93.12732
908.15        93.12952
908.55         92.5177
908.95        91.33223
909.34        89.71411
909.74         88.1489
910.14        87.20089
910.53        87.03519
910.93        87.53227
911.33        88.45802
911.72        89.36295
912.12         89.9662
912.52        90.34441
912.91          90.561
913.31        90.70409
913.70        90.85421
914.10        90.93175
914.49        90.87133
914.89        90.53078
915.29        89.94168
915.68        89.15273
916.08        88.54842
916.47        88.33832
916.87        88.54593
917.26        89.11052
917.66        89.63586
918.05        89.54257
918.45        88.73636
918.84        87.47837
919.24         86.2964
919.64        85.93063
920.03        86.56874
920.42        87.95519
920.82        89.72356
921.21        91.35702
921.61        92.40873
922.00        92.98631
922.40        92.99474
922.79        92.34954
923.19         91.1947
923.58        89.48622
923.98        87.39666
924.37        85.89923
924.77        85.62616
925.16        83.46584
925.55        85.01073
925.95        86.11081
926.34        88.28876
926.74        91.02698
927.13        93.62476
927.52        94.66332
927.92        93.95379
928.31        91.96229
928.70        89.30981
929.10        87.09195
929.49        85.65717
929.89        84.75191
930.28        84.57469
930.67         85.4353
931.07        87.13286
931.46        89.64276
931.85        92.00993
932.24        92.78625
932.64        91.70572
933.03        88.97364
933.42         85.4115
933.82         82.9228
934.21        82.12185
934.60        82.55728
934.99        83.36974
935.39        83.65683
935.78        83.26792
936.17        81.95802
936.56        79.61736
936.96        80.78605
937.35        79.76758
937.74        80.94211
938.13        82.09613
938.53        83.28551
938.92        84.56465
939.31        86.09816
939.70        87.58954
940.09         88.0268
940.49        87.13998
940.88        85.38197
941.27        83.49738
941.66        82.35281
942.05        82.07506
942.44         82.3872
942.84        83.12688
943.23         84.0903
943.62        85.02783
944.01        85.95467
944.40        86.62974
944.79        86.67855
945.18        86.00899
945.57        84.63002
945.97        82.74445
946.36        81.06194
946.75        80.11911
947.14        79.82488
947.53        80.03498
947.92        80.54032
948.31        81.26424
948.70        82.31575
949.09        83.52383
949.48        84.39131
949.87        84.65008
950.26        84.29189
950.65        83.65989
951.04        83.35927
951.43        83.53436
951.82        84.05707
952.21        84.49962
952.60        84.17689
952.99        82.97186
953.38         81.1199
953.77        79.27186
954.16        78.34878
954.55        78.51355
954.94        79.55992
955.33        80.70271
955.72        80.61492
956.11         79.0123
956.50        76.27088
956.89        73.51212
957.28         72.7958
957.66        74.76115
958.05        78.50204
958.44        82.71555
958.83        85.47785
959.22        86.25335
959.61        85.53217
960.00        83.95038
960.39        82.56615
960.78        81.74805
961.16        81.19985
961.55          80.599
961.94        79.47076
962.33        77.81219
962.72        76.03585
963.11        74.55221
963.49        73.77052
963.88        73.73672
964.27        74.32254
964.66        75.34256
965.04        76.37639
965.43         77.0719
965.82        77.50975
966.21        77.76372
966.60        78.02235
966.98        78.35519
967.37        78.59449
967.76        78.71774
968.15        78.69067
968.53        78.50153
968.92        78.19629
969.31        77.74529
969.69        77.01438
970.08        76.04294
970.47         74.9327
970.86        73.88105
971.24        73.25098
971.63        73.17258
972.02        73.52785
972.40        74.28439
972.79        75.32355
973.17        76.60663
973.56        78.04269
973.95        79.23653
974.33        79.46462
974.72        78.52451
975.11         76.6389
975.49        74.66842
975.88        73.81272
976.26        74.22448
976.65        75.74238
977.04        77.47582
977.42         77.2748
977.81        74.53704
978.19        70.18591
978.58        66.38991
978.96        65.38271
979.35        67.46346
979.74        72.14914
980.12        78.31184
980.51         82.1762
980.89        82.45757
981.28        80.21023
981.66        77.04275
982.05        75.00594
982.43        74.50707
982.82        74.78658
983.20        75.71457
983.59        77.23663
983.97        79.32114
984.35        82.20499
984.74        85.10917
985.12        86.41266
985.51        85.16024
985.89        81.55415
986.28        76.87717
986.66        73.30781
987.04        71.80376
987.43        71.92045
987.81        72.65116
988.20        72.68431
988.58        71.60744
988.96        69.28544
989.35         66.3885
989.73        66.11263
990.12        70.05882
990.50        76.41405
990.88         81.1685
991.27        81.44018
991.65        77.78484
992.03        71.24673
992.42        64.05422
992.80         60.3502
993.18        61.50763
993.56        65.28011
993.95        69.90601
994.33        74.04209
994.71        77.11357
995.10        79.85135
995.48        81.67361
995.86        81.38247
996.24        78.76783
996.63        73.61916
997.01        67.33908
997.39        64.30764
997.77        66.47668
998.15        72.86214
998.54        79.95698
998.92        82.85372
999.30        80.08164
999.68        73.00628
1000.06        63.45787
1000.45         56.0375
1000.83        52.91034
1001.21        52.68755
1001.59        54.40126
1001.97        57.10863
1002.35        60.45711
1002.73        65.33022
1003.12        70.67529
1003.50         72.4524
1003.88        68.90498
1004.26        61.93921
1004.64        55.08213
1005.02        51.41759
1005.40        51.19542
1005.78        53.92274
1006.16        60.90069
1006.54        70.87204
1006.92        78.39979
1007.30         82.2141
1007.69        83.31315
1008.07         83.2063
1008.45        82.22193
1008.83        78.93589
1009.21        69.08342
1009.59        39.82056
1009.97       -30.88128
1010.35       -112.5331
1010.73       -82.48165
1011.11       -24.76954
1011.49            12.2
1011.86        37.34251
1012.24        51.75205
1012.62        59.23812
1013.00        63.12988
1013.38        64.90198
1013.76        66.21334
1014.14        70.98293
1014.52        81.71343
1014.90        98.32098
1015.28        115.4712
1015.66        120.4583
1016.04        106.4832
1016.41        77.76699
1016.79        49.50198
1017.17        35.64714
1017.55        34.64638
1017.93        38.80155
1018.31        44.30247
1018.69        49.77155
1019.06        55.73414
1019.44        63.36711
1019.82        74.89299
1020.20        91.63261
1020.58        114.3734
1020.95        145.7648
1021.33        195.8471
1021.71       -453.8386
1022.09         72.4906
1022.46        103.7031
1022.84        116.5162
1023.22        128.6306
1023.60        153.4434
1023.97        380.8685
1024.35      -0.4322151
1024.73         46.6855
