SpectraSmart Spectrum 2.9.0.0
--------- Device Information -----------
Spectrum Name :  反射率_0
Saving Time :  2024/04/26 01:41:42
Spectro-Module Model Name : SE2030-DUVN
Spectro-Module Serial Number : OS361AC55029948
Wavelength Start : 200
Wavelength End : 1025
Wavelength Unit : Wavelength(nm)
Spectrum Unit : Reflectance(%)
-----------Spectrum Setting ------------
Integration Time : 20ms
Average : 10
Boxcar : 0
Background removal :  enabled
linearity correction :  enabled
SC :  disabled
Intensity correction :  disabled
DWT denoise :  enabled
savitzky-golay :  disabled
FFT :  disabled
Running average :  disabled
Kalman :  disabled
High pass :  disabled
---------------BEGIN--------------------
Wavelength(nm)             Reflectance(%)
200.29               0
200.75        101.7907
201.21        97.97414
201.67        92.25542
202.13        86.97722
202.58        82.79443
203.04        79.63744
203.50        77.61087
203.96        77.17753
204.42        78.15718
204.88        79.92103
205.34        82.40215
205.80        86.10044
206.26        92.16758
206.72        104.0023
207.18        125.5732
207.64        142.5107
208.10        127.2152
208.55        99.27962
209.01        82.61557
209.47        78.35885
209.93        81.46867
210.39        89.69797
210.85        99.12822
211.31        101.0253
211.77        92.70105
212.23        77.62582
212.69        62.19193
213.14        56.09172
213.60        61.13628
214.06         74.5257
214.52         90.6678
214.98        100.8557
215.44        102.6374
215.90        98.75211
216.36        92.48297
216.81        88.28965
217.27        87.55338
217.73        88.55967
218.19        89.22157
218.65        86.80681
219.11        80.19386
219.57        68.76905
220.02        53.95815
220.48        44.47171
220.94        45.61147
221.40          55.225
221.86        65.12227
222.32        66.56149
222.77        60.19586
223.23        50.75983
223.69        42.50937
224.15        39.74669
224.61        42.03985
225.06        47.16381
225.52         52.3116
225.98        54.14161
226.44        52.05847
226.90        47.62718
227.36        42.64407
227.81        39.41607
228.27        38.79361
228.73        39.80681
229.19        41.74165
229.65        43.55502
230.10        44.82582
230.56        45.84572
231.02        46.75133
231.48        47.68203
231.93        48.66312
232.39        49.62339
232.85        50.47226
233.31        51.15328
233.77        51.65718
234.22        52.03338
234.68        52.37078
235.14        52.74773
235.60        53.20458
236.05        53.74731
236.51        54.37017
236.97        55.07968
237.43        55.98255
237.88        57.27446
238.34        59.09416
238.80        61.71949
239.26        65.03553
239.71        68.96148
240.17        72.76561
240.63        75.93061
241.08        78.36375
241.54        79.90076
242.00        81.29545
242.46        84.09748
242.91         90.1818
243.37        103.5663
243.83        140.1375
244.28        238.1201
244.74         310.473
245.20        222.3911
245.66        164.3109
246.11         147.217
246.57        149.8499
247.03        175.6703
247.48        258.6734
247.94        217.3938
248.40        128.2601
248.85         101.095
249.31        93.60657
249.77        93.92912
250.22         99.0659
250.68        109.2532
251.14        124.6194
251.59        136.6167
252.05        135.3961
252.51        124.3288
252.96         110.917
253.42        102.9589
253.88        100.3489
254.33        100.4548
254.79         103.157
255.25        107.6411
255.70        112.5162
256.16        117.7177
256.62         121.358
257.07        121.4889
257.53        119.0018
257.99        114.3424
258.44        108.8896
258.90        105.5019
259.35        103.3564
259.81         101.961
260.27        99.78566
260.72        95.30636
261.18         89.4346
261.63        82.72709
262.09        76.72755
262.55        72.38946
263.00        69.60382
263.46        67.98801
263.91        66.66475
264.37        65.14362
264.83        63.12447
265.28        60.67959
265.74        58.19162
266.19        55.95203
266.65        54.30312
267.11        53.07565
267.56        51.97981
268.02        50.67611
268.47        49.00024
268.93         47.0815
269.38        45.13284
269.84        43.76073
270.30        43.12146
270.75        43.03704
271.21        43.14972
271.66        42.91473
272.12         42.1842
272.57        41.11112
273.03        39.96779
273.48         39.0695
273.94        38.53629
274.39        38.20911
274.85        37.94116
275.31         37.4969
275.76        36.81235
276.22          36.009
276.67        35.19212
277.13        34.62127
277.58        34.27351
278.04         34.0996
278.49        33.89616
278.95        33.46728
279.40        32.74682
279.86        31.88502
280.31        30.98635
280.77        30.33746
281.22        29.94695
281.68        29.75612
282.13        29.65361
282.59        29.53428
283.04        29.34865
283.50        29.17865
283.95        28.99464
284.41        28.78006
284.86        28.53409
285.32        28.27089
285.77        28.08199
286.22        28.18072
286.68        28.55844
287.13        29.10396
287.59        29.61285
288.04        29.76055
288.50        29.52152
288.95        28.98773
289.41        28.36896
289.86        27.86236
290.32         27.5997
290.77        27.51167
291.22        27.60522
291.68        27.84416
292.13        28.21858
292.59        28.76353
293.04        29.47539
293.50        30.34002
293.95        31.32623
294.40        32.39222
294.86        33.51284
295.31        34.66981
295.77        35.86196
296.22        37.09307
296.68        38.33408
297.13        39.50624
297.58         40.6144
298.04        41.69955
298.49        42.85974
298.95         44.3033
299.40        46.05537
299.85        48.05275
300.31        50.14896
300.76        52.09914
301.21         53.8069
301.67        55.36739
302.12        56.80293
302.58        58.27008
303.03        59.78109
303.48        61.32151
303.94        62.96135
304.39        64.74004
304.84        66.66828
305.30        68.73216
305.75        70.76331
306.20         72.5331
306.66        74.01862
307.11        75.22808
307.57        76.36612
308.02        77.60976
308.47         79.0663
308.93        80.68957
309.38        82.34404
309.83        83.87392
310.29        85.22329
310.74         86.3977
311.19        87.50285
311.65        88.69951
312.10        90.00365
312.55        91.37825
313.00        92.64152
313.46        93.50847
313.91        93.91171
314.36        93.96443
314.82        93.96011
315.27        94.28774
315.72        95.07835
316.18        96.22297
316.63        97.49355
317.08        98.46156
317.53        99.00115
317.99        99.21813
318.44        99.36344
318.89        99.85161
319.35        100.7471
319.80        101.9395
320.25        103.0892
320.70        103.6447
321.16        103.4848
321.61        102.7998
322.06        101.9635
322.51        101.5586
322.97        101.7113
323.42         102.298
323.87        103.0427
324.32        103.4689
324.78        103.4307
325.23        103.1341
325.68        102.7692
326.13        102.6703
326.59        102.9082
327.04          103.39
327.49        104.0015
327.94        104.6005
328.39        105.1161
328.85        105.5724
329.30        105.9886
329.75        106.2076
330.20         106.242
330.66        106.1235
331.11        106.0788
331.56        106.3951
332.01        107.1573
332.46        108.2686
332.92        109.5533
333.37        110.8927
333.82        112.0771
334.27        113.1333
334.72        113.9319
335.17        114.2855
335.63         114.202
336.08        113.8087
336.53        113.3592
336.98        113.3229
337.43        113.8227
337.88        114.7142
338.34        115.8616
338.79         117.124
339.24        118.3481
339.69        119.6031
340.14        120.6281
340.59        120.9813
341.05        120.6337
341.50        119.7125
341.95        118.7499
342.40        118.5667
342.85        119.3248
343.30        120.8008
343.75        122.5147
344.20        123.5994
344.66        123.8089
345.11        123.3916
345.56        122.7094
346.01        122.3149
346.46        122.3708
346.91        122.6871
347.36        123.1147
347.81        123.4421
348.26         123.603
348.72        123.7079
349.17        123.7785
349.62        123.8729
350.07         123.999
350.52        124.0978
350.97        124.1592
351.42        124.1877
351.87        124.1778
352.32        124.1469
352.77        124.0414
353.22        123.7729
353.67        123.3435
354.13        122.7982
354.58        122.2417
355.03        121.9033
355.48        121.8143
355.93        121.8993
356.38        121.9802
356.83        121.7733
357.28        121.2109
357.73        120.3833
358.18        119.4401
358.63        118.6171
359.08         117.992
359.53        117.5105
359.98        117.0825
360.43        116.5682
360.88        115.9216
361.33        115.1675
361.78        114.4049
362.23        113.7896
362.68        113.3459
363.13        113.0291
363.58        112.6488
364.03         111.909
364.48        110.7711
364.93        109.3412
365.38        107.8964
365.83         106.883
366.28        106.3962
366.73        106.2839
367.18        106.2903
367.63        105.9931
368.08        105.2824
368.53        104.3216
368.98        103.2439
369.43        102.2415
369.88        101.3845
370.33        100.5911
370.78        99.90958
371.23        99.43523
371.68         99.1656
372.13        99.09132
372.58        99.05356
373.03        98.76714
373.48        98.18077
373.93        97.39049
374.38        96.58009
374.83        96.03425
375.28        95.81248
375.72        95.79771
376.17        95.88722
376.62        95.89534
377.07        95.73689
377.52        95.44037
377.97        95.00584
378.42        94.43761
378.87        93.77112
379.32        93.04499
379.77        92.27267
380.22        91.46445
380.67        90.63553
381.11        89.78973
381.56        89.04455
382.01        88.59071
382.46        88.46288
382.91        88.62035
383.36        88.82434
383.81        88.69255
384.26        88.14896
384.71         87.2908
385.15        86.39101
385.60        85.94582
386.05        85.98337
386.50        86.33786
386.95        86.68411
387.40        86.48514
387.85        85.67554
388.29        84.48015
388.74        83.32924
389.19         82.4819
389.64        81.98966
390.09        81.70311
390.54        81.61404
390.98        81.71402
391.43         81.9419
391.88        82.27484
392.33        82.50183
392.78        82.23729
393.23        81.48111
393.67        80.54052
394.12         79.7551
394.57        78.95251
395.02        78.40632
395.47        78.92728
395.91        80.29296
396.36        81.11979
396.81        81.18099
397.26        81.09328
397.71        80.95782
398.15         80.5295
398.60        79.95581
399.05        79.56064
399.50        79.25773
399.95        78.19058
400.39        76.99904
400.84        76.60861
401.29        77.08499
401.74        77.50285
402.18        77.64541
402.63         77.4933
403.08        77.19839
403.53        77.24937
403.97        77.65919
404.42        78.01762
404.87        78.16914
405.32        78.00849
405.76        77.49156
406.21        76.88918
406.66        76.30525
407.11        75.59566
407.55        75.01778
408.00        75.14194
408.45        75.85101
408.90        76.51921
409.34        76.76329
409.79        76.13985
410.24        74.99256
410.68        74.45824
411.13         74.6514
411.58        74.89177
412.03        75.09441
412.47        75.43678
412.92        75.80473
413.37        76.17136
413.81        76.40215
414.26        76.34254
414.71        75.96185
415.15        75.30691
415.60        74.58186
416.05        74.13554
416.49        74.06709
416.94        74.31049
417.39        74.64617
417.83        74.67355
418.28        74.31483
418.73        73.70273
419.17        73.11734
419.62        73.00803
420.07        73.41576
420.51        74.17899
420.96        74.98789
421.41        75.27972
421.85        74.90345
422.30        74.30713
422.74        73.65898
423.19        72.97061
423.64        72.44904
424.08        72.80679
424.53        73.82211
424.98        74.38014
425.42         74.3097
425.87        74.37498
426.31        74.60199
426.76        74.26875
427.21        73.66077
427.65        73.94833
428.10        74.96921
428.54        75.72057
428.99         76.1242
429.44        76.14354
429.88        75.90774
430.33        76.73483
430.77        77.88267
431.22        76.70288
431.66        73.83076
432.11        72.32065
432.56        72.46685
433.00        73.44827
433.45        75.09433
433.89        76.75301
434.34        76.85392
434.78        79.34114
435.23        74.58889
435.67        72.62247
436.12        75.15623
436.57        76.32154
437.01        76.92367
437.46        77.12593
437.90        77.13713
438.35        76.87891
438.79        77.20483
439.24        77.12104
439.68        76.89839
440.13        76.52281
440.57        76.38119
441.02        77.25902
441.46        78.76306
441.91         80.0845
442.35          80.741
442.80        79.29338
443.24        77.51476
443.69        77.97273
444.13        80.53678
444.58        80.66592
445.02        78.59103
445.47         78.2666
445.91        79.59677
446.36        80.01534
446.80        79.43692
447.24        79.19048
447.69        79.34659
448.13        79.41543
448.58        79.45684
449.02        79.73348
449.47        80.17653
449.91        80.46265
450.36        80.54478
450.80        80.64098
451.25        80.70876
451.69        80.39323
452.13        79.82525
452.58        79.50502
453.02        79.46959
453.47        79.45514
453.91        79.43938
454.36        79.61076
454.80        79.90217
455.24        79.92908
455.69        79.64537
456.13         79.4665
456.58        79.41406
457.02        78.64523
457.46        77.60124
457.91        77.94387
458.35        79.33038
458.79        79.82908
459.24        79.33762
459.68         78.8521
460.13        78.52132
460.57        78.10344
461.01         77.7197
461.46        77.32305
461.90        76.85779
462.34        77.11877
462.79        76.77142
463.23        76.90981
463.68        77.10087
464.12        77.79341
464.56        78.65219
465.01        78.49155
465.45         77.4639
465.89        77.21605
466.34        77.52962
466.78        76.65297
467.22        75.16508
467.67         74.0564
468.11        75.57789
468.55        76.39979
468.99         76.7616
469.44        76.50352
469.88        75.82983
470.32        75.75838
470.77        76.20216
471.21        76.12569
471.65        75.48952
472.10        75.03925
472.54        74.89093
472.98        74.83417
473.42        74.86497
473.87        75.27454
474.31        75.79891
474.75        75.56388
475.20        74.76549
475.64        74.57204
476.08        75.03152
476.52        75.08406
476.97        74.67893
477.41        74.82564
477.85        75.57859
478.29        74.68874
478.74        75.27266
479.18        75.27978
479.62        74.23753
480.06        74.82447
480.50        75.02307
480.95        75.38298
481.39        75.42849
481.83        74.30227
482.27        74.57266
482.72        74.27627
483.16        72.95724
483.60        73.25887
484.04        74.78127
484.48        75.20476
484.93          75.093
485.37        76.53961
485.81        76.98026
486.25        76.09499
486.69        104.3641
487.14        83.85488
487.58        51.59097
488.02        63.73288
488.46        72.22418
488.90        71.90401
489.34          72.884
489.79        72.65616
490.23        74.33186
490.67        75.19391
491.11        74.00038
491.55        74.09926
491.99        74.95964
492.43        74.90197
492.88        74.01203
493.32         73.8372
493.76        73.91266
494.20        74.10145
494.64        74.15695
495.08        74.35307
495.52        74.66483
495.96          74.542
496.41        74.01128
496.85        74.36979
497.29        75.30968
497.73        74.02527
498.17        71.63146
498.61        71.88301
499.05        74.77155
499.49        75.54568
499.93        75.68005
500.37         75.3858
500.82        74.60336
501.26        74.31683
501.70        74.42904
502.14        74.82748
502.58        75.22859
503.02        75.27751
503.46        74.92085
503.90        74.34599
504.34        73.78693
504.78        73.55026
505.22        73.71629
505.66        74.14958
506.10         74.6632
506.54        75.01495
506.98        75.04386
507.42        74.67251
507.86        74.14357
508.30        73.64801
508.74        73.93617
509.18         74.2188
509.62        74.53818
510.06        74.70585
510.50        74.66409
510.94        74.48091
511.38         74.2535
511.82        74.14088
512.26        74.18549
512.70        74.32858
513.14         74.5202
513.58        74.68574
514.02        74.78752
514.46        74.84383
514.90        74.85667
515.34        74.81294
515.78        74.70956
516.22        74.60329
516.66        74.50597
517.10        74.29547
517.54        73.98495
517.98        74.11349
518.42        73.95367
518.86        74.06381
519.30        74.21223
519.74        74.44521
520.18        74.69644
520.62        74.85028
521.06        74.88759
521.50        74.83642
521.93        74.73431
522.37        74.64545
522.81        74.60098
523.25        74.58414
523.69        74.60929
524.13        74.69767
524.57        74.84586
525.01        75.04819
525.45        75.25896
525.89        75.40317
526.32        75.44994
526.76        75.40681
527.20        75.30904
527.64        75.24299
528.08        75.24592
528.52        75.21964
528.96        75.09119
529.40        75.00119
529.83        74.96352
530.27        74.10802
530.71        74.02467
531.15        73.80628
531.59        73.92727
532.03        74.22749
532.46        74.63026
532.90         74.9957
533.34         75.2438
533.78        75.40948
534.22        75.47649
534.66        75.43135
535.09        75.27856
535.53        75.05299
535.97        74.80006
536.41        74.62157
536.85        74.54832
537.28        74.55737
537.72        74.62365
538.16         74.7122
538.60        74.79951
539.04        74.83473
539.47        74.78982
539.91        74.82457
540.35        74.85744
540.79         74.5916
541.22        74.12782
541.66         73.9245
542.10        74.01641
542.54        74.17613
542.97        74.34306
543.41        74.53307
543.85        74.70028
544.29        74.85912
544.72        74.95428
545.16        74.90537
545.60        74.69292
546.04        74.41239
546.47        74.17863
546.91        73.99171
547.35        73.97955
547.79        74.56021
548.22        75.45464
548.66         75.6202
549.10        75.00214
549.53        74.13699
549.97        73.38831
550.41        73.03831
550.84        73.19411
551.28        73.78172
551.72        74.55038
552.15        75.00784
552.59        75.01463
553.03        74.86282
553.46        74.45508
553.90        74.18445
554.34        74.04451
554.77        74.05695
555.21        73.90389
555.65        73.98618
556.08        74.33192
556.52        73.89964
556.96        74.40601
557.39        74.32883
557.83        74.23751
558.27        74.24012
558.70        74.35629
559.14        74.47246
559.57        74.56774
560.01        74.70303
560.45        74.83304
560.88        74.98022
561.32        75.06953
561.75          74.746
562.19        74.16893
562.63         73.7516
563.06        73.60667
563.50        73.66057
563.93        73.84674
564.37        74.20397
564.80        74.54516
565.24        74.50471
565.68        74.15208
566.11        73.98837
566.55         74.0939
566.98        74.14268
567.42        74.13911
567.85        74.27456
568.29        74.59708
568.72        74.75318
569.16        74.86067
569.60         75.5872
570.03        75.90469
570.47        75.80148
570.90        75.44357
571.34        73.54055
571.77        74.66382
572.21         74.6713
572.64        73.90939
573.08        73.29805
573.51        69.85699
573.95        72.61198
574.38         77.0948
574.82         75.3764
575.25        74.97734
575.69        72.44126
576.12         71.0666
576.56        70.48215
576.99        71.73577
577.42        75.39282
577.86        75.24052
578.29        74.59174
578.73        78.63995
579.16        72.51311
579.60        66.15803
580.03        69.09094
580.47        73.49622
580.90          75.508
581.33        74.13696
581.77        73.04526
582.20        80.51522
582.64        80.43825
583.07        68.51239
583.51        67.01106
583.94        65.45934
584.37        68.24652
584.81        71.86705
585.24        76.01035
585.68        78.16753
586.11        76.48165
586.54          71.464
586.98        68.79922
587.41        69.34051
587.85        72.98871
588.28        76.09955
588.71        72.16737
589.15        69.76125
589.58        71.39597
590.01        71.62746
590.45        72.58674
590.88        73.81274
591.31        73.09983
591.75        72.47462
592.18        72.27503
592.61        73.66208
593.05        74.20009
593.48        77.58247
593.91         78.7332
594.35        72.21313
594.78         70.4707
595.21        69.95422
595.65        73.24433
596.08        76.58482
596.51        73.05902
596.94        71.09854
597.38        71.55551
597.81        74.31023
598.24        76.47158
598.68        75.00109
599.11        73.29182
599.54        76.56733
599.97        78.08051
600.41         72.4567
600.84        72.61176
601.27        74.44035
601.70        73.06301
602.14        73.65553
602.57        72.35316
603.00        72.38303
603.43        74.31328
603.87        76.08929
604.30        75.71367
604.73        73.30499
605.16        71.77481
605.60        72.79192
606.03        73.94073
606.46        74.88018
606.89        74.52309
607.32        72.64388
607.76        71.65847
608.19        74.70549
608.62          73.723
609.05        72.49638
609.48        73.02377
609.92        72.91631
610.35        72.51863
610.78        74.76235
611.21        75.68595
611.64        72.09409
612.07        72.78606
612.50        73.16878
612.94        73.56809
613.37        72.86848
613.80        73.28159
614.23        73.69268
614.66        73.68257
615.09        73.98282
615.52        74.04694
615.96        73.96162
616.39        74.09891
616.82        73.25761
617.25        72.43787
617.68          73.361
618.11        73.90792
618.54        74.37666
618.97        73.82661
619.40        72.69375
619.84        72.67563
620.27         73.6832
620.70        74.50604
621.13        74.87881
621.56        74.05441
621.99        72.75011
622.42        73.63072
622.85        75.53748
623.28        75.14661
623.71        74.49634
624.14        74.44943
624.57        74.39386
625.00        73.85561
625.43        74.30137
625.86        73.54868
626.29         73.5335
626.72        74.17747
627.15        73.77869
627.58        74.06223
628.01         74.3201
628.44        74.45541
628.87        74.52184
629.30        74.57854
629.73        75.14988
630.16        75.30206
630.59        74.87172
631.02        74.39882
631.45        73.94136
631.88        73.62661
632.31        73.50432
632.74         73.5481
633.17        73.68638
633.60        73.78719
634.03        73.80799
634.46        73.79115
634.89        73.75555
635.32        73.73192
635.75        73.73441
636.18        73.73813
636.61        73.75896
637.04        73.83502
637.47         73.9633
637.89        74.13954
638.32        74.29581
638.75        74.35706
639.18        74.30009
639.61        74.17446
640.04        74.01454
640.47        73.76181
640.90        73.62635
641.33        73.45485
641.76         73.3001
642.18        73.25971
642.61        73.33836
643.04        73.34267
643.47        73.21042
643.90        73.79587
644.33        73.56017
644.76         73.7343
645.18        73.83459
645.61        73.83735
646.04        73.72295
646.47        73.49165
646.90        73.26511
647.33         73.2031
647.75        73.36116
648.18        73.69941
648.61         73.9983
649.04        74.02331
649.47        73.69554
649.89        72.74569
650.32         71.6628
650.75        71.65962
651.18        72.68436
651.61        73.53798
652.03        73.83212
652.46        73.97679
652.89        74.18991
653.32        73.37117
653.74        72.06754
654.17        73.34148
654.60        74.62642
655.03        72.38497
655.46        72.94441
655.88        77.01622
656.31        82.42684
656.74        187.9854
657.16        122.6795
657.59        43.17612
658.02         32.1465
658.45        55.36823
658.87        70.57363
659.30        73.96703
659.73        73.51754
660.15        70.54545
660.58        73.30378
661.01        74.96496
661.44        72.56165
661.86        71.80883
662.29        71.87437
662.72        72.84814
663.14          74.368
663.57        74.22021
664.00         72.7363
664.42         72.3755
664.85        73.23238
665.27        73.73533
665.70        73.66506
666.13        73.55122
666.55        73.37073
666.98         72.9613
667.41        72.48571
667.83        72.27499
668.26        72.39826
668.69        72.72363
669.11        73.04515
669.54        73.39231
669.96        73.01785
670.39        72.56913
670.82        72.04587
671.24        71.82556
671.67        72.00307
672.09        72.39452
672.52        72.74647
672.94        73.23256
673.37        72.59779
673.80        72.46346
674.22        72.51543
674.65         72.5159
675.07        72.44836
675.50        72.31949
675.92        72.19733
676.35        72.23239
676.77         72.4379
677.20        72.68214
677.62        72.91233
678.05        73.04837
678.47        73.05408
678.90         72.9762
679.32        72.85399
679.75        72.61324
680.17        72.56341
680.60        72.46276
681.02        72.38178
681.45        72.25427
681.87        72.08533
682.30        71.94894
682.72        71.88862
683.15        71.85313
683.57        71.92532
684.00        72.28018
684.42        72.91949
684.85        73.21959
685.27        73.16294
685.70        72.94651
686.12        72.63309
686.54        72.47294
686.97        72.54047
687.39        72.16478
687.82        72.34576
688.24        72.42528
688.66        72.29882
689.09         72.2733
689.51        72.28482
689.94        72.37132
690.36        72.52973
690.78        72.74492
691.21        72.95553
691.63        73.06459
692.06        73.05564
692.48        72.96694
692.90        72.85838
693.33        72.80981
693.75        72.84429
694.17         72.9444
694.60         73.0839
695.02         73.1833
695.44        73.18118
695.87        73.32011
696.29        73.58855
696.71        73.27612
697.14        72.63618
697.56        73.18633
697.98        74.59444
698.41        74.45914
698.83        73.52955
699.25        72.88071
699.68        72.84838
700.10        72.71011
700.52        72.50575
700.94        72.63035
701.37        73.01176
701.79        73.41979
702.21        73.75379
702.64        74.07653
703.06        74.29088
703.48        74.23736
703.90        73.91904
704.33        73.38557
704.75        72.79648
705.17        72.50548
705.59        72.60461
706.01        72.88121
706.44        73.18383
706.86        73.89153
707.28        73.94341
707.70        74.15096
708.12        74.22369
708.55        74.17733
708.97         74.0061
709.39        73.71199
709.81        73.40393
710.23        73.26351
710.66        73.33882
711.08        73.61813
711.50        73.93647
711.92        74.03863
712.34         73.8686
712.76        73.48932
713.19        73.08424
713.61        72.98381
714.03        73.24405
714.45        73.76128
714.87        74.30054
715.29        74.49162
715.71        74.25535
716.13        73.71553
716.56        73.09661
716.98        72.79067
717.40        72.89177
717.82        73.27718
718.24        73.76738
718.66        74.05885
719.08        74.06104
719.50        73.87593
719.92        73.60001
720.34        73.40267
720.76        73.34344
721.19         73.2432
721.61        73.32528
722.03        73.44244
722.45        73.64265
722.87        73.92204
723.29        74.22033
723.71        74.42302
724.13        74.49775
724.55        74.46653
724.97        74.38306
725.39        74.34736
725.81        74.38628
726.23         74.4681
726.65        74.56071
727.07        74.61064
727.49        74.60729
727.91        74.58282
728.33        74.54666
728.75        74.51109
729.17        74.48217
729.59        74.44366
730.01        74.43282
730.43        74.50116
730.85        74.65706
731.27        74.91588
731.69        75.17156
732.10        75.22999
732.52        75.05271
732.94        74.73273
733.36        74.46278
733.78        74.40964
734.20        74.62545
734.62        75.38523
735.04        76.37975
735.46        76.37958
735.88        75.61417
736.30        75.69979
736.72        76.68348
737.13        77.26033
737.55        77.07521
737.97          77.032
738.39        77.12772
738.81        75.97159
739.23        74.24802
739.65        75.25623
740.06        78.34252
740.48        78.88818
740.90         76.9059
741.32        75.95605
741.74        76.37287
742.16        76.52424
742.57        76.48553
742.99        77.12804
743.41         78.2035
743.83        78.84228
744.25        78.89251
744.67        78.56647
745.08        78.13366
745.50        78.03455
745.92        78.39295
746.34        79.04585
746.75        79.74858
747.17        80.10225
747.59        80.03428
748.01        79.67834
748.42        79.30219
748.84        79.33806
749.26        79.89272
749.68        80.72151
750.09        81.59371
750.51        82.31641
750.93        82.69753
751.35        82.38373
751.76        81.60529
752.18        81.27155
752.60        81.40656
753.01        81.30493
753.43        81.01507
753.85        81.12205
754.27         81.6547
754.68        82.40148
755.10        83.19118
755.52        83.70365
755.93        84.15099
756.35        84.24873
756.77        84.23244
757.18        84.20587
757.60         84.2097
758.02        84.58419
758.43        85.00708
758.85        84.32446
759.26        82.74542
759.68        82.57264
760.10        83.49055
760.51        84.49411
760.93        83.73262
761.34        82.61131
761.76        82.21923
762.18         81.8507
762.59        81.97882
763.01        82.31525
763.42        82.84859
763.84        83.38006
764.26        83.84602
764.67        84.09907
765.09        84.06038
765.50        83.96877
765.92        83.69872
766.33        82.30948
766.75        80.40737
767.16        79.87701
767.58         80.8876
768.00        82.59522
768.41        84.54902
768.83         85.9262
769.24        86.18048
769.66        85.48649
770.07        84.29944
770.49        82.51852
770.90        80.78416
771.32        81.75829
771.73        84.67095
772.15        84.41747
772.56        81.41466
772.97        80.78392
773.39        82.47506
773.80        83.02703
774.22        82.23461
774.63        82.14694
775.05        82.70624
775.46        82.97674
775.88        82.84853
776.29        82.58453
776.70        82.28331
777.12        82.13651
777.53        82.20809
777.95         82.3819
778.36        82.52868
778.77        82.42495
779.19        82.07596
779.60        81.56271
780.02        81.10091
780.43        81.10932
780.84        81.70764
781.26        82.30357
781.67        82.81924
782.09        84.05716
782.50        85.44377
782.91        84.54039
783.33        82.04379
783.74        81.15452
784.15        82.04752
784.57        82.62298
784.98        82.60281
785.39        82.61333
785.81        82.58318
786.22        82.17783
786.63        81.69493
787.04        81.73193
787.46        82.34149
787.87        83.32977
788.28        84.35407
788.70         84.8315
789.11        84.62612
789.52        83.94647
789.93        83.12161
790.35        82.60613
790.76        82.52924
791.17        82.81239
791.58        83.27422
792.00        83.51946
792.41        83.42995
792.82        83.23787
793.23        83.14951
793.65        82.85162
794.06        82.62253
794.47        83.88009
794.88         85.7906
795.29        85.32051
795.71        82.69811
796.12        80.38939
796.53        79.08936
796.94        78.42467
797.35        78.63379
797.76        80.19565
798.18        82.37299
798.59        83.66122
799.00        83.59538
799.41         82.5538
799.82        81.12177
800.23         80.2757
800.64        80.27505
801.06        80.73109
801.47        81.44341
801.88        81.97506
802.29        82.15842
802.70        82.17297
803.11        82.08496
803.52        81.96851
803.93        81.88671
804.34        81.76167
804.75        81.66917
805.17        81.87049
805.58        82.43415
805.99        82.92258
806.40        83.16287
806.81        83.77463
807.22        84.25182
807.63        82.64846
808.04        79.73502
808.45        78.45646
808.86        79.09987
809.27        80.24327
809.68        81.35978
810.09        82.07459
810.50        82.10606
810.91        81.58575
811.32        80.84325
811.73         80.4146
812.14        80.44831
812.55        80.73186
812.96        81.15174
813.37        81.50568
813.78         81.6991
814.19        81.87609
814.60        81.89867
815.01         81.5238
815.42        80.75538
815.83         79.6172
816.24        78.54918
816.65        78.33011
817.05        79.16657
817.46        80.80363
817.87        82.58329
818.28        83.32404
818.69        82.71362
819.10        81.04453
819.51        79.08639
819.92        78.15249
820.33        78.59195
820.74        80.01698
821.14        81.71348
821.55        82.40989
821.96        81.82206
822.37         80.3916
822.78         78.7575
823.19        77.85429
823.60        77.93567
824.00        78.76015
824.41        79.87453
824.82          80.621
825.23        80.72492
825.64        80.41519
826.04        79.95243
826.45        79.71483
826.86        79.79514
827.27        80.01591
827.68        80.24615
828.08        80.32616
828.49        80.13278
828.90        79.81597
829.31        79.38863
829.72        78.86057
830.12        78.32553
830.53        77.77961
830.94        77.43453
831.35        77.56644
831.75        78.24203
832.16        79.32371
832.57         80.5646
832.97        81.42991
833.38        81.65771
833.79        81.37267
834.20        80.84757
834.60         80.5192
835.01        80.53129
835.42        80.75106
835.82        80.98593
836.23         80.8302
836.64        80.24719
837.04        79.42104
837.45        78.62141
837.86         78.2589
838.26        78.43871
838.67        78.98178
839.08        79.70654
839.48        80.27528
839.89        80.51952
840.29        80.55508
840.70        80.40158
841.11        80.07622
841.51        79.63236
841.92        79.03129
842.33        78.46255
842.73        78.25982
843.14        78.44947
843.54         78.9949
843.95        79.58371
844.35        79.74621
844.76        79.36008
845.17         78.5913
845.57        77.73497
845.98        77.25243
846.38        77.25568
846.79          77.576
847.19        78.04955
847.60        78.29552
848.00        78.23075
848.41        77.95338
848.81        77.60753
849.22        77.31953
849.62        77.19659
850.03         77.2103
850.43        77.36998
850.84        77.60963
851.24        77.94421
851.65        78.19749
852.05        78.59048
852.46        79.29651
852.86        80.29688
853.27        81.53343
853.67        82.33401
854.07        81.81112
854.48        79.97824
854.88        77.16719
855.29        74.41052
855.69        73.20355
856.10        73.85701
856.50        76.17042
856.90        79.28054
857.31        81.17103
857.71        81.16631
858.12        79.76814
858.52        77.91319
858.92        76.85205
859.33        76.86215
859.73        77.60696
860.13        78.75157
860.54         79.6153
860.94         79.9883
861.34        80.04292
861.75         79.9853
862.15        80.21545
862.55        80.79153
862.96        81.55592
863.36        82.28858
863.76        82.59618
864.17        82.38726
864.57        81.85524
864.97        81.29085
865.38        81.11903
865.78        81.47574
866.18         82.1465
866.58         82.9145
866.99        83.39703
867.39        83.53093
867.79        83.47535
868.19        83.19223
868.60        82.60171
869.00        81.79224
869.40        80.78889
869.80        80.15501
870.21        80.75472
870.61        82.78434
871.01        85.95089
871.41        89.31875
871.81         91.2804
872.22        91.39011
872.62           90.09
873.02        88.26459
873.42        87.43839
873.82        87.86405
874.22        88.89806
874.63        90.09306
875.03        90.56074
875.43        89.90128
875.83        89.16348
876.23        87.62083
876.63        87.17252
877.03        87.91212
877.44        90.09258
877.84        101.8369
878.24        97.45805
878.64         97.3003
879.04        95.98373
879.44        92.62508
879.84        90.82641
880.24        93.41593
880.64         95.1591
881.04        96.44041
881.44        97.01617
881.84         96.1856
882.24        94.36597
882.65         92.6347
883.05        92.10054
883.45        92.94874
883.85        95.04883
884.25        97.57812
884.65        98.88441
885.05        98.48471
885.45        96.96179
885.85        95.25072
886.25        94.63871
886.65        95.38487
887.05        97.03356
887.45         99.0424
887.85        100.4384
888.25        100.8434
888.65        100.6018
889.04        99.91436
889.44        99.13799
889.84        98.42762
890.24        97.63843
890.64        96.97103
891.04        96.75554
891.44        97.01894
891.84        97.74876
892.24        98.55151
892.64        98.67158
893.04        98.00174
893.44        96.85046
893.83        95.75744
894.23        95.53201
894.63        96.29025
895.03        97.69542
895.43        99.44952
895.83        100.9803
896.23        101.9795
896.63         102.616
897.02        102.6419
897.42         101.691
897.82        99.88261
898.22        97.41465
898.62        95.09841
899.01        94.11411
899.41        94.67543
899.81        96.38086
900.21        98.49772
900.61        99.80451
901.00        99.93273
901.40        99.24133
901.80         98.1538
902.20         97.3438
902.59        97.03951
902.99        97.03346
903.39        97.15091
903.79        97.11555
904.18        96.85965
904.58        96.55674
904.98        96.41347
905.38          96.715
905.77        97.44321
906.17        98.40672
906.57         99.3189
906.96        99.82925
907.36         99.7984
907.76        99.37462
908.15        98.65464
908.55        97.69223
908.95        96.64592
909.34        95.50963
909.74        94.56233
910.14        94.04631
910.53        94.03487
910.93        94.51754
911.33        95.34159
911.72        96.19631
912.12        96.84851
912.52        97.28037
912.91        97.57593
913.31        97.90121
913.70        98.33834
914.10         98.8222
914.49        99.14214
914.89        98.73052
915.29        97.55164
915.68        95.86873
916.08        94.44104
916.47        93.85305
916.87        94.16166
917.26        95.15756
917.66        96.29421
918.05        96.72629
918.45        96.22598
918.84        95.10177
919.24        93.88683
919.64        93.32996
920.03        93.64236
920.42        94.56869
920.82        95.77096
921.21        96.83668
921.61        97.41646
922.00        97.65714
922.40        97.54099
922.79        97.03983
923.19        96.26619
923.58        95.21017
923.98        93.98238
924.37        93.07051
924.77        92.85332
925.16        91.73719
925.55        92.64556
925.95        93.67696
926.34        95.58502
926.74        97.92808
927.13        100.0728
927.52        100.7476
927.92        99.82655
928.31        97.74714
928.70         95.1259
929.10        93.02293
929.49        91.76317
929.89        91.09484
930.28          91.175
930.67        92.23975
931.07        94.06364
931.46        96.62454
931.85        99.00896
932.24        99.85052
932.64        98.90628
933.03        96.38299
933.42         93.0547
933.82         90.7297
934.21        89.98001
934.60        90.36928
934.99        91.15936
935.39        91.48178
935.78         91.1797
936.17        90.27014
936.56        88.63531
936.96        88.83396
937.35        87.75984
937.74        87.96748
938.13        88.36914
938.53        89.18218
938.92        90.41575
939.31          92.174
939.70        94.00739
940.09         94.5902
940.49        93.54204
940.88        91.43414
941.27        89.25069
941.66        88.15849
942.05        88.31347
942.44        89.33101
942.84        90.85345
943.23        92.32945
943.62        93.38184
944.01        94.12798
944.40        94.49666
944.79        94.38917
945.18        93.78499
945.57        92.58523
945.97        90.88705
946.36        89.22124
946.75        88.05222
947.14        87.45965
947.53        87.31268
947.92        87.33886
948.31        87.46166
948.70        87.76875
949.09        88.30368
949.48         89.0805
949.87        90.00359
950.26        90.89766
950.65        91.67756
951.04        92.32486
951.43        92.80975
951.82        93.11131
952.21        93.04681
952.60        92.37585
952.99        91.12816
953.38        89.44178
953.77        87.75546
954.16         86.6697
954.55        86.31444
954.94        86.61779
955.33        87.11758
955.72        87.00095
956.11        86.09545
956.50        84.61111
956.89         83.2551
957.28        83.31364
957.66        85.16102
958.05        88.11079
958.44        91.20992
958.83        93.07427
959.22        93.32838
959.61        92.29716
960.00        90.55625
960.39        89.05423
960.78        88.13327
961.16        87.63701
961.55        87.15672
961.94        86.04285
962.33        84.26705
962.72        82.21545
963.11        80.59239
963.49        80.27277
963.88        81.36186
964.27        83.65462
964.66        86.39916
965.04        87.94157
965.43         87.5507
965.82         85.7961
966.21        83.70506
966.60        82.63928
966.98         82.8669
967.37        83.91246
967.76        85.26752
968.15        85.95543
968.53        85.63676
968.92        84.67185
969.31        83.45771
969.69        82.43597
970.08        81.76056
970.47        81.31866
970.86        80.98393
971.24        80.59208
971.63        80.09108
972.02        79.52231
972.40        79.21362
972.79        79.66634
973.17        81.07681
973.56        83.20794
973.95        85.33187
974.33        86.07816
974.72        85.05583
975.11        82.72634
975.49        80.27058
975.88        79.30145
976.26        80.06304
976.65         82.2754
977.04        84.91035
977.42        85.42231
977.81        82.94601
978.19        78.51228
978.58        74.49238
978.96         73.3655
979.35        75.50217
979.74        80.36944
980.12        86.75918
980.51        90.68288
980.89        90.80111
981.28        88.23429
981.66         84.7905
982.05        82.77589
982.43        82.58861
982.82        83.41479
983.20        84.84273
983.59        86.42651
983.97        88.03694
984.35        89.91683
984.74        91.62598
985.12        92.46481
985.51        91.84445
985.89        89.82337
986.28        86.87598
986.66        83.79896
987.04        81.34833
987.43        79.70475
987.81          78.712
988.20        78.05068
988.58        77.52459
988.96        76.94225
989.35        76.97388
989.73        79.56035
990.12        84.60417
990.50        90.57439
990.88        94.15682
991.27        93.32819
991.65         88.7314
992.03        81.02132
992.42         72.8801
992.80         69.4185
993.18        71.94483
993.56        77.75764
993.95         83.9994
994.33         87.9063
994.71        88.97342
995.10        88.50891
995.48        86.88903
995.86        84.44987
996.24        81.43259
996.63        77.28821
997.01        73.04807
997.39          71.901
997.77        75.08636
998.15        81.94322
998.54        89.15533
998.92        92.20155
999.30        89.81194
999.68        83.07844
1000.06        74.00623
1000.45        67.61979
1000.83        65.94441
1001.21        67.27414
1001.59        70.21842
1001.97        73.36719
1002.35        76.34737
1002.73        80.19123
1003.12        83.64471
1003.50        83.01408
1003.88        77.14759
1004.26        68.14516
1004.64        60.09475
1005.02        56.35088
1005.40         57.1124
1005.78        62.42609
1006.16        72.97132
1006.54        83.57205
1006.92         87.5343
1007.30        86.40635
1007.69        84.01685
1008.07        83.27567
1008.45        84.63476
1008.83        88.23303
1009.21        95.25397
1009.59        102.1174
1009.97        85.10875
1010.35        16.76394
1010.73       -16.32437
1011.11        4.625059
1011.49         30.5297
1011.86        52.37496
1012.24        65.57389
1012.62         71.0226
1013.00        71.56395
1013.38        68.67429
1013.76         64.8403
1014.14        68.32372
1014.52        86.05611
1014.90        119.8342
1015.28        161.0411
1015.66        184.5633
1016.04        174.4451
1016.41        134.3527
1016.79        86.28239
1017.17        56.01707
1017.55        45.70961
1017.93        44.70353
1018.31        47.43327
1018.69        51.21469
1019.06        55.81375
1019.44        62.39237
1019.82        72.89197
1020.20        87.91473
1020.58         107.519
1020.95        133.1722
1021.33        169.3023
1021.71       -261.5904
1022.09        89.06602
1022.46         110.862
1022.84        120.2506
1023.22        129.5907
1023.60        148.9813
1023.97        326.4742
1024.35        31.57077
1024.73        72.53152
