SpectraSmart Spectrum 2.9.0.0
--------- Device Information -----------
Spectrum Name :  反射率_0
Saving Time :  2024/04/26 01:24:21
Spectro-Module Model Name : SE2030-DUVN
Spectro-Module Serial Number : OS361AC55029948
Wavelength Start : 200
Wavelength End : 1025
Wavelength Unit : Wavelength(nm)
Spectrum Unit : Reflectance(%)
-----------Spectrum Setting ------------
Integration Time : 20ms
Average : 10
Boxcar : 0
Background removal :  enabled
linearity correction :  enabled
SC :  disabled
Intensity correction :  disabled
DWT denoise :  enabled
savitzky-golay :  disabled
FFT :  disabled
Running average :  disabled
Kalman :  disabled
High pass :  disabled
---------------BEGIN--------------------
Wavelength(nm)             Reflectance(%)
200.29               0
200.75         98.3624
201.21        92.81894
201.67         85.7185
202.13        80.97422
202.58        79.27616
203.04        79.93179
203.50        81.71953
203.96        82.73779
204.42        82.49832
204.88        81.59388
205.34        81.30839
205.80        83.32887
206.26        88.87592
206.72        101.0385
207.18        124.1804
207.64        143.0394
208.10        127.4702
208.55        98.63354
209.01        80.97763
209.47        75.32513
209.93        76.66466
210.39        82.61396
210.85        90.23908
211.31        93.20034
211.77        89.24705
212.23        80.59053
212.69        71.81777
213.14        69.99593
213.60        76.16724
214.06        88.18623
214.52        100.8872
214.98        106.4838
215.44        103.4347
215.90        94.66921
216.36        84.67625
216.81        79.64764
217.27        80.85417
217.73         85.7105
218.19        90.83244
218.65        92.01852
219.11        87.96046
219.57        78.45555
220.02        64.91512
220.48        55.80921
220.94        56.25161
221.40        64.01276
221.86        71.56738
222.32        70.90629
222.77        62.89109
223.23        52.32571
223.69         43.3753
224.15        40.17944
224.61        42.22554
225.06        47.25137
225.52         52.4309
225.98        54.41798
226.44        52.57393
226.90        48.40403
227.36        43.62091
227.81        40.43392
228.27        39.67084
228.73         40.3923
229.19        41.94195
229.65        43.36868
230.10        44.31958
230.56        45.10096
231.02        45.81768
231.48        46.57211
231.93        47.35007
232.39        48.01714
232.85         48.5444
233.31        48.97248
233.77        49.27317
234.22        49.47843
234.68        49.40245
235.14        48.65471
235.60        47.29606
236.05        45.63103
236.51        44.16656
236.97        43.52127
237.43        43.90427
237.88        45.35731
238.34        47.91713
238.80        51.32755
239.26        55.08616
239.71        59.14357
240.17        62.68111
240.63         65.0946
241.08        66.36317
241.54        66.35963
242.00        66.01417
242.46        66.92489
242.91         70.4126
243.37        79.12443
243.83        104.4749
244.28        176.0803
244.74        237.4713
245.20        180.2732
245.66        139.0865
246.11        127.8697
246.57        132.9633
247.03        159.6886
247.48        248.5217
247.94        230.4948
248.40        141.8343
248.85        111.6877
249.31        102.1104
249.77         100.561
250.22        103.3679
250.68        109.8588
251.14        119.4672
251.59        125.1423
252.05        120.2398
252.51        108.6611
252.96        96.30441
253.42        88.50241
253.88        84.70645
254.33        82.98496
254.79        83.84318
255.25        87.30764
255.70        92.07185
256.16        97.49767
256.62        101.0647
257.07        100.2642
257.53        96.10522
257.99        89.55283
258.44        82.82738
258.90        79.49921
259.35        78.64478
259.81        78.98694
260.27        78.39205
260.72        74.81441
261.18        69.12231
261.63        62.26429
262.09        56.04653
262.55        51.84191
263.00        49.57818
263.46        48.62583
263.91        47.94141
264.37        46.70901
264.83        44.72415
265.28         42.2139
265.74        39.80342
266.19        38.19609
266.65        37.62152
267.11        37.64653
267.56         37.7306
268.02        37.24491
268.47        36.05711
268.93        34.40762
269.38        32.56202
269.84        31.20097
270.30        30.52892
270.75        30.35775
271.21        30.41517
271.66         30.2977
272.12        29.86915
272.57        29.25475
273.03        28.61437
273.48         28.0958
273.94        27.76862
274.39        27.53445
274.85         27.2981
275.31        26.92348
275.76        26.37861
276.22        25.74048
276.67        25.10684
277.13        24.70351
277.58        24.51056
278.04        24.47866
278.49        24.41916
278.95        24.12127
279.40        23.53337
279.86          22.796
280.31        22.02316
280.77        21.49348
281.22        21.22312
281.68        21.13998
282.13        21.14542
282.59        21.13064
283.04        21.05237
283.50        20.97787
283.95        20.87184
284.41        20.69522
284.86        20.44797
285.32        20.14528
285.77        19.89328
286.22        19.91389
286.68        20.20718
287.13        20.67924
287.59        21.12141
288.04        21.21635
288.50        20.93394
288.95          20.368
289.41         19.7409
289.86        19.28629
290.32        19.11839
290.77        19.14831
291.22        19.31679
291.68        19.49563
292.13        19.65644
292.59        19.84956
293.04         20.1279
293.50        20.56751
293.95        21.16761
294.40        21.86907
294.86        22.59793
295.31        23.25824
295.77        23.83573
296.22        24.37067
296.68        24.90556
297.13        25.47625
297.58        26.11851
298.04        26.83456
298.49        27.65576
298.95        28.67353
299.40        29.88304
299.85        31.25075
300.31        32.67992
300.76         34.0178
301.21        35.19902
301.67        36.28608
302.12        37.28458
302.58        38.28336
303.03         39.3015
303.48        40.34698
303.94        41.50765
304.39        42.86784
304.84        44.44096
305.30        46.18722
305.75        47.95938
306.20         49.5443
306.66        50.90647
307.11        52.06757
307.57        53.15638
308.02        54.27541
308.47        55.51194
308.93        56.84014
309.38        58.22747
309.83        59.66432
310.29        61.11695
310.74        62.55287
311.19        63.95742
311.65        65.31168
312.10        66.59993
312.55        67.83459
313.00        68.94722
313.46        69.83413
313.91        70.46943
314.36        70.89954
314.82        71.29964
315.27        71.90424
315.72        72.79593
316.18        73.91211
316.63        75.10357
317.08        76.07428
317.53        76.73235
317.99        77.14218
318.44        77.47188
318.89        78.00515
319.35        78.78987
319.80        79.76218
320.25        80.68871
320.70         81.1872
321.16        81.17857
321.61        80.79488
322.06        80.32024
322.51        80.19844
322.97         80.5207
323.42         81.1951
323.87        81.98328
324.32        82.47233
324.78        82.53552
325.23        82.33398
325.68        82.05224
326.13        82.01377
326.59        82.29308
327.04        82.81516
327.49        83.44473
327.94        83.98976
328.39        84.38168
328.85        84.66265
329.30        84.93734
329.75         85.2298
330.20        85.57658
330.66        85.94627
331.11        86.39734
331.56        86.95988
332.01        87.65067
332.46        88.44522
332.92        89.29977
333.37        90.29771
333.82        91.33743
334.27         92.3881
334.72        93.28402
335.17         93.7704
335.63        93.80556
336.08        93.51598
336.53        93.12944
336.98        93.05303
337.43        93.40815
337.88        94.09471
338.34        94.96759
338.79        95.86629
339.24        96.66864
339.69        97.43652
340.14        98.11526
340.59        98.60159
341.05        98.88738
341.50        98.97215
341.95         98.9837
342.40        99.15557
342.85        99.54398
343.30        100.0886
343.75        100.6875
344.20        101.1463
344.66        101.4107
345.11        101.5263
345.56        101.5307
346.01        101.4765
346.46        101.4066
346.91        101.3152
347.36        101.2575
347.81        101.3243
348.26        101.5355
348.72        101.8876
349.17        102.2938
349.62        102.6551
350.07        102.9259
350.52        103.1126
350.97        103.2417
351.42         103.366
351.87        103.4955
352.32        103.6107
352.77        103.6649
353.22        103.5914
353.67        103.3856
354.13         103.092
354.58        102.7616
355.03        102.5286
355.48        102.4147
355.93        102.3756
356.38        102.3264
356.83        102.1309
357.28        101.7541
357.73        101.2433
358.18        100.6537
358.63        100.0728
359.08         99.5361
359.53        99.02431
359.98        98.52921
360.43        98.03738
360.88        97.53631
361.33        97.02602
361.78        96.51215
362.23        95.99963
362.68        95.49402
363.13        95.00701
363.58        94.49992
364.03        93.91124
364.48        93.23651
364.93        92.48788
365.38        91.76493
365.83        91.23063
366.28        90.90264
366.73        90.71746
367.18        90.52828
367.63        90.09771
368.08        89.38443
368.53        88.49374
368.98        87.54913
369.43        86.72881
369.88        86.09129
370.33        85.58102
370.78        85.19727
371.23        84.94182
371.68        84.78839
372.13         84.7293
372.58        84.68517
373.03        84.51629
373.48        84.19271
373.93        83.75953
374.38        83.27374
374.83        82.82795
375.28        82.45484
375.72        82.11502
376.17        81.84848
376.62        81.69369
377.07        81.63278
377.52        81.63031
377.97        81.59363
378.42        81.37424
378.87        80.94819
379.32         80.3851
379.77        79.73657
380.22        79.07227
380.67        78.42171
381.11        77.76507
381.56        77.17146
382.01        76.76086
382.46        76.55859
382.91        76.55341
383.36        76.59258
383.81        76.42542
384.26        76.00173
384.71        75.37838
385.15        74.73456
385.60        74.41444
386.05         74.4249
386.50        74.65071
386.95        74.85197
387.40        74.63416
387.85        73.96317
388.29        73.01089
388.74        72.11926
389.19        71.48325
389.64        71.14073
390.09        70.96902
390.54        70.97427
390.98        71.16473
391.43        71.48188
391.88        71.89325
392.33        72.18115
392.78        71.95701
393.23        71.22322
393.67        70.29337
394.12        69.50816
394.57        68.73721
395.02         68.2476
395.47        68.81592
395.91        70.20563
396.36        71.03617
396.81        71.08733
397.26         70.9956
397.71        70.84222
398.15        70.41824
398.60        69.86829
399.05         69.3475
399.50        68.88804
399.95        68.13309
400.39        67.50835
400.84        67.28542
401.29        67.49732
401.74        67.59607
402.18        67.54126
402.63        67.58228
403.08        67.76808
403.53        68.02126
403.97        68.31874
404.42        68.63879
404.87         68.8588
405.32        68.72885
405.76        68.20625
406.21        67.58532
406.66        67.00959
407.11        66.34669
407.55        65.83709
408.00        66.18901
408.45        67.18938
408.90        67.64459
409.34        67.33932
409.79        66.80851
410.24        66.29181
410.68        65.99928
411.13        66.01785
411.58        66.20037
412.03        66.48113
412.47        66.80552
412.92        67.06953
413.37        67.31418
413.81        67.45684
414.26        67.41547
414.71        67.17147
415.15        66.73676
415.60        66.25178
416.05        65.97011
416.49        65.95799
416.94        66.16926
417.39        66.42168
417.83        66.38599
418.28         66.0085
418.73        65.40361
419.17         64.8271
419.62        64.68618
420.07        65.02399
420.51        65.69874
420.96        66.43938
421.41        66.76624
421.85        66.54203
422.30        66.09619
422.74         65.5694
423.19        65.09488
423.64        64.79157
424.08        65.00056
424.53        65.59724
424.98        65.99977
425.42        66.10819
425.87        66.41013
426.31        66.85282
426.76        66.71529
427.21        66.24994
427.65        66.61751
428.10        67.68119
428.54        68.47532
428.99        68.92622
429.44        69.00013
429.88         68.8122
430.33        69.59296
430.77        70.64063
431.22        69.46263
431.66        66.66286
432.11        65.12941
432.56        65.22601
433.00        66.10508
433.45        67.59226
433.89        69.49654
434.34        70.33899
434.78        71.58785
435.23         67.9449
435.67        65.40531
436.12        67.93275
436.57        69.10326
437.01        70.02135
437.46        70.39967
437.90        70.32902
438.35        70.37372
438.79        70.52153
439.24        70.43839
439.68        70.15994
440.13        69.76284
440.57        69.54881
441.02        70.21616
441.46        71.48512
441.91        72.48063
442.35        72.85027
442.80        72.25244
443.24        71.10941
443.69        71.66907
444.13         73.5526
444.58        73.52219
445.02        71.80556
445.47        71.45186
445.91        72.40501
446.36        72.66814
446.80        72.19395
447.24        72.03006
447.69        72.24452
448.13        72.50833
448.58        72.81853
449.02        73.20112
449.47        73.58773
449.91        73.88399
450.36           74.06
450.80        74.11934
451.25        74.06824
451.69        73.89331
452.13        73.63822
452.58        73.32397
453.02        73.04887
453.47        73.00651
453.91         73.2063
454.36        73.59122
454.80        74.02167
455.24        74.18849
455.69        74.03872
456.13        73.74078
456.58        73.43501
457.02        72.99288
457.46        72.61086
457.91        72.73969
458.35        73.21671
458.79        73.39358
459.24        73.22993
459.68        73.01188
460.13        72.79214
460.57        72.53555
461.01        72.33276
461.46        72.01073
461.90        71.46769
462.34        72.00925
462.79        71.07439
463.23        71.34221
463.68        71.93812
464.12        72.48399
464.56        72.76638
465.01        72.75215
465.45        72.40359
465.89        72.12691
466.34        71.89516
466.78        70.99034
467.22        69.87663
467.67        69.53951
468.11         70.7137
468.55        71.35728
468.99        71.40611
469.44        71.05491
469.88        70.52475
470.32        70.55872
470.77        71.06586
471.21        71.14375
471.65        70.74181
472.10        70.52423
472.54        70.56939
472.98        70.65723
473.42         70.7719
473.87        71.13541
474.31        71.54221
474.75        71.35126
475.20        70.71164
475.64         70.4697
476.08        70.68298
476.52        70.60152
476.97        70.19734
477.41        70.21677
477.85        70.76565
478.29        70.02813
478.74        70.93381
479.18        70.98903
479.62        69.82809
480.06        70.38409
480.50        70.76902
480.95        71.17258
481.39        71.11222
481.83        70.39806
482.27          70.087
482.72        70.41867
483.16        68.65108
483.60         69.0076
484.04        70.58326
484.48        70.94915
484.93        70.49998
485.37        72.50944
485.81        72.48436
486.25        71.29132
486.69        95.95369
487.14        77.72249
487.58        48.62936
488.02        60.43462
488.46        67.79102
488.90        67.58886
489.34        69.28048
489.79        68.81637
490.23        70.84453
490.67        71.55444
491.11        70.34707
491.55        70.37216
491.99        71.16673
492.43        71.08449
492.88        70.19518
493.32        70.02699
493.76        70.13577
494.20        70.36934
494.64        70.50063
495.08        70.77526
495.52        71.14033
495.96        71.14804
496.41        70.77913
496.85        70.95354
497.29        71.51899
497.73        70.43565
498.17        68.64799
498.61        69.09758
499.05        71.72069
499.49        72.13991
499.93        71.91684
500.37        71.64131
500.82         71.2714
501.26        70.83668
501.70        71.33186
502.14         71.5001
502.58        71.53426
503.02        71.49972
503.46        71.38057
503.90        71.06757
504.34        70.68685
504.78        70.52589
505.22        70.62593
505.66        70.91666
506.10        71.28258
506.54        71.39821
506.98        71.17625
507.42        70.98186
507.86        70.93029
508.30        70.21676
508.74        70.75758
509.18        70.96712
509.62        71.27853
510.06        71.44212
510.50        71.41747
510.94        71.25148
511.38         71.0359
511.82        70.96161
512.26        71.06712
512.70        71.29185
513.14        71.54295
513.58        71.67325
514.02        71.63895
514.46        71.48675
514.90        71.29682
515.34        71.17648
515.78        71.14687
516.22        71.23391
516.66        71.37955
517.10        71.32627
517.54        71.05054
517.98        71.18531
518.42        70.95579
518.86         71.0399
519.30        71.20168
519.74        71.47559
520.18        71.78242
520.62        71.99002
521.06        72.07098
521.50        72.05429
521.93        71.98561
522.37        71.93822
522.81         71.9414
523.25        71.97685
523.69        72.02549
524.13        72.05918
524.57        72.07332
525.01        72.08083
525.45        72.10365
525.89        72.17455
526.32        72.28441
526.76        72.40902
527.20         72.5069
527.64        72.53406
528.08        72.49749
528.52        72.36036
528.96        72.11393
529.40        71.94823
529.83        71.92162
530.27        71.25505
530.71        71.40944
531.15        71.33405
531.59        71.45707
532.03        71.70342
532.46        72.03946
532.90        72.36297
533.34         72.6047
533.78        72.81731
534.22        72.95966
534.66         72.8856
535.09        72.56994
535.53        72.45728
535.97        71.94755
536.41        71.75847
536.85        71.73016
537.28        71.84596
537.72        72.00703
538.16        72.07321
538.60        72.01391
539.04        71.81108
539.47        71.55172
539.91        71.55744
540.35         71.7751
540.79         71.8594
541.22         71.7729
541.66        71.75235
542.10        71.77951
542.54        71.69016
542.97         71.5427
543.41        71.53995
543.85        71.68985
544.29        71.95406
544.72        72.18115
545.16        72.17037
545.60        71.88753
546.04        71.39587
546.47        70.91984
546.91        70.86877
547.35         71.2967
547.79        71.98841
548.22        72.64588
548.66        73.01521
549.10        72.90209
549.53        72.02065
549.97        70.80103
550.41        70.22372
550.84        70.44013
551.28         71.0266
551.72        71.73259
552.15          72.203
552.59        72.29534
553.03        72.28058
553.46        72.03626
553.90         71.8207
554.34        71.86771
554.77        71.83742
555.21        71.76553
555.65        71.82722
556.08        72.04405
556.52        71.52536
556.96        71.94282
557.39        71.83014
557.83        71.69246
558.27        71.87096
558.70        71.73615
559.14        71.90305
559.57        72.13919
560.01        72.37522
560.45        72.54198
560.88        72.69276
561.32        72.76321
561.75        72.44936
562.19         71.9023
562.63        71.40977
563.06        71.10471
563.50        71.12746
563.93        71.37825
564.37         71.5855
564.80        71.63518
565.24        71.56697
565.68         71.4129
566.11        71.33663
566.55        71.41026
566.98        71.40893
567.42        71.35344
567.85         71.5927
568.29         72.1229
568.72        72.00841
569.16        71.93476
569.60        72.48015
570.03        72.72368
570.47        72.62225
570.90        72.33803
571.34        70.38232
571.77        71.49361
572.21        71.71608
572.64        71.08934
573.08        70.26556
573.51        67.19633
573.95        69.70415
574.38        73.85799
574.82        71.84097
575.25        71.62683
575.69        69.24282
576.12        68.23077
576.56        67.64655
576.99        68.96864
577.42        72.19658
577.86        72.07894
578.29        71.21181
578.73        74.84776
579.16         69.3297
579.60        63.42571
580.03        66.08893
580.47        70.48602
580.90        72.31813
581.33        70.66911
581.77        70.01321
582.20         76.6951
582.64        76.43304
583.07         65.3507
583.51        64.06718
583.94        63.23725
584.37        66.08101
584.81         69.3419
585.24        73.03828
585.68        74.80185
586.11        73.66016
586.54        68.60198
586.98        65.90389
587.41        66.67596
587.85        70.59232
588.28         73.0733
588.71        69.17534
589.15        66.97383
589.58        68.97814
590.01        69.15231
590.45        70.01589
590.88         70.9817
591.31        70.34477
591.75        69.61649
592.18        69.61589
592.61        71.13453
593.05        71.77898
593.48        74.54575
593.91        75.25415
594.35         69.0055
594.78        67.66382
595.21        67.37916
595.65        70.51476
596.08        73.30476
596.51        70.33186
596.94        68.43723
597.38        69.09405
597.81        71.83442
598.24        73.73652
598.68        72.45612
599.11         70.9792
599.54        73.66562
599.97        75.36432
600.41         70.2299
600.84        70.47187
601.27        71.88365
601.70        70.73093
602.14        70.68729
602.57        69.63577
603.00        70.21343
603.43        71.78264
603.87        73.37406
604.30        72.90649
604.73        70.54653
605.16        69.30608
605.60        70.27706
606.03        71.53248
606.46        72.59197
606.89        72.21778
607.32        69.92846
607.76         69.7969
608.19        72.04435
608.62        71.51907
609.05        70.30959
609.48        70.85117
609.92        70.49642
610.35        70.52727
610.78        72.34621
611.21        72.98826
611.64        69.78787
612.07        70.53063
612.50        70.96429
612.94        71.38026
613.37        70.70876
613.80        70.90268
614.23         71.2526
614.66        71.14078
615.09        71.37247
615.52        71.48571
615.96        71.56625
616.39        71.70829
616.82        70.67755
617.25        70.48937
617.68        70.99502
618.11        71.69553
618.54        72.16456
618.97        71.70963
619.40        70.65681
619.84        70.64446
620.27        71.62536
620.70        72.30885
621.13        72.47484
621.56         71.9375
621.99        71.01783
622.42        71.73302
622.85        73.56999
623.28        73.36621
623.71        72.63574
624.14        72.55173
624.57        72.49282
625.00        72.04073
625.43        72.39388
625.86        71.79505
626.29         72.0367
626.72        72.38039
627.15        72.12395
627.58         72.2581
628.01        72.37576
628.44        72.79662
628.87        72.87694
629.30        72.82034
629.73        73.24757
630.16        73.35923
630.59        73.05886
631.02        72.73649
631.45         72.4052
631.88        72.09361
632.31        71.81174
632.74        71.95177
633.17          71.783
633.60        71.88368
634.03        72.01513
634.46        72.23698
634.89        72.46454
635.32        72.48409
635.75        72.32211
636.18         72.1988
636.61        72.17419
637.04        72.17267
637.47         72.2067
637.89        72.38132
638.32        72.61405
638.75        72.70156
639.18        72.59887
639.61        72.59052
640.04        72.33231
640.47        72.21223
640.90        72.14388
641.33        72.10594
641.76        72.07008
642.18        72.10577
642.61        72.20742
643.04        72.19382
643.47        72.01001
643.90        72.50002
644.33        72.16367
644.76        72.21683
645.18        72.21063
645.61        72.16247
646.04        72.05932
646.47        71.88998
646.90        71.75343
647.33        71.75291
647.75        71.92764
648.18        72.29841
648.61         72.6354
649.04        72.58613
649.47        72.11463
649.89        71.17867
650.32         70.2561
650.75        70.28181
651.18         71.1819
651.61        72.11504
652.03        72.66656
652.46        72.52112
652.89         72.0244
653.32         71.4233
653.74        71.15509
654.17        71.83121
654.60        72.64365
655.03        70.47447
655.46        71.15553
655.88         75.2413
656.31        79.75662
656.74        176.8414
657.16        114.5536
657.59        40.25577
658.02        30.74392
658.45        53.83657
658.87        68.88942
659.30        72.85641
659.73        71.70148
660.15        69.18673
660.58        71.77516
661.01        73.59203
661.44        71.32359
661.86        70.45586
662.29        70.25993
662.72        71.14594
663.14        72.78295
663.57         72.7021
664.00        71.19939
664.42        70.82866
664.85        71.67982
665.27        72.15428
665.70        72.04633
666.13        71.90997
666.55        71.72706
666.98        71.33171
667.41         70.8811
667.83        70.69005
668.26        70.82322
668.69        71.16055
669.11         71.4874
669.54        71.80824
669.96        71.39273
670.39        70.88223
670.82        70.30936
671.24        70.10162
671.67        70.35918
672.09        70.86354
672.52        71.32703
672.94        71.89492
673.37        71.30216
673.80        71.08179
674.22         70.9621
674.65        70.84717
675.07        70.74603
675.50        70.59837
675.92        70.46872
676.35         70.5212
676.77        70.76478
677.20        71.07619
677.62        71.37231
678.05        71.52057
678.47        71.47531
678.90        71.29015
679.32        71.06828
679.75        70.83759
680.17        70.91781
680.60        71.05642
681.02        71.22428
681.45        71.18627
681.87        70.93218
682.30        70.58984
682.72        70.30286
683.15        70.25352
683.57        70.49816
684.00        70.90297
684.42        71.44378
684.85         71.6866
685.27        71.59718
685.70        71.28231
686.12        70.87991
686.54        70.65239
686.97        70.65224
687.39        70.81614
687.82        71.02752
688.24        71.14941
688.66        71.11683
689.09        70.98453
689.51         70.8457
689.94         70.8162
690.36         70.9335
690.78        71.14509
691.21        71.36867
691.63        71.48342
692.06        71.46027
692.48        71.34826
692.90        71.21774
693.33        71.15734
693.75         71.1946
694.17        71.31963
694.60        71.48742
695.02         71.5817
695.44        71.55953
695.87        71.66711
696.29        71.90504
696.71        71.71183
697.14        71.25957
697.56        71.65073
697.98        72.69366
698.41        72.48766
698.83        71.70098
699.25        71.23152
699.68        71.31903
700.10         71.2628
700.52         71.0797
700.94        71.14202
701.37        71.40521
701.79        71.74124
702.21        72.08315
702.64        72.26286
703.06        72.55231
703.48         72.4706
703.90         72.1278
704.33        71.57096
704.75        70.97462
705.17        70.70189
705.59        70.84232
706.01        71.18755
706.44        71.55557
706.86        72.26353
707.28        72.26494
707.70        72.36956
708.12        72.34747
708.55        72.29426
708.97        72.22041
709.39        72.10847
709.81        72.00361
710.23        71.97723
710.66        72.04533
711.08        72.22025
711.50        72.41315
711.92        72.49203
712.34        72.42564
712.76        72.23835
713.19        72.02135
713.61        71.95425
714.03         72.0636
714.45        72.30365
714.87        72.54314
715.29        72.57253
715.71        72.35471
716.13        71.96391
716.56        71.55463
716.98        71.39568
717.40        71.53979
717.82        71.91402
718.24        72.37404
718.66        72.58599
719.08        72.61652
719.50        72.43024
719.92        72.15007
720.34         71.9226
720.76         71.8049
721.19        71.63514
721.61        71.64034
722.03        71.68874
722.45        71.82963
722.87        72.06133
723.29        72.33351
723.71        72.51871
724.13        72.57584
724.55        72.64307
724.97        72.53982
725.39         72.4877
725.81        72.44661
726.23        72.40802
726.65        72.37518
727.07        72.35484
727.49        72.35458
727.91        72.38795
728.33        72.44527
728.75        72.50326
729.17        72.55251
729.59        72.58517
730.01        72.63575
730.43        72.75402
730.85        72.94621
731.27        73.21811
731.69        73.47459
732.10        73.54072
732.52        73.38615
732.94        73.10979
733.36        72.87111
733.78        72.79266
734.20        72.91176
734.62        73.48469
735.04        74.28725
735.46        74.26243
735.88        73.58198
736.30        73.96533
736.72        75.28305
737.13        75.78594
737.55        75.20921
737.97         74.8779
738.39        74.91159
738.81        74.17821
739.23        73.10017
739.65        73.89765
740.06        76.05632
740.48        76.28764
740.90          74.685
741.32        73.98833
741.74        74.44418
742.16        74.67864
742.57        74.73923
742.99        75.39873
743.41        76.46151
743.83         77.1634
744.25         77.3668
744.67        77.26077
745.08        77.03081
745.50        76.97414
745.92        77.19151
746.34        77.57632
746.75        77.99013
747.17        78.20052
747.59        78.17203
748.01        77.98262
748.42        77.81994
748.84        77.96008
749.26        78.46339
749.68        79.20829
750.09        79.98449
750.51        80.46485
750.93          80.564
751.35        80.28959
751.76        79.82761
752.18        79.65833
752.60        79.75729
753.01        79.75679
753.43        79.73372
753.85        79.66161
754.27        80.18335
754.68        81.11506
755.10        81.60321
755.52        81.98961
755.93        82.32904
756.35         82.2747
756.77         82.0741
757.18         82.0146
757.60        82.19709
758.02        82.58583
758.43        82.75397
758.85        82.97776
759.26        81.10143
759.68         80.7322
760.10        81.69512
760.51        82.42495
760.93        82.30822
761.34        81.13715
761.76        80.49046
762.18         79.8804
762.59        79.89879
763.01        80.30817
763.42         81.0669
763.84        81.72055
764.26        82.16103
764.67        82.54237
765.09        82.73954
765.50        82.57227
765.92        82.02971
766.33        80.77219
766.75         79.3263
767.16        78.96122
767.58        79.82195
768.00        81.42594
768.41        83.31718
768.83        84.60572
769.24        84.78215
769.66        83.73806
770.07        82.12094
770.49        80.77729
770.90        80.02769
771.32        80.95678
771.73        82.88991
772.15        82.30478
772.56        79.69144
772.97        79.19793
773.39        80.73881
773.80        81.25915
774.22        80.56252
774.63        80.56344
775.05        81.20157
775.46        81.54812
775.88        81.48884
776.29          81.296
776.70        81.07221
777.12        81.00885
777.53        81.16574
777.95        81.41675
778.36        81.62858
778.77        81.57251
779.19        81.25055
779.60        80.74859
780.02        80.25362
780.43        80.16365
780.84        80.60532
781.26        80.92742
781.67         81.1252
782.09        82.31918
782.50        83.88136
782.91        82.92157
783.33        80.17215
783.74        79.23767
784.15        80.30112
784.57        81.03603
784.98        81.11473
785.39         81.1915
785.81        81.17833
786.22        80.73221
786.63        80.18374
787.04        80.18109
787.46        80.79038
787.87        81.80762
788.28        82.87421
788.70        83.37746
789.11        83.17288
789.52        82.48068
789.93        81.64074
790.35        81.12367
790.76        81.06498
791.17        81.37615
791.58        81.86462
792.00        82.14426
792.41        82.09375
792.82        81.87263
793.23         81.7039
793.65        81.46889
794.06        81.38513
794.47        82.50557
794.88        84.06726
795.29        83.53556
795.71        81.16863
796.12        78.99589
796.53        77.71942
796.94        77.49046
797.35        78.36073
797.76        79.82374
798.18        81.23972
798.59        82.19478
799.00        82.33147
799.41        81.43833
799.82        80.00333
800.23        79.11996
800.64        79.02699
801.06        79.31567
801.47        79.87526
801.88        80.41312
802.29        80.78998
802.70        81.14286
803.11        81.41182
803.52        81.45609
803.93        81.27209
804.34        80.84254
804.75        80.36327
805.17        80.22624
805.58        80.54802
805.99        81.06258
806.40        81.50807
806.81        81.84652
807.22         81.7747
807.63        80.51386
808.04         78.6358
808.45        77.82066
808.86        78.26909
809.27        79.21592
809.68         80.2536
810.09        80.90835
810.50        80.94505
810.91        80.52751
811.32        79.89753
811.73        79.44723
812.14        79.29974
812.55        79.28712
812.96        79.40603
813.37        79.65499
813.78        79.98778
814.19        80.46384
814.60         80.8343
815.01        80.69689
815.42        80.00904
815.83        78.84739
816.24        77.66883
816.65        77.28533
817.05        77.93182
817.46        79.33733
817.87        80.91298
818.28        81.59653
818.69        81.09874
819.10        79.69575
819.51        78.04073
819.92        77.23961
820.33        77.59142
820.74        78.76288
821.14        80.16706
821.55        80.75229
821.96         80.2857
822.37        79.12809
822.78        77.80487
823.19        77.08305
823.60        77.16842
824.00        77.86896
824.41        78.78103
824.82         79.3428
825.23        79.32452
825.64        78.92462
826.04        78.39658
826.45        78.10283
826.86        78.13499
827.27        78.34871
827.68        78.59612
828.08        78.67824
828.49        78.46826
828.90        78.10382
829.31        77.67686
829.72        77.33912
830.12        77.18639
830.53        77.14497
830.94        77.24241
831.35        77.50106
831.75        77.94414
832.16        78.50042
832.57        79.09557
832.97        79.53296
833.38        79.67789
833.79         79.5727
834.20        79.33362
834.60        79.14735
835.01        79.09344
835.42        79.12001
835.82        79.13788
836.23        78.91343
836.64        78.45174
837.04        77.85899
837.45        77.31361
837.86        77.09471
838.26        77.27422
838.67        77.73077
839.08        78.32244
839.48        78.78079
839.89        78.96893
840.29          78.964
840.70        78.82128
841.11        78.61632
841.51        78.39496
841.92        78.10981
842.33        77.81917
842.73        77.63766
843.14        77.55362
843.54         77.5899
843.95        77.62939
844.35        77.53547
844.76        77.26511
845.17        76.88152
845.57        76.47842
845.98        76.20568
846.38        76.10177
846.79        76.09798
847.19        76.17115
847.60        76.19081
848.00        76.15991
848.41        76.09304
848.81        76.03947
849.22         75.9953
849.62        76.01982
850.03        76.11083
850.43        76.31018
850.84        76.60841
851.24        77.02294
851.65        77.34664
852.05        77.71606
852.46         78.1804
852.86        78.72959
853.27        79.39649
853.67        79.65608
854.07        78.82595
854.48        76.96517
854.88        74.33421
855.29        71.88955
855.69        71.02129
856.10        71.99422
856.50        74.62531
856.90        78.00335
857.31        79.99966
857.71        79.90262
858.12        78.25113
858.52        76.06129
858.92        74.68701
859.33        74.43111
859.73        74.92304
860.13        75.88152
860.54        76.72789
860.94        77.26843
861.34        77.66738
861.75        77.96676
862.15        78.29783
862.55        78.65827
862.96        78.94419
863.36        79.14063
863.76        79.22421
864.17        79.20374
864.57        79.17386
864.97        79.19857
865.38        79.35104
865.78        79.69313
866.18        80.11568
866.58        80.61478
866.99        81.17027
867.39        81.80145
867.79        82.53273
868.19        83.09245
868.60        82.98061
869.00         82.1276
869.40        80.68172
869.80        79.35342
870.21        79.24502
870.61        80.67417
871.01        83.31981
871.41        86.30254
871.81        88.10144
872.22        88.28767
872.62        87.28326
873.02        85.89791
873.42        85.55607
873.82        86.43456
874.22        87.86584
874.63         89.3824
875.03        90.00819
875.43        89.30081
875.83        88.37448
876.23        86.50684
876.63         85.7729
877.03        86.24679
877.44        88.15646
877.84        102.5085
878.24        95.48411
878.64        95.33382
879.04        94.27872
879.44        90.47053
879.84        88.51128
880.24        91.75224
880.64        93.77909
881.04        95.15218
881.44        95.84879
881.84        95.12948
882.24        93.36813
882.65        91.68668
883.05        91.25939
883.45        92.29049
883.85         94.6449
884.25        97.41702
884.65        98.79728
885.05        98.26646
885.45        96.47357
885.85        94.45875
886.25        93.64719
886.65        94.32188
887.05        95.97904
887.45        98.03534
887.85        99.43845
888.25        99.79322
888.65        99.50404
889.04        98.76125
889.44        97.89902
889.84        97.08321
890.24        96.14836
890.64        95.40979
891.04        95.38988
891.44         96.1094
891.84         97.4702
892.24         98.8351
892.64        99.01567
893.04        97.83672
893.44        95.82748
893.83        93.77083
894.23        92.79517
894.63        93.11568
895.03        94.28965
895.43        96.10606
895.83          98.133
896.23          100.03
896.63        101.9176
897.02        103.1736
897.42        102.8071
897.82        100.8035
898.22        97.53416
898.62        94.22858
899.01        92.72047
899.41        93.37539
899.81        95.59572
900.21         98.4064
900.61        100.1867
901.00        100.4485
901.40        99.69434
901.80        98.45137
902.20        97.54455
902.59        97.24016
902.99         97.2337
903.39        97.33103
903.79        97.24435
904.18        96.90234
904.58        96.54218
904.98        96.29542
905.38         96.3111
905.77        96.59055
906.17        96.99604
906.57        97.48763
906.96        98.08327
907.36         98.6773
907.76        99.28458
908.15        99.66692
908.55        99.32495
908.95          98.257
909.34        96.58649
909.74        94.89551
910.14        93.92499
910.53        93.89529
910.93        94.68282
911.33        95.88429
911.72        96.74623
912.12        96.95646
912.52        96.69894
912.91        96.37678
913.31        96.52992
913.70        97.29855
914.10        98.53195
914.49        99.77242
914.89        99.81595
915.29        98.35731
915.68        95.90553
916.08        93.61268
916.47        92.49979
916.87        92.67819
917.26        93.79107
917.66        95.16471
918.05        95.74685
918.45        95.23901
918.84        94.03549
919.24        92.72832
919.64        92.13833
920.03        92.50783
920.42        93.55394
920.82        94.91756
921.21        96.15723
921.61        96.89324
922.00         97.2514
922.40        97.24165
922.79         96.8885
923.19        96.30018
923.58        95.44716
923.98        94.33027
924.37        93.21615
924.77        92.48203
925.16        90.49968
925.55        90.70414
925.95        91.16078
926.34        92.86966
926.74        95.32794
927.13        97.79408
927.52        98.79238
927.92        98.12432
928.31        96.26276
928.70        93.89029
929.10        92.18147
929.49        91.45435
929.89        91.37476
930.28        91.93489
930.67        93.12366
931.07        94.66309
931.46        96.62608
931.85        98.28927
932.24        98.55797
932.64        97.29243
933.03        94.67665
933.42        91.42984
933.82        89.23336
934.21        88.59722
934.60        89.08002
934.99        90.03326
935.39        90.75805
935.78        91.12919
936.17        91.18926
936.56        90.63007
936.96        90.80233
937.35        88.98807
937.74        87.77111
938.13        86.93412
938.53        87.20938
938.92        88.58434
939.31        91.02525
939.70        93.88744
940.09        95.25712
940.49        94.43804
940.88        92.16507
941.27        89.67772
941.66        88.48042
942.05         88.7833
942.44        90.05572
942.84        91.80698
943.23        93.27771
943.62        94.03252
944.01        94.30989
944.40        94.13254
944.79        93.49598
945.18        92.43166
945.57        90.82999
945.97        88.90144
946.36        87.39054
946.75        86.74327
947.14        86.83334
947.53        87.34162
947.92        87.87437
948.31        88.34999
948.70        88.89576
949.09        89.44714
949.48        89.80761
949.87        89.88087
950.26        89.63266
950.65        89.26462
951.04        89.14654
951.43         89.3474
951.82        89.76258
952.21        90.14503
952.60        90.09225
952.99        89.50892
953.38        88.53954
953.77        87.44894
954.16        86.58832
954.55        86.07564
954.94        85.90489
955.33        85.84627
955.72        85.51156
956.11        84.83577
956.50        83.88863
956.89        83.22023
957.28        83.79385
957.66        85.83174
958.05          88.766
958.44        91.58665
958.83        92.80745
959.22         92.1257
959.61         89.9461
960.00        87.17039
960.39        85.29648
960.78        84.78638
961.16        85.29916
961.55        86.16754
961.94        86.21298
962.33        85.15511
962.72        83.49539
963.11        81.90217
963.49        81.22736
963.88        81.61127
964.27        82.77722
964.66        84.26796
965.04        85.14163
965.43         84.9285
965.82        84.04051
966.21        82.95876
966.60        82.28529
966.98        82.17636
967.37        82.36882
967.76        82.77373
968.15        83.21666
968.53        83.55668
968.92        83.79148
969.31        83.87248
969.69        83.66739
970.08        83.21032
970.47        82.60109
970.86        81.84969
971.24        81.02441
971.63        80.19057
972.02        79.29128
972.40        78.75362
972.79        79.27499
973.17        81.07307
973.56        83.90004
973.95        86.74419
974.33        87.67749
974.72        86.20193
975.11        83.00757
975.49        79.61349
975.88        78.03191
976.26        78.57603
976.65        80.85204
977.04        83.80146
977.42        84.75498
977.81        82.73633
978.19        78.80183
978.58        75.22675
978.96        74.41962
979.35        76.75066
979.74        81.60944
980.12        87.90437
980.51        91.91543
980.89        92.35139
981.28        90.28638
981.66        87.13924
982.05        84.70289
982.43        83.42164
982.82        82.72665
983.20        82.75219
983.59        83.86249
983.97        86.11526
984.35        89.60144
984.74         93.4402
985.12        95.74522
985.51        95.27185
985.89        92.30988
986.28        87.75574
986.66        83.28999
987.04        80.03295
987.43        77.91489
987.81        76.66447
988.20        75.78117
988.58        74.97139
988.96        74.14873
989.35        73.95158
989.73        76.17619
990.12        80.82237
990.50        86.40368
990.88        89.89172
991.27        89.51056
991.65        85.88718
992.03        79.61868
992.42        72.95567
992.80        70.10921
993.18        72.20429
993.56        76.95564
993.95         82.1464
994.33        85.75278
994.71        87.31018
995.10        87.85726
995.48        87.37177
995.86        85.56345
996.24        82.50552
996.63        77.81918
997.01         72.8014
997.39        71.30213
997.77        74.88223
998.15        82.61518
998.54          90.887
998.92        94.81631
999.30         92.9759
999.68        86.54175
1000.06        77.33514
1000.45        70.05995
1000.83        66.89339
1001.21        66.50567
1001.59        67.83974
1001.97        69.69809
1002.35        71.66459
1002.73        74.59467
1003.12          77.622
1003.50        77.91159
1003.88         74.3674
1004.26        68.37198
1004.64         62.7996
1005.02        60.13539
1005.40        60.60379
1005.78        64.22184
1006.16        71.60376
1006.54        79.53328
1006.92        83.17844
1007.30        83.09812
1007.69        82.02731
1008.07        82.35323
1008.45         84.7026
1008.83        89.99965
1009.21        100.3978
1009.59        112.8481
1009.97        99.89636
1010.35        21.68559
1010.73       -24.32339
1011.11       -2.383026
1011.49         28.2257
1011.86        53.94181
1012.24        69.74062
1012.62        76.70055
1013.00        78.18537
1013.38        76.45715
1013.76        73.68083
1014.14        76.56149
1014.52        90.55784
1014.90        115.8776
1015.28        146.6265
1015.66         166.209
1016.04        163.0206
1016.41        139.0027
1016.79        104.8508
1017.17        74.86631
1017.55        56.14071
1017.93        45.12426
1018.31        40.30489
1018.69        41.52634
1019.06         47.9965
1019.44        60.37246
1019.82         80.8928
1020.20         106.408
1020.58        131.1928
1020.95        151.2899
1021.33        161.1677
1021.71       -34.37111
1022.09        109.8721
1022.46        116.9387
1022.84         119.232
1023.22        121.5974
1023.60        126.5943
1023.97        163.7784
1024.35        107.2294
1024.73         121.167
