SpectraSmart Spectrum 2.9.0.0
--------- Device Information -----------
Spectrum Name :  反射率_0
Saving Time :  2024/04/26 01:06:48
Spectro-Module Model Name : SE2030-DUVN
Spectro-Module Serial Number : OS361AC55029948
Wavelength Start : 200
Wavelength End : 1025
Wavelength Unit : Wavelength(nm)
Spectrum Unit : Reflectance(%)
-----------Spectrum Setting ------------
Integration Time : 20ms
Average : 10
Boxcar : 0
Background removal :  enabled
linearity correction :  enabled
SC :  disabled
Intensity correction :  disabled
DWT denoise :  enabled
savitzky-golay :  disabled
FFT :  disabled
Running average :  disabled
Kalman :  disabled
High pass :  disabled
---------------BEGIN--------------------
Wavelength(nm)             Reflectance(%)
200.29               0
200.75        100.6963
201.21        91.13115
201.67        80.12682
202.13        73.69377
202.58        72.52619
203.04        75.33591
203.50        79.55816
203.96        80.81508
204.42        78.35805
204.88        74.14555
205.34        70.31284
205.80        68.83538
206.26         70.3002
206.72        75.78487
207.18         87.6641
207.64        98.70504
208.10        92.51141
208.55         78.6411
209.01        70.08505
209.47        68.12136
209.93        70.30102
210.39        75.49377
210.85        81.29066
211.31        82.41695
211.77          77.343
212.23        68.08205
212.69        59.37349
213.14        58.51494
213.60        66.49474
214.06          81.048
214.52        96.59211
214.98        104.6382
215.44        103.2426
215.90        95.35617
216.36        85.20655
216.81        78.67747
217.27        77.36349
217.73        79.17416
218.19        81.24181
218.65        79.78933
219.11        73.48932
219.57         61.9342
220.02        46.91528
220.48        38.25271
220.94        41.43944
221.40        53.36463
221.86         64.8375
222.32        66.41197
222.77        59.10041
223.23         48.3745
223.69         38.8367
224.15        35.06193
224.61        36.67019
225.06        41.23601
225.52        46.25474
225.98        48.87772
226.44        48.42662
226.90        46.24231
227.36        43.28122
227.81        40.64235
228.27        39.05988
228.73        38.01265
229.19        37.71973
229.65        38.56508
230.10        40.26797
230.56        42.39629
231.02        44.42366
231.48        45.73643
231.93        46.26051
232.39        46.26044
232.85        45.76282
233.31        44.83642
233.77        43.57457
234.22        41.94001
234.68        40.30895
235.14        39.39827
235.60         39.4644
236.05        40.39992
236.51         41.7361
236.97        42.72432
237.43        43.22832
237.88        43.48817
238.34        43.79816
238.80        44.97588
239.26        47.30741
239.71        50.54346
240.17        53.98093
240.63        56.97503
241.08        59.33445
241.54        61.07494
242.00        62.63061
242.46        64.93323
242.91        69.29462
243.37        78.43178
243.83        104.0542
244.28        179.7738
244.74        252.8107
245.20        196.0349
245.66        151.8639
246.11        139.6519
246.57        144.8277
247.03        172.8787
247.48        256.9273
247.94        206.6122
248.40        114.6601
248.85        87.75739
249.31         80.3699
249.77        80.37386
250.22        84.74669
250.68        93.69212
251.14         107.472
251.59         118.753
252.05        118.8114
252.51        110.1588
252.96        98.79222
253.42        91.33066
253.88        87.68292
254.33        85.53114
254.79        85.42921
255.25        87.61675
255.70        91.07814
256.16        95.46579
256.62        98.31792
257.07        97.09579
257.53        92.73026
257.99        86.10155
258.44        79.47855
258.90        76.45126
259.35        76.02225
259.81        76.83106
260.27        76.55714
260.72        72.98016
261.18        67.04855
261.63         59.8581
262.09        53.41722
262.55         49.3423
263.00        47.51075
263.46        47.11024
263.91        46.94097
264.37        46.03603
264.83        44.18415
265.28        41.66248
265.74        39.15167
266.19        37.43404
266.65        36.77217
267.11        36.73913
267.56        36.73918
268.02        36.06388
268.47        34.58488
268.93        32.56163
269.38        30.39726
269.84         29.0169
270.30        28.66755
270.75        29.07038
271.21        29.71888
271.66        29.86052
272.12        29.29135
272.57         28.2486
273.03        27.09943
273.48        26.31134
273.94         26.0286
274.39        26.05023
274.85        26.13504
275.31        25.93662
275.76        25.37554
276.22        24.60429
276.67        23.82102
277.13        23.38759
277.58        23.30473
278.04         23.4569
278.49        23.57069
278.95        23.32159
279.40         22.6457
279.86         21.7353
280.31        20.77467
280.77        20.14036
281.22          19.874
281.68        19.86604
282.13        19.98158
282.59        20.05857
283.04        20.04019
283.50        20.01094
283.95        19.94755
284.41        19.82365
284.86        19.64495
285.32        19.41987
285.77        19.24787
286.22        19.34468
286.68        19.70641
287.13        20.23519
287.59        20.73552
288.04        20.90996
288.50        20.72802
288.95        20.28087
289.41        19.75544
289.86        19.33247
290.32        19.12738
290.77        19.07712
291.22        19.18612
291.68         19.4205
292.13        19.77124
292.59        20.26157
293.04         20.8848
293.50        21.62007
293.95        22.43902
294.40        23.30731
294.86        24.20033
295.31        25.10053
295.77        26.01356
296.22        26.95598
296.68        27.92043
297.13        28.86171
297.58        29.79641
298.04        30.75445
298.49        31.82706
298.95        33.20113
299.40        34.89245
299.85        36.83799
300.31        38.87383
300.76        40.73464
301.21        42.32277
301.67        43.73332
302.12        45.02493
302.58        46.38636
303.03        47.84563
303.48        49.37182
303.94        51.00546
304.39        52.75055
304.84         54.6077
305.30        56.57761
305.75        58.52352
306.20        60.25434
306.66         61.7508
307.11        63.01171
307.57        64.21221
308.02         65.5092
308.47        66.99261
308.93         68.6166
309.38        70.25362
309.83        71.75259
310.29        73.05608
310.74        74.17106
311.19        75.19181
311.65        76.26471
312.10        77.41063
312.55        78.60241
313.00        79.68476
313.46        80.41096
313.91        80.73088
314.36        80.75597
314.82        80.75762
315.27        81.09898
315.72        81.89356
316.18        83.02782
316.63         84.2923
317.08        85.29366
317.53        85.90501
317.99        86.21832
318.44        86.41814
318.89        86.81647
319.35        87.46716
319.80        88.28807
320.25        89.05224
320.70        89.39697
321.16        89.25197
321.61        88.76167
322.06        88.18333
322.51        87.90946
322.97        88.02648
323.42        88.46291
323.87        89.04571
324.32        89.47398
324.78        89.64376
325.23        89.67914
325.68        89.67662
326.13        89.82199
326.59        90.13976
327.04        90.57987
327.49        91.05846
327.94        91.47916
328.39        91.80403
328.85         92.0522
329.30        92.27886
329.75          92.414
330.20        92.48505
330.66        92.50469
331.11        92.63428
331.56        93.05412
332.01        93.81274
332.46        94.83949
332.92        95.98334
333.37        97.14513
333.82        98.15427
334.27         99.0365
334.72        99.69701
335.17         100.009
335.63        99.98573
336.08        99.71767
336.53         99.4343
336.98        99.55251
337.43        100.1729
337.88        101.1808
338.34         102.373
338.79         103.493
339.24        104.3864
339.69        105.1393
340.14        105.7023
340.59        105.9993
341.05        106.0588
341.50        105.8856
341.95        105.6908
342.40        105.8203
342.85        106.3484
343.30        107.2002
343.75        108.1624
344.20        108.8378
344.66        109.1164
345.11        109.0856
345.56        108.9217
346.01        108.8966
346.46        109.0903
346.91        109.4224
347.36        109.7841
347.81        110.0162
348.26         110.087
348.72        110.0729
349.17         110.063
349.62        110.2407
350.07        110.6298
350.52        111.1466
350.97         111.647
351.42        111.9242
351.87        111.9315
352.32        111.7375
352.77        111.4377
353.22        111.1851
353.67        111.0287
354.13        110.9349
354.58         110.839
355.03        110.7012
355.48        110.4975
355.93        110.2452
356.38        109.9413
356.83        109.5744
357.28        109.1444
357.73         108.654
358.18        108.1079
358.63        107.5166
359.08        106.8985
359.53        106.2722
359.98        105.6586
360.43         105.085
360.88        104.5492
361.33        104.0242
361.78         103.518
362.23        103.0434
362.68        102.5958
363.13        102.1853
363.58        101.7209
364.03        101.0575
364.48        100.1845
364.93         99.1452
365.38        98.12216
365.83        97.41435
366.28         97.0711
366.73        96.98418
367.18        96.94122
367.63        96.59335
368.08        95.86156
368.53        94.88729
368.98        93.81044
369.43         92.8332
369.88        92.03075
370.33        91.33882
370.78        90.78416
371.23         90.4194
371.68        90.22843
372.13        90.19324
372.58        90.20264
373.03        90.05547
373.48        89.70272
373.93        89.20707
374.38        88.63483
374.83        88.09695
375.28        87.63029
375.72        87.17809
376.17         86.7961
376.62        86.55331
377.07        86.43484
377.52        86.40617
377.97        86.32601
378.42        85.96471
378.87        85.29965
379.32         84.4427
379.77        83.53072
380.22         82.7546
380.67         82.1611
381.11        81.68315
381.56        81.32185
382.01        81.08396
382.46        80.95436
382.91        80.95251
383.36        80.94041
383.81        80.69654
384.26         80.1865
384.71        79.45227
385.15        78.69819
385.60        78.31136
386.05         78.3026
386.50        78.55645
386.95        78.78857
387.40        78.52653
387.85        77.72769
388.29        76.58818
388.74        75.52299
389.19        74.81077
389.64        74.49023
390.09         74.4001
390.54        74.48296
390.98        74.64404
391.43         74.8147
391.88         75.0154
392.33        75.08694
392.78        74.73997
393.23        73.99589
393.67        73.03459
394.12         72.2402
394.57        71.52676
395.02         71.5894
395.47        71.86851
395.91        72.42183
396.36        72.84821
396.81        73.03418
397.26        73.04819
397.71         72.9061
398.15        72.54723
398.60        72.08978
399.05        71.65898
399.50        71.26105
399.95        70.51135
400.39        69.86182
400.84        69.51795
401.29        69.55779
401.74        69.74598
402.18        69.94157
402.63        69.78607
403.08        69.45559
403.53        69.58578
403.97        70.19992
404.42        70.90656
404.87        71.41583
405.32        71.38767
405.76        70.73341
406.21        69.71243
406.66        68.67136
407.11        67.93774
407.55        67.72066
408.00        68.27581
408.45        69.29289
408.90         69.7214
409.34        69.34028
409.79        68.64964
410.24        67.94507
410.68        67.50282
411.13        67.43295
411.58        67.60457
412.03        67.93181
412.47        68.29278
412.92        68.56642
413.37        68.82069
413.81        68.98775
414.26        69.00234
414.71        68.84598
415.15        68.51559
415.60        68.12695
416.05        67.89924
416.49        67.89178
416.94        68.07055
417.39        68.27362
417.83        68.20734
418.28        67.82837
418.73        67.23687
419.17        66.68533
419.62        66.57753
420.07        66.95451
420.51        67.68073
420.96        68.45975
421.41         68.7869
421.85        68.51975
422.30        67.95045
422.74        67.28086
423.19        66.82359
423.64        66.67301
424.08        66.95764
424.53        67.50378
424.98        67.89037
425.42        68.02973
425.87        68.12934
426.31        68.24902
426.76        68.33173
427.21        68.46174
427.65        68.74213
428.10        69.13207
428.54        69.72108
428.99        70.46576
429.44        70.83263
429.88        70.81269
430.33        71.55384
430.77         72.4234
431.22        71.25504
431.66        68.63972
432.11        67.24659
432.56        67.40653
433.00        68.22915
433.45        69.49461
433.89        71.37558
434.34        72.48993
434.78        73.48741
435.23        69.29633
435.67        68.02631
436.12        70.05083
436.57        71.36934
437.01        71.99677
437.46        72.39892
437.90         72.7477
438.35         72.1231
438.79        72.80573
439.24        72.66187
439.68        72.40971
440.13        71.94883
440.57        71.65862
441.02        72.55001
441.46        74.21082
441.91         75.2154
442.35         75.2332
442.80        74.41684
443.24        73.24343
443.69        73.73327
444.13        75.45895
444.58        75.76089
445.02         73.7386
445.47        73.52116
445.91        74.68639
446.36        75.05917
446.80         74.5584
447.24        74.37606
447.69        74.58089
448.13         74.7074
448.58        74.80145
449.02        75.07494
449.47        75.47668
449.91        75.79167
450.36         75.9899
450.80        76.15662
451.25        76.26324
451.69        76.19412
452.13        75.97276
452.58        75.64167
453.02        75.31924
453.47        75.23207
453.91        75.39263
454.36        75.74499
454.80        76.15949
455.24        76.20302
455.69        75.79414
456.13        75.43659
456.58         75.3486
457.02        74.23347
457.46        74.00488
457.91        74.48868
458.35        75.26376
458.79        75.64918
459.24        75.39423
459.68         75.0264
460.13        74.64249
460.57        74.31258
461.01         73.9586
461.46        73.58431
461.90        73.11707
462.34        73.47536
462.79        73.19677
463.23        73.48212
463.68        73.80521
464.12        74.20158
464.56        74.55014
465.01        74.52576
465.45        74.08405
465.89        74.07393
466.34        74.28469
466.78        73.04785
467.22        71.04264
467.67        70.73611
468.11        72.44482
468.55        73.29057
468.99        73.02293
469.44        72.55477
469.88        72.10876
470.32        72.08607
470.77        72.40224
471.21        72.30489
471.65        71.76286
472.10        71.41175
472.54        71.35715
472.98        71.39853
473.42        71.51949
473.87        71.98972
474.31        72.54627
474.75         72.3468
475.20        71.57315
475.64        71.32964
476.08        71.68461
476.52        71.65772
476.97        71.18394
477.41        71.29661
477.85        72.12746
478.29        71.18111
478.74        71.81925
479.18        72.51762
479.62        70.85323
480.06        71.48451
480.50        71.83556
480.95        72.33181
481.39        72.47374
481.83        71.24277
482.27        71.26476
482.72        71.20275
483.16        69.48681
483.60        69.73483
484.04        71.24869
484.48         71.6891
484.93        71.46476
485.37        73.20269
485.81        74.06507
486.25        72.81528
486.69        99.00835
487.14        80.67246
487.58        49.45662
488.02        60.61861
488.46         69.3174
488.90        68.84356
489.34        70.14249
489.79        69.11364
490.23        71.25675
490.67        72.15118
491.11        71.15636
491.55        71.00346
491.99         71.2923
492.43        71.02649
492.88        70.32484
493.32        70.33772
493.76        70.55112
494.20        70.84616
494.64        70.95477
495.08         71.2009
495.52        71.56258
495.96        71.37093
496.41        70.72881
496.85        71.19006
497.29        72.40276
497.73        71.31592
498.17        68.94946
498.61        69.05754
499.05        71.63675
499.49        72.12732
499.93        72.03123
500.37        71.58791
500.82        70.82465
501.26        70.85795
501.70        71.35081
502.14        71.97282
502.58        71.75927
503.02        71.26589
503.46        71.50652
503.90        71.09509
504.34        70.55302
504.78        70.26992
505.22        70.30142
505.66        70.57312
506.10        70.97388
506.54        71.01401
506.98        70.55572
507.42        70.67589
507.86        70.47961
508.30        69.54538
508.74         70.2613
509.18        70.43977
509.62        70.72921
510.06        70.85615
510.50        70.79436
510.94        70.57785
511.38         70.3063
511.82        70.20201
512.26         70.3082
512.70        70.55813
513.14        70.84886
513.58        71.01619
514.02        71.00747
514.46        70.86799
514.90        70.68498
515.34        70.57681
515.78        70.56696
516.22        70.68354
516.66        70.84704
517.10        70.76292
517.54        70.40585
517.98        70.43452
518.42        70.10421
518.86        70.18522
519.30         70.4431
519.74        70.88466
520.18        71.36488
520.62        71.64548
521.06        71.67477
521.50        71.51871
521.93        71.27081
522.37        71.08539
522.81         71.0202
523.25         71.0297
523.69        71.08856
524.13        71.15923
524.57        71.22452
525.01        71.30193
525.45        71.38178
525.89        71.44149
526.32        71.46618
526.76        71.45166
527.20        71.39995
527.64        71.33933
528.08        71.29414
528.52        71.20267
528.96        71.03772
529.40        70.95472
529.83        70.99656
530.27        70.40656
530.71        70.60711
531.15        70.52725
531.59        70.59117
532.03        70.73184
532.46         70.9633
532.90        71.27294
533.34        71.61461
533.78        71.97615
534.22         72.2506
534.66        72.29095
535.09        72.07043
535.53        71.66418
535.97        71.18883
536.41        70.85381
536.85        70.72355
537.28        70.75371
537.72        70.86171
538.16        70.91935
538.60        70.88999
539.04        70.76173
539.47        70.59466
539.91        70.66605
540.35        70.91188
540.79        70.99361
541.22        70.89329
541.66        70.87715
542.10        70.93534
542.54         70.9011
542.97        70.80173
543.41        70.79049
543.85        70.87058
544.29        71.01889
544.72        71.14001
545.16        71.11852
545.60        70.92647
546.04        70.59399
546.47        70.27039
546.91        70.22314
547.35        70.48089
547.79        70.94855
548.22        71.38894
548.66         71.4872
549.10        71.15821
549.53        70.42761
549.97        69.62038
550.41        69.25386
550.84        69.42374
551.28        69.95733
551.72        70.63591
552.15        71.01497
552.59         70.9471
553.03        70.94497
553.46         70.5609
553.90        70.34426
554.34        70.14806
554.77        70.55988
555.21         70.2854
555.65        70.42329
556.08        70.70576
556.52        70.19726
556.96        70.55564
557.39        70.44312
557.83        70.39128
558.27        70.33704
558.70        70.32177
559.14         70.4134
559.57        70.58338
560.01        70.76103
560.45        70.90164
560.88        71.06034
561.32        71.16942
561.75        70.96797
562.19        70.57565
562.63         70.1467
563.06        69.82516
563.50        69.93922
563.93        70.35248
564.37        70.52496
564.80        70.38185
565.24        70.26888
565.68         70.2128
566.11        70.12067
566.55        70.05457
566.98        70.02386
567.42        70.05316
567.85        70.17667
568.29        70.42816
568.72        70.58662
569.16        70.80162
569.60        71.32547
570.03        71.78957
570.47        71.85809
570.90        71.66592
571.34        69.76895
571.77        70.73328
572.21        70.71407
572.64        70.56095
573.08        69.46598
573.51        66.32867
573.95        68.92819
574.38        73.56274
574.82        71.39143
575.25        71.04942
575.69        68.74214
576.12        67.72289
576.56        66.62013
576.99        68.12202
577.42        71.52664
577.86        71.74969
578.29        70.93414
578.73        75.11205
579.16        68.92432
579.60        62.79039
580.03        65.49102
580.47        69.87858
580.90        71.36705
581.33        70.64972
581.77        69.29975
582.20        76.51897
582.64        76.46262
583.07        65.11432
583.51        63.79169
583.94        62.42938
584.37        65.15482
584.81        68.48704
585.24        72.26296
585.68        74.10459
586.11        72.80968
586.54        67.76567
586.98        65.55087
587.41         65.9829
587.85        69.63282
588.28        72.23421
588.71         69.0361
589.15         66.5722
589.58        67.81751
590.01        67.98013
590.45        69.18037
590.88        69.67817
591.31        68.94916
591.75        68.45435
592.18        68.61317
592.61        70.40609
593.05        70.55698
593.48         74.0049
593.91        74.59136
594.35        68.47453
594.78        66.89797
595.21          66.316
595.65        69.42927
596.08        72.54306
596.51        69.35895
596.94        67.43246
597.38        67.93485
597.81        70.69596
598.24        72.42863
598.68        70.50623
599.11        69.81204
599.54        72.60081
599.97        74.14909
600.41        68.99986
600.84         69.1386
601.27        70.63364
601.70        69.62179
602.14        69.63364
602.57         68.4882
603.00        68.80106
603.43         70.5626
603.87        72.27104
604.30        71.82613
604.73         69.5481
605.16        68.02417
605.60        69.17942
606.03        70.23516
606.46         70.9989
606.89        70.64535
607.32        68.76051
607.76        68.21466
608.19        70.70535
608.62        69.90813
609.05        68.51942
609.48         69.1609
609.92        69.40312
610.35        68.68475
610.78        70.86115
611.21        71.77779
611.64        68.35591
612.07        69.06387
612.50        69.42042
612.94        69.81135
613.37        69.17392
613.80        69.44241
614.23        69.83457
614.66         69.8154
615.09        70.10463
615.52        70.09959
615.96        69.94743
616.39        69.97186
616.82        68.99374
617.25         68.9157
617.68         69.5035
618.11        70.13815
618.54        70.25432
618.97        69.72771
619.40        68.82593
619.84        68.88084
620.27         69.8051
620.70        70.42928
621.13        70.56104
621.56        69.97766
621.99        69.00209
622.42        69.74514
622.85        71.67795
623.28        71.24625
623.71        70.67224
624.14        70.46902
624.57        70.73938
625.00        69.92105
625.43        70.45924
625.86        69.72634
626.29        69.83654
626.72        70.13807
627.15        69.86301
627.58        69.97272
628.01        70.06546
628.44        70.13242
628.87         70.2221
629.30        70.32539
629.73        70.63004
630.16        71.03702
630.59        70.50143
631.02        70.14919
631.45        69.78194
631.88        69.53918
632.31        69.46159
632.74        69.53142
633.17         69.6937
633.60        69.81924
634.03        69.86891
634.46        69.88046
634.89        69.86411
635.32        69.83755
635.75        69.81161
636.18        69.76817
636.61        69.72913
637.04        69.73868
637.47        69.80064
637.89        69.91837
638.32        70.02856
638.75        70.06183
639.18        69.99965
639.61        69.89993
640.04        69.74367
640.47        69.64038
640.90        69.59522
641.33        69.58686
641.76        69.57838
642.18        69.61119
642.61        69.67449
643.04        69.60271
643.47         69.3653
643.90        69.81343
644.33        69.51078
644.76        69.61622
645.18        69.67635
645.61        69.67523
646.04        69.59229
646.47        69.42374
646.90        69.27692
647.33         69.2967
647.75        69.53434
648.18        69.92458
648.61        70.24005
649.04        70.32864
649.47        70.07813
649.89        68.99732
650.32         67.6565
650.75        67.63988
651.18        68.83747
651.61        69.71794
652.03        69.89039
652.46        69.76498
652.89         69.6837
653.32        69.14115
653.74        68.53476
654.17        69.57114
654.60        70.29523
655.03        67.78531
655.46         69.4389
655.88        73.42245
656.31        78.54565
656.74        179.4883
657.16        116.9251
657.59        40.93389
658.02        30.46782
658.45        52.40952
658.87        66.77717
659.30        70.55154
659.73        69.20286
660.15        66.73049
660.58        69.25085
661.01        70.94891
661.44        68.63562
661.86        67.86983
662.29        67.88119
662.72         68.6909
663.14        70.01669
663.57         69.9244
664.00         68.6967
664.42        68.44758
664.85        69.25249
665.27        69.74787
665.70        69.70461
666.13        69.53502
666.55        69.22003
666.98        68.63597
667.41        68.00697
667.83        67.75816
668.26        67.97765
668.69        68.50564
669.11        69.06845
669.54        69.56326
669.96        69.24349
670.39        68.75613
670.82        68.15549
671.24         67.8892
671.67        68.07132
672.09        68.49991
672.52        68.89926
672.94        69.36869
673.37        68.71437
673.80        68.52786
674.22        68.52487
674.65        68.47483
675.07        68.37051
675.50        68.22073
675.92        68.10344
676.35        68.17536
676.77        68.44791
677.20        68.79762
677.62        69.12662
678.05        69.27922
678.47        69.20916
678.90        68.98444
679.32        68.71959
679.75        68.46854
680.17        68.54623
680.60        68.68192
681.02        68.85941
681.45        68.88865
681.87        68.73943
682.30        68.50005
682.72         68.2733
683.15        68.15939
683.57        68.24656
684.00        68.55621
684.42        69.10426
684.85        69.35249
685.27        69.27448
685.70        69.05584
686.12        68.78498
686.54        68.59847
686.97        68.53262
687.39        68.56265
687.82        68.61743
688.24        68.63532
688.66        68.57589
689.09        68.46855
689.51        68.37753
689.94        68.37395
690.36        68.48063
690.78        68.66411
691.21        68.85262
691.63        68.93974
692.06        68.90467
692.48        68.78906
692.90        68.67004
693.33        68.65432
693.75        68.76999
694.17        68.98771
694.60        69.24458
695.02        69.42777
695.44        69.46928
695.87        69.53889
696.29        69.65921
696.71        69.42952
697.14        69.04568
697.56        69.47003
697.98         70.3967
698.41        70.45087
698.83         69.4287
699.25        68.88469
699.68        68.86275
700.10        68.78983
700.52        68.69259
700.94        68.93063
701.37        69.39654
701.79        69.78299
702.21        69.98325
702.64        70.08421
703.06        70.07401
703.48         69.9278
703.90        69.67607
704.33        69.33015
704.75         68.9601
705.17        68.76859
705.59        68.80896
706.01        68.92133
706.44        69.02843
706.86        69.59229
707.28        69.64413
707.70        69.92807
708.12        70.12186
708.55        70.12947
708.97        69.94572
709.39        69.68927
709.81        69.46139
710.23        69.34004
710.66        69.36895
711.08          69.591
711.50        69.85883
711.92        69.92095
712.34        69.72973
712.76        69.35165
713.19        68.96348
713.61        68.87933
714.03        69.15093
714.45        69.67709
714.87         70.2274
715.29        70.44016
715.71        70.23531
716.13        69.72971
716.56         69.1389
716.98        68.83991
717.40         68.9258
717.82        69.28323
718.24        69.73872
718.66        69.99945
719.08         69.9798
719.50        69.77515
719.92        69.49526
720.34        69.32883
720.76        69.33235
721.19        69.32618
721.61           69.48
722.03        69.58669
722.45        69.67908
722.87        69.77615
723.29         69.8727
723.71        69.94685
724.13        69.99291
724.55        70.00758
724.97        70.00616
725.39        70.02276
725.81        70.06335
726.23        70.11826
726.65        70.17088
727.07        70.19104
727.49         70.1773
727.91        70.15083
728.33        70.12241
728.75        70.11005
729.17        70.11871
729.59         70.1319
730.01        70.17772
730.43        70.29138
730.85        70.47669
731.27        70.75187
731.69        71.01807
732.10        71.09364
732.52        70.94751
732.94        70.66749
733.36        70.43098
733.78        70.41781
734.20        70.67261
734.62        71.38818
735.04        72.26787
735.46        72.38744
735.88        71.51585
736.30         71.6625
736.72        72.68386
737.13        73.01309
737.55        72.43901
737.97        72.36726
738.39        72.77434
738.81        71.98313
739.23         70.4921
739.65        71.23436
740.06        73.68279
740.48        73.96207
740.90        72.14023
741.32        71.26178
741.74        71.62077
742.16         71.8059
742.57        71.87782
742.99        72.61308
743.41        73.74929
743.83        74.42135
744.25          74.472
744.67         74.1143
745.08        73.62617
745.50        73.46605
745.92        73.76677
746.34        74.36492
746.75        75.02838
747.17          75.375
747.59        75.33092
748.01        75.02628
748.42         74.7004
748.84         74.7342
749.26        75.22532
749.68        75.95936
750.09         76.7342
750.51        77.38167
750.93        77.73482
751.35        77.47781
751.76        76.82149
752.18        76.58102
752.60         76.7562
753.01        76.73535
753.43        76.54561
753.85        76.57848
754.27        76.82668
754.68          77.643
755.10         77.9294
755.52        78.37798
755.93        78.63647
756.35        78.73251
756.77        78.77674
757.18        78.79441
757.60        78.82114
758.02        79.23161
758.43        79.75318
758.85        79.11234
759.26         77.7799
759.68        77.58505
760.10        79.02769
760.51        79.48546
760.93        78.91817
761.34        78.06622
761.76        77.94189
762.18        77.40093
762.59        76.90356
763.01        77.04323
763.42        77.83662
763.84         78.4211
764.26        78.70152
764.67         79.0349
765.09         79.2853
765.50        79.19115
765.92        78.71225
766.33        77.47702
766.75        75.99041
767.16        75.55498
767.58        76.30614
768.00        77.69839
768.41        79.38256
768.83        80.62231
769.24        80.93411
769.66        80.42478
770.07        79.45116
770.49        77.89606
770.90        76.31153
771.32        77.08157
771.73        79.53564
772.15        79.14529
772.56        76.35265
772.97         75.7809
773.39        77.33755
773.80        78.07456
774.22        77.24663
774.63         77.2169
775.05        77.77541
775.46        78.05583
775.88        77.95435
776.29        77.72261
776.70        77.46217
777.12        77.35648
777.53        77.46638
777.95        77.67414
778.36        77.85783
778.77        77.80701
779.19        77.51637
779.60         77.0615
780.02        76.61998
780.43        76.52802
780.84        76.89733
781.26        77.24942
781.67        77.55683
782.09         78.5298
782.50        79.71458
782.91        79.06569
783.33        77.14487
783.74        76.58455
784.15        77.50278
784.57        78.10496
784.98        78.12331
785.39        78.06567
785.81        77.87745
786.22        77.27322
786.63        76.59359
787.04        76.48954
787.46         77.0296
787.87        78.00847
788.28        79.07049
788.70        79.60635
789.11        79.46185
789.52         78.8447
789.93        78.06673
790.35        77.56194
790.76        77.46023
791.17        77.68456
791.58        78.06924
792.00        78.27754
792.41        78.20834
792.82          78.015
793.23        77.91383
793.65        77.77997
794.06        77.81779
794.47        79.05102
794.88         80.7149
795.29        80.30875
795.71        78.06632
796.12         75.9437
796.53        74.62661
796.94        74.32108
797.35        75.07002
797.76        76.28069
798.18        77.38057
798.59        78.14655
799.00        78.26016
799.41        77.43916
799.82        76.12289
800.23        75.33935
800.64        75.29654
801.06        75.60527
801.47        76.13914
801.88        76.58555
802.29        76.81371
802.70        76.96991
803.11        77.05004
803.52        77.00956
803.93        76.87356
804.34        76.60354
804.75         76.3491
805.17        76.43607
805.58        76.94882
805.99        77.58537
806.40        78.09343
806.81         78.5638
807.22        78.64668
807.63        77.31398
808.04        75.18547
808.45         74.2286
808.86        74.66991
809.27        75.59608
809.68        76.60178
810.09        77.28244
810.50        77.39812
810.91        77.09229
811.32        76.55917
811.73        76.11474
812.14        75.86312
812.55        75.65262
812.96         75.5341
813.37        75.60864
813.78        75.87208
814.19        76.36967
814.60        76.80346
815.01        76.69216
815.42        75.97169
815.83        74.73251
816.24        73.49082
816.65         73.1566
817.05        73.98252
817.46        75.67483
817.87         77.5297
818.28        78.29845
818.69        77.65424
819.10        75.92567
819.51        73.92882
819.92        73.04553
820.33         73.6335
820.74        75.26048
821.14        77.16811
821.55        78.01819
821.96        77.49794
822.37        76.07582
822.78        74.37193
823.19        73.29133
823.60        73.09403
824.00        73.53416
824.41           74.27
824.82         74.8427
825.23         75.0379
825.64         75.0427
826.04        74.95445
826.45        74.88927
826.86        74.88718
827.27        74.84196
827.68         74.7746
828.08        74.79021
828.49        74.84055
828.90         74.9759
829.31        75.06417
829.72         74.8532
830.12        74.33778
830.53        73.59867
830.94        72.92329
831.35        72.68953
831.75        73.00471
832.16        73.70443
832.57        74.58481
832.97        75.20355
833.38        75.34534
833.79        75.13938
834.20        74.79535
834.60        74.63615
835.01        74.77039
835.42        75.07375
835.82        75.40232
836.23        75.44472
836.64        75.16591
837.04         74.7006
837.45        74.21102
837.86         73.9524
838.26        73.99793
838.67        74.21678
839.08        74.54703
839.48         74.8646
839.89        75.07497
840.29        75.24307
840.70        75.28368
841.11        75.04695
841.51        74.54961
841.92        73.81423
842.33        73.10831
842.73        72.88886
843.14        73.21162
843.54        73.97745
843.95        74.82039
844.35        75.18373
844.76        74.90936
845.17        74.19438
845.57        73.32738
845.98        72.75566
846.38         72.6047
846.79        72.71024
847.19        72.97878
847.60        73.16481
848.00         73.2132
848.41        73.18402
848.81        73.12207
849.22        73.00159
849.62        72.88514
850.03        72.77189
850.43        72.73177
850.84        72.82932
851.24        73.11922
851.65        73.40818
852.05        73.82958
852.46        74.42068
852.86        75.14671
853.27        76.00701
853.67        76.48055
854.07        75.89386
854.48        74.28301
854.88        71.89896
855.29        69.59519
855.69        68.60747
856.10        69.17904
856.50        71.15051
856.90        73.79245
857.31        75.39605
857.71        75.40627
858.12        74.24493
858.52        72.67678
858.92        71.71252
859.33        71.58162
859.73          71.995
860.13        72.76385
860.54        73.50014
860.94        74.08272
861.34        74.61585
861.75        75.05973
862.15        75.42866
862.55        75.69218
862.96        75.79241
863.36        75.81023
863.76        75.87534
864.17        76.02638
864.57        76.30107
864.97        76.62978
865.38        76.88728
865.78        77.09158
866.18        77.18596
866.58        77.28768
866.99        77.58775
867.39        78.16119
867.79        78.97511
868.19        79.64601
868.60        79.47064
869.00        78.31737
869.40        76.42094
869.80        74.60487
870.21        74.13982
870.61        75.39938
871.01         78.0183
871.41        81.08614
871.81        83.02557
872.22        83.38295
872.62        82.58904
873.02         81.4178
873.42        81.29005
873.82        82.32874
874.22        83.74269
874.63        85.15125
875.03         85.7731
875.43        85.20594
875.83        84.68269
876.23        82.82033
876.63        81.90916
877.03        81.87498
877.44        82.91118
877.84        104.4536
878.24        89.72519
878.64        89.99447
879.04        90.07542
879.44        85.60921
879.84        83.59791
880.24        88.33002
880.64        90.95782
881.04         92.4021
881.44        92.98176
881.84         91.9028
882.24        89.56183
882.65          87.264
883.05        86.28576
883.45        86.82796
883.85        88.83665
884.25        91.43241
884.65        92.73466
885.05         92.2015
885.45        90.48549
885.85        88.57932
886.25        87.84066
886.65         88.5363
887.05        90.17815
887.45        92.15781
887.85        93.40398
888.25        93.53182
888.65        92.93536
889.04        91.93615
889.44        91.06693
889.84        90.51318
890.24         90.0612
890.64         89.7879
891.04        89.84505
891.44        90.19878
891.84        90.86347
892.24         91.5013
892.64        91.45929
893.04        90.67677
893.44         89.4614
893.83        88.28489
894.23        87.84033
894.63        88.24207
895.03        89.18533
895.43        90.55151
895.83        92.08663
896.23        93.54701
896.63        94.99182
897.02        95.87277
897.42        95.32896
897.82        93.35741
898.22        90.32674
898.62        87.30524
899.01        85.86201
899.41         86.3162
899.81        88.14606
900.21        90.54704
900.61        92.18597
901.00        92.62882
901.40        92.26041
901.80        91.45704
902.20        90.80753
902.59        90.52205
902.99        90.40202
903.39        90.30824
903.79        90.05215
904.18        89.60963
904.58         89.1532
904.98        88.91122
905.38        89.18679
905.77        89.96885
906.17        91.06974
906.57        92.16781
906.96        92.85614
907.36        92.96864
907.76        92.63924
908.15        92.00533
908.55        91.19591
908.95        90.37095
909.34        89.50379
909.74        88.74992
910.14        88.15604
910.53        87.76879
910.93        87.64441
911.33         87.8407
911.72        88.43682
912.12         89.2804
912.52        90.19534
912.91        91.02895
913.31        91.63728
913.70        92.04299
914.10        92.26931
914.49        92.14764
914.89          91.323
915.29        89.89074
915.68        88.07323
916.08        86.61222
916.47        86.09115
916.87        86.52551
917.26        87.72621
917.66        89.08144
918.05         89.6125
918.45         89.0608
918.84        87.76745
919.24        86.34305
919.64        85.66744
920.03        85.98468
920.42        87.00302
920.82        88.34205
921.21        89.49537
921.61         90.0718
922.00        90.23805
922.40        89.99333
922.79        89.36272
923.19        88.49245
923.58        87.25872
923.98        85.69757
924.37        84.56081
924.77        84.37187
925.16        81.82409
925.55        83.14703
925.95        83.96406
926.34        86.05228
926.74         88.8248
927.13        91.56963
927.52        92.83476
927.92        92.39664
928.31        90.72814
928.70        88.40852
929.10        86.45947
929.49        85.19566
929.89        84.36333
930.28        84.14956
930.67        84.85922
931.07        86.31718
931.46        88.53564
931.85        90.61445
932.24        91.17773
932.64        89.98874
933.03          87.235
933.42         83.7796
933.82        81.57388
934.21        81.18044
934.60        82.07084
934.99        83.25632
935.39        83.70599
935.78        83.25648
936.17        81.68344
936.56        78.85744
936.96        79.66382
937.35        78.26343
937.74         79.2944
938.13        80.42136
938.53        81.67982
938.92        83.11384
939.31        84.96157
939.70        86.81014
940.09        87.33331
940.49         86.1779
940.88        83.88144
941.27        81.57307
941.66        80.61493
942.05        81.15842
942.44        82.77999
942.84        84.87357
943.23        86.40959
943.62        86.90608
944.01        86.63921
944.40        85.89639
944.79         85.1127
945.18        84.43863
945.57         83.7179
945.97        82.86186
946.36        81.82455
946.75        80.81874
947.14        80.05618
947.53        79.71628
947.92         79.8874
948.31        80.52842
948.70        81.63848
949.09        82.94917
949.48        83.80042
949.87        83.86936
950.26         83.2178
950.65        82.34471
951.04        82.07024
951.43        82.56276
951.82        83.60445
952.21        84.56161
952.60        84.41161
952.99        82.97145
953.38        80.62524
953.77         78.2037
954.16        76.88783
954.55        76.92413
954.94        78.02505
955.33        79.39485
955.72        79.69289
956.11        78.59191
956.50        76.45988
956.89        74.28857
957.28        73.88808
957.66        75.81207
958.05        79.20607
958.44        82.87646
958.83        85.08493
959.22        85.36801
959.61        84.19212
960.00        82.24059
960.39        80.62269
960.78        79.74096
961.16        79.35329
961.55         79.0621
961.94        78.23459
962.33        76.79187
962.72         75.0822
963.11        73.69983
963.49        73.36342
963.88        74.15211
964.27        75.90202
964.66        77.92621
965.04        78.77866
965.43        77.90082
965.82        75.85519
966.21          73.694
966.60        72.77084
966.98        73.33189
967.37         74.9325
967.76        76.96238
968.15         78.2096
968.53        78.23322
968.92        77.39723
969.31        76.24362
969.69        75.46649
970.08        75.24829
970.47        75.38577
970.86        75.57256
971.24        75.31407
971.63        74.47351
972.02        73.21112
972.40        72.00655
972.79        71.66535
973.17        72.50451
973.56        74.21289
973.95        76.13702
974.33        77.01881
974.72        76.39967
975.11        74.67716
975.49        72.69324
975.88        71.58991
976.26        71.53677
976.65        72.30993
977.04        73.18188
977.42         72.5256
977.81        69.95579
978.19        66.21983
978.58         63.1691
978.96        62.64104
979.35         64.8754
979.74        69.54465
980.12        75.51346
980.51        79.04793
980.89        78.95284
981.28         76.2412
981.66        72.80968
982.05        71.08363
982.43        71.41935
982.82        72.88678
983.20        74.90932
983.59        76.73663
983.97         78.1766
984.35        79.59664
984.74        80.56637
985.12        80.41918
985.51        78.76595
985.89        75.60145
986.28        71.99438
986.66        69.59325
987.04        69.03616
987.43        69.96972
987.81        71.25244
988.20        71.41711
988.58        70.04813
988.96        66.87946
989.35          62.649
989.73        61.39714
990.12        65.58601
990.50        73.21675
990.88        79.49342
991.27        80.89014
991.65        77.98357
992.03        71.93295
992.42        65.17027
992.80        62.10662
993.18        64.03031
993.56        68.55102
993.95        73.51057
994.33        77.06426
994.71        78.73267
995.10         79.5104
995.48        79.36882
995.86        77.98734
996.24         75.3815
996.63        71.14583
997.01        66.38295
997.39        64.57009
997.77        67.16727
998.15        73.52937
998.54        80.19997
998.92        82.38995
999.30          78.766
999.68         70.4399
1000.06        60.06754
1000.45        53.92324
1000.83        54.14421
1001.21        58.35854
1001.59        63.85539
1001.97         67.7993
1002.35        69.61208
1002.73        70.41785
1003.12        69.59061
1003.50        66.00382
1003.88        60.22374
1004.26        53.53784
1004.64        48.22845
1005.02        45.87584
1005.40        46.41886
1005.78         50.1264
1006.16        57.87777
1006.54        66.70019
1006.92        71.34605
1007.30         71.8924
1007.69        70.69897
1008.07        69.95354
1008.45        69.79401
1008.83        69.56414
1009.21        67.33449
1009.59        53.13028
1009.97       0.5193931
1010.35       -87.27452
1010.73       -86.42012
1011.11       -37.66332
1011.49       0.8150971
1011.86        29.13115
1012.24          45.465
1012.62        52.73885
1013.00        54.54428
1013.38        52.43991
1013.76        48.57667
1014.14        49.99706
1014.52        62.47485
1014.90        87.59168
1015.28        117.1653
1015.66        128.0182
1016.04        107.5242
1016.41        62.61425
1016.79        19.53553
1017.17        3.560177
1017.55        9.098924
1017.93          21.525
1018.31        33.28932
1018.69         40.8586
1019.06        44.87831
1019.44          46.367
1019.82        46.58622
1020.20        48.38377
1020.58        54.88948
1020.95         70.9874
1021.33        88.59934
1021.71        275.1223
1022.09        158.3946
1022.46        163.3404
1022.84        171.2542
1023.22        182.9175
1023.60        210.2682
1023.97        475.7223
1024.35        31.15195
1024.73        86.76649
