SpectraSmart Spectrum 2.9.0.0
--------- Device Information -----------
Spectrum Name :  反射率_0
Saving Time :  2024/04/26 01:47:13
Spectro-Module Model Name : SE2030-DUVN
Spectro-Module Serial Number : OS361AC55029948
Wavelength Start : 200
Wavelength End : 1025
Wavelength Unit : Wavelength(nm)
Spectrum Unit : Reflectance(%)
-----------Spectrum Setting ------------
Integration Time : 20ms
Average : 10
Boxcar : 0
Background removal :  enabled
linearity correction :  enabled
SC :  disabled
Intensity correction :  disabled
DWT denoise :  enabled
savitzky-golay :  disabled
FFT :  disabled
Running average :  disabled
Kalman :  disabled
High pass :  disabled
---------------BEGIN--------------------
Wavelength(nm)             Reflectance(%)
200.29               0
200.75        104.2062
201.21        96.00257
201.67        86.31628
202.13        80.58132
202.58        79.49765
203.04        81.95665
203.50        85.59003
203.96        86.46382
204.42        83.97022
204.88        79.85254
205.34        76.31342
205.80        75.52551
206.26        78.30235
206.72        86.49851
207.18        103.3992
207.64        118.0832
208.10        107.8797
208.55        87.59045
209.01        75.26221
209.47        72.11329
209.93        74.53849
210.39         80.6606
210.85        87.88333
211.31        90.39858
211.77        86.24052
212.23        77.73545
212.69         68.9556
213.14        66.14795
213.60        70.31279
214.06        79.53665
214.52        90.24139
214.98        96.95613
215.44        98.15028
215.90        95.67959
216.36        91.49481
216.81        88.15257
217.27        86.77146
217.73        86.40426
218.19        86.07854
218.65        84.54142
219.11        81.13702
219.57        75.30843
220.02        67.66399
220.48        62.82244
220.94        63.16394
221.40        67.72546
221.86        71.38584
222.32         68.7122
222.77        60.64364
223.23        50.76889
223.69        42.64412
224.15        39.89218
224.61        41.97176
225.06        46.99582
225.52        52.14214
225.98        53.98791
226.44         51.9781
226.90        47.61615
227.36        42.94502
227.81         40.7038
228.27        41.66761
228.73        44.54751
229.19        48.09449
229.65        50.48505
230.10        51.25634
230.56        51.21386
231.02          50.805
231.48        50.47998
231.93        50.37371
232.39         50.3117
232.85         50.4324
233.31        51.06404
233.77        52.22188
234.22        53.87204
234.68        55.63877
235.14        56.64695
235.60        56.64374
236.05        55.91499
236.51         54.9838
236.97        54.61009
237.43        55.09888
237.88        56.48095
238.34        58.78224
238.80        61.90477
239.26        65.49174
239.71        69.59055
240.17        73.54043
240.63         76.9369
241.08        79.70677
241.54        81.54135
242.00        83.15366
242.46        86.11525
242.91        92.37091
243.37        106.1704
243.83        143.9095
244.28        244.7988
244.74        319.0717
245.20        228.0965
245.66        169.1135
246.11        154.1035
246.57        162.6715
247.03         205.004
247.48        340.7349
247.94          297.89
248.40        158.7614
248.85          113.12
249.31        98.58342
249.77        95.99408
250.22         99.7653
250.68        109.1791
251.14        123.8102
251.59        134.1946
252.05        130.5979
252.51        117.4325
252.96        103.0962
253.42        95.72388
253.88        94.96148
254.33         97.7737
254.79         103.337
255.25        109.8468
255.70        115.6756
256.16        121.1914
256.62        124.8668
257.07         125.083
257.53        122.8697
257.99        118.6149
258.44        113.6169
258.90        110.6937
259.35        108.9326
259.81        107.8059
260.27        105.8971
260.72         101.792
261.18        96.38164
261.63        90.14645
262.09        84.39381
262.55        79.75297
263.00        76.23103
263.46        73.71575
263.91        71.64333
264.37        69.89339
264.83        68.11005
265.28        66.17477
265.74        64.22515
266.19        62.14738
266.65        60.25432
267.11         58.5769
267.56        56.97564
268.02        55.28183
268.47        53.34043
268.93        51.19991
269.38        49.09849
269.84        47.70683
270.30        47.17275
270.75        47.30305
271.21        47.59456
271.66         47.2679
272.12        46.15275
272.57        44.48864
273.03        42.73058
273.48        41.47027
273.94        40.89051
274.39        40.73149
274.85        40.73218
275.31        40.48314
275.76        39.86334
276.22         39.0498
276.67        38.16821
277.13         37.5134
277.58         37.0764
278.04        36.79718
278.49        36.48056
278.95        35.95828
279.40        35.16454
279.86        34.24968
280.31         33.3119
280.77        32.62944
281.22        32.20523
281.68         31.9884
282.13        31.85773
282.59        31.69896
283.04         31.4623
283.50        31.23766
283.95        31.01103
284.41        30.79412
284.86        30.58853
285.32         30.3976
285.77        30.29409
286.22        30.46756
286.68        30.89868
287.13        31.47458
287.59        31.99619
288.04        32.14321
288.50        31.89583
288.95        31.34817
289.41        30.70347
289.86        30.14436
290.32        29.80972
290.77        29.63777
291.22        29.67097
291.68        29.92426
292.13        30.39221
292.59        31.09278
293.04        31.97535
293.50         32.9517
293.95        33.97231
294.40        35.01746
294.86        36.10237
295.31        37.27199
295.77        38.54174
296.22        39.89407
296.68        41.27181
297.13        42.55107
297.58        43.72208
298.04        44.84043
298.49        46.02017
298.95        47.49688
299.40        49.29977
299.85        51.35207
300.31        53.49546
300.76          55.466
301.21         57.1659
301.67        58.70877
302.12        60.11769
302.58        61.55408
303.03        63.03437
303.48        64.54411
303.94         66.1795
304.39        68.01717
304.84        70.06684
305.30        72.29549
305.75        74.48228
306.20        76.32178
306.66        77.77505
307.11        78.87116
307.57        79.86288
308.02        80.99232
308.47         82.3899
308.93        83.99977
309.38        85.65693
309.83        87.16152
310.29        88.45013
310.74        89.53958
311.19        90.58261
311.65        91.80846
312.10        93.23882
312.55        94.81281
313.00        96.26781
313.46         97.1898
313.91        97.48477
314.36        97.30621
314.82        97.04755
315.27        97.24788
315.72        98.07272
316.18        99.37001
316.63        100.8244
317.08         101.862
317.53        102.3202
317.99        102.3521
318.44        102.2941
318.89        102.6923
319.35        103.6449
319.80        105.0054
320.25        106.3586
320.70        107.0262
321.16        106.8548
321.61        106.0767
322.06         105.145
322.51        104.7644
322.97        105.0848
323.42        105.9356
323.87        106.9666
324.32        107.5768
324.78        107.5776
325.23         107.214
325.68        106.7175
326.13         106.492
326.59        106.6373
327.04        107.0449
327.49        107.6006
327.94        108.1634
328.39        108.6615
328.85         109.127
329.30        109.5759
329.75        109.8321
330.20        109.8987
330.66        109.8024
331.11        109.7738
331.56        110.1074
332.01        110.8945
332.46        112.0475
332.92        113.3727
333.37        114.7293
333.82        115.9021
334.27        116.9137
334.72        117.6986
335.17        118.1791
335.63        118.3663
336.08        118.3399
336.53        118.2165
336.98        118.2514
337.43        118.5304
337.88        118.9934
338.34        119.6322
338.79        120.5214
339.24        121.5859
339.69        122.8362
340.14        123.9977
340.59        124.5923
341.05        124.5406
341.50        123.9642
341.95        123.2982
342.40        123.2231
342.85        123.8829
343.30        125.0877
343.75        126.4497
344.20        127.2822
344.66        127.3998
345.11        127.0017
345.56        126.4068
346.01        126.0923
346.46        126.1951
346.91         126.562
347.36        127.0214
347.81        127.3224
348.26        127.3963
348.72        127.3462
349.17        127.2676
349.62        127.3469
350.07        127.6096
350.52        127.9598
350.97        128.2599
351.42        128.3183
351.87         128.098
352.32        127.6823
352.77        127.1646
353.22        126.6891
353.67        126.3124
354.13        126.0082
354.58        125.7483
355.03         125.552
355.48        125.3959
355.93        125.2685
356.38        125.0972
356.83        124.7622
357.28        124.2367
357.73        123.5545
358.18        122.7692
358.63        121.9755
359.08        121.2139
359.53        120.4694
359.98        119.7495
360.43        119.0587
360.88        118.3867
361.33        117.7317
361.78        117.0738
362.23        116.3772
362.68        115.6426
363.13        114.8945
363.58        114.1321
364.03        113.3516
364.48        112.5577
364.93        111.7425
365.38        110.9607
365.83        110.3052
366.28        109.7727
366.73        109.3142
367.18        108.8254
367.63        108.1405
368.08        107.2412
368.53        106.2208
368.98        105.1518
369.43        104.1314
369.88         103.201
370.33        102.3244
370.78        101.5798
371.23        101.0978
371.68        100.8826
372.13        100.8978
372.58        100.9526
373.03         100.718
373.48        100.1293
373.93        99.29765
374.38         98.4243
374.83        97.82306
375.28        97.56046
375.72        97.50418
376.17        97.55865
376.62        97.54841
377.07        97.39022
377.52        97.12447
377.97        96.71059
378.42        96.08667
378.87        95.28501
379.32        94.36135
379.77        93.42028
380.22        92.60714
380.67        91.94826
381.11        91.40057
381.56        90.95284
382.01        90.58296
382.46        90.28005
382.91        90.07609
383.36        89.86745
383.81        89.49123
384.26        88.93019
384.71        88.21006
385.15        87.51326
385.60        87.20363
386.05         87.2706
386.50        87.59379
386.95        87.87739
387.40        87.63004
387.85        86.80665
388.29        85.61046
388.74        84.46895
389.19        83.64253
389.64        83.17927
390.09         82.9268
390.54        82.88036
390.98        83.03383
391.43          83.325
391.88         83.7269
392.33        83.99904
392.78        83.74785
393.23        82.97942
393.67        81.91731
394.12        80.96145
394.57        80.22911
395.02        79.89857
395.47        80.27753
395.91        81.21007
396.36        81.87725
396.81         82.1068
397.26        82.21007
397.71        82.19236
398.15        81.81176
398.60        81.19194
399.05        80.60851
399.50        80.08894
399.95        79.00874
400.39         77.9673
400.84        77.71669
401.29        78.25077
401.74        78.45194
402.18        78.22913
402.63          78.149
403.08        78.31132
403.53        78.56684
403.97        78.90171
404.42        79.30051
404.87        79.57465
405.32        79.41471
405.76        78.78526
406.21        77.89389
406.66        76.97554
407.11         76.3966
407.55        76.29827
408.00        76.43862
408.45        76.71123
408.90        77.31824
409.34        77.86458
409.79        77.23156
410.24        75.79542
410.68        75.13239
411.13        75.37096
411.58        75.64268
412.03        75.85174
412.47        76.22301
412.92        76.63438
413.37        77.05203
413.81        77.33268
414.26        77.30296
414.71        76.92794
415.15        76.25902
415.60        75.50677
416.05        75.03041
416.49        74.93246
416.94        75.14474
417.39        75.44385
417.83         75.4215
418.28        75.00187
418.73        74.32775
419.17        73.68371
419.62        73.52231
420.07        73.88441
420.51         74.6058
420.96        75.38664
421.41         75.6702
421.85         75.3015
422.30        74.75576
422.74        74.17422
423.19        73.45403
423.64        72.83901
424.08        73.23444
424.53        74.39899
424.98        75.02623
425.42        74.93416
425.87        74.96136
426.31        75.18156
426.76        74.98749
427.21        74.63239
427.65         75.0628
428.10        76.09556
428.54         76.8968
428.99        77.38502
429.44        77.39114
429.88        77.04036
430.33         77.7765
430.77        78.85206
431.22        77.44604
431.66        74.26486
432.11        72.71329
432.56        73.10998
433.00        74.05529
433.45        75.33536
433.89        77.25584
434.34        78.33344
434.78         79.5051
435.23        75.82823
435.67        73.14533
436.12         75.7498
436.57        76.71183
437.01        77.21736
437.46        77.46477
437.90        77.67908
438.35        76.98026
438.79        77.77006
439.24        77.72028
439.68        77.57526
440.13        77.20277
440.57        76.96413
441.02        77.96362
441.46        79.70749
441.91        80.47826
442.35        80.05978
442.80        78.96845
443.24         77.7203
443.69        78.26833
444.13        80.09609
444.58        80.45721
445.02        78.19566
445.47        77.85928
445.91        78.96476
446.36        79.26266
446.80        78.68546
447.24        78.43559
447.69        78.61851
448.13        78.87351
448.58        79.20573
449.02        79.64462
449.47        80.08765
449.91         80.3869
450.36        80.50185
450.80        80.44846
451.25        80.27451
451.69        80.03084
452.13        79.77339
452.58        79.50139
453.02        79.26797
453.47        79.20182
453.91        79.29634
454.36        79.52097
454.80        79.77629
455.24        79.80508
455.69        79.58044
456.13        79.28976
456.58        79.05177
457.02        78.62802
457.46        78.23714
457.91        78.48343
458.35        79.17809
458.79        79.50298
459.24        79.42303
459.68        79.28629
460.13         79.0918
460.57        78.84112
461.01        78.65958
461.46        77.78098
461.90        77.08666
462.34        77.69957
462.79        77.18673
463.23        77.54522
463.68        77.96914
464.12        78.31786
464.56        78.51196
465.01        78.60195
465.45        78.43636
465.89        78.22227
466.34        77.89157
466.78        76.59517
467.22        74.92836
467.67        74.73746
468.11        75.94378
468.55         76.8447
468.99        77.03701
469.44         76.8026
469.88        76.34405
470.32        76.41891
470.77        76.94685
471.21        76.98997
471.65        76.50121
472.10        76.18101
472.54        76.12694
472.98        76.09309
473.42         76.0672
473.87        76.39883
474.31        76.84288
474.75        76.44975
475.20        75.48592
475.64        75.34631
476.08        75.98925
476.52        76.09815
476.97        75.59678
477.41        75.51882
477.85        75.98582
478.29        75.46583
478.74        75.76093
479.18         76.4313
479.62        75.00837
480.06         75.7372
480.50        76.10954
480.95        76.44363
481.39        76.24691
481.83        75.50316
482.27        75.44261
482.72        75.36649
483.16        73.97483
483.60        74.27784
484.04        75.78576
484.48        76.22606
484.93        76.13623
485.37        77.32822
485.81        78.03262
486.25        76.57894
486.69        104.2107
487.14          84.479
487.58         52.6507
488.02        64.64562
488.46        73.13344
488.90        72.42075
489.34        74.53493
489.79        73.14134
490.23        75.19007
490.67        76.07159
491.11        75.40778
491.55         75.5425
491.99        75.97839
492.43        75.76552
492.88        74.99358
493.32        74.83439
493.76        74.79691
494.20        74.92704
494.64        74.98723
495.08        75.18271
495.52        75.51052
495.96        75.51347
496.41        75.18729
496.85        75.66995
497.29        76.62994
497.73        75.37511
498.17        72.99516
498.61         73.0843
499.05        75.66427
499.49        76.21078
499.93        76.32054
500.37        76.04501
500.82        75.32806
501.26        75.45458
501.70        76.12566
502.14        76.45068
502.58        76.24621
503.02        76.04052
503.46          75.835
503.90        75.30467
504.34        74.66888
504.78        74.42584
505.22         74.6403
505.66        75.20233
506.10        75.88577
506.54        76.15064
506.98        75.85173
507.42        75.56389
507.86        75.08798
508.30        74.43577
508.74        74.83247
509.18        75.14616
509.62        75.56911
510.06        75.78096
510.50        75.71516
510.94        75.45897
511.38        75.13961
511.82        74.97984
512.26        75.03419
512.70        75.22549
513.14        75.46216
513.58        75.60396
514.02        75.60234
514.46        75.50188
514.90        75.36181
515.34        75.25565
515.78        75.20017
516.22        75.22504
516.66        75.29005
517.10        75.19163
517.54        74.91847
517.98        75.01465
518.42        74.81853
518.86        74.93221
519.30        75.14646
519.74        75.48134
520.18        75.83988
520.62        76.06187
521.06        76.11411
521.50        76.03856
521.93        75.89366
522.37        75.77589
522.81         75.7261
523.25        75.71842
523.69        75.74788
524.13        75.80729
524.57        75.88835
525.01        75.99605
525.45        76.11293
525.89        76.20642
526.32        76.25826
526.76        76.26862
527.20        76.23815
527.64        76.20263
528.08        76.18863
528.52        76.09692
528.96        75.90397
529.40        75.85503
529.83        75.96197
530.27        75.26022
530.71        75.30266
531.15        75.12284
531.59        75.18808
532.03        75.33876
532.46         75.5686
532.90        75.86803
533.34        76.18536
533.78        76.51045
534.22        76.76083
534.66        76.82567
535.09        76.68073
535.53        76.38717
535.97        76.02763
536.41         75.7612
536.85        75.63752
537.28         75.6227
537.72        75.65956
538.16        75.66267
538.60        75.60726
539.04        75.47184
539.47        75.29143
539.91        75.30745
540.35        75.45243
540.79        75.41091
541.22         75.2007
541.66         75.1387
542.10        75.22704
542.54        75.28261
542.97        75.30431
543.41        75.40057
543.85        75.55161
544.29        75.74377
544.72        75.88911
545.16        75.84946
545.60        75.59241
546.04        75.26247
546.47        74.99574
546.91        74.76669
547.35         74.7299
547.79        75.42294
548.22        76.47227
548.66        76.74023
549.10        76.13656
549.53         75.2809
549.97        74.53725
550.41        74.13583
550.84        74.16918
551.28        74.66171
551.72        75.40768
552.15        75.73772
552.59          75.479
553.03        75.89339
553.46        75.17039
553.90        75.09396
554.34        75.14833
554.77         75.2446
555.21        75.31391
555.65        75.36507
556.08        75.66221
556.52        75.11211
556.96        75.48701
557.39        75.30684
557.83        75.12651
558.27        75.21591
558.70        75.22123
559.14           75.36
559.57        75.49093
560.01        75.61152
560.45        75.67955
560.88        75.82904
561.32        75.97446
561.75        75.60687
562.19        74.94877
562.63         74.6179
563.06        74.68948
563.50        74.96796
563.93        75.29263
564.37        75.48925
564.80        75.46205
565.24        75.28232
565.68        75.02603
566.11        74.85829
566.55        74.86559
566.98        74.90868
567.42        74.99161
567.85        75.23989
568.29        75.62949
568.72        75.70806
569.16        75.65401
569.60        76.06674
570.03        76.58659
570.47        76.48827
570.90        75.92204
571.34        74.40642
571.77         75.1573
572.21        75.36337
572.64        74.96535
573.08        73.67557
573.51        70.56335
573.95        73.27901
574.38         77.9912
574.82        75.91161
575.25        75.51666
575.69        73.14993
576.12        72.09274
576.56        71.27389
576.99        72.52046
577.42        76.20839
577.86         76.2146
578.29        75.34212
578.73        79.65456
579.16        73.23509
579.60        66.96035
580.03         69.8402
580.47        74.43921
580.90        76.10391
581.33        75.03404
581.77        73.67994
582.20        80.97971
582.64        80.89104
583.07        69.06777
583.51        67.82487
583.94        66.46049
584.37        69.54507
584.81        72.77784
585.24        76.66721
585.68        78.58639
586.11        77.28898
586.54        72.02362
586.98        69.71763
587.41        70.43822
587.85        74.13226
588.28         76.8203
588.71        73.06987
589.15        70.73672
589.58        72.07805
590.01        72.62846
590.45        73.54749
590.88        74.50854
591.31        73.76245
591.75        73.30688
592.18         73.3551
592.61        74.89772
593.05        75.49263
593.48        78.46356
593.91        79.26829
594.35        72.88034
594.78        71.31689
595.21        70.99944
595.65        74.12034
596.08        76.86788
596.51        73.95927
596.94        72.07354
597.38        72.77127
597.81        75.31571
598.24        77.74239
598.68        75.90544
599.11        74.46747
599.54        77.21429
599.97        79.35159
600.41        73.39035
600.84         73.5604
601.27        75.05924
601.70        74.07488
602.14        73.93516
602.57        72.89442
603.00        73.71084
603.43        75.43262
603.87        76.95374
604.30        76.38143
604.73         74.1997
605.16        72.36549
605.60        73.62231
606.03        74.76674
606.46         75.6954
606.89        75.78297
607.32        73.22254
607.76        72.88097
608.19        75.69318
608.62        74.88499
609.05        73.71126
609.48        74.22795
609.92        74.02108
610.35        73.31091
610.78        75.89011
611.21        76.25941
611.64        72.97895
612.07        73.68705
612.50        74.15939
612.94        74.64798
613.37        74.01484
613.80         74.2731
614.23         74.7627
614.66        74.63189
615.09        74.78337
615.52        74.82533
615.96        74.86714
616.39        75.00292
616.82        73.96083
617.25        73.58607
617.68        74.41059
618.11        74.94866
618.54        75.20039
618.97        74.74033
619.40        73.98412
619.84        73.79053
620.27        74.95836
620.70        75.54478
621.13        75.68221
621.56        74.81394
621.99        74.23241
622.42        74.96938
622.85        76.77601
623.28        76.54205
623.71        76.05038
624.14        75.85135
624.57        75.66425
625.00         75.0315
625.43        75.40189
625.86        74.73897
626.29        74.96668
626.72        75.19199
627.15        75.02062
627.58        75.10981
628.01         75.2253
628.44         75.3767
628.87        75.56153
629.30        75.90257
629.73        76.26605
630.16        76.34541
630.59        76.01203
631.02        75.51652
631.45        74.98624
631.88        74.62089
632.31        74.48822
632.74         74.5363
633.17        74.70557
633.60        74.88386
634.03        75.02339
634.46        75.15922
634.89        75.26953
635.32        75.31707
635.75        75.29958
636.18        75.20963
636.61        75.10094
637.04        75.07392
637.47        75.14684
637.89        75.30403
638.32        75.45663
638.75        75.50451
639.18        75.42059
639.61        75.24751
640.04        75.03656
640.47        74.86566
640.90        74.76597
641.33         74.7122
641.76        74.67995
642.18        74.71873
642.61        74.81339
643.04        74.81657
643.47        74.68577
643.90        75.13162
644.33        74.89909
644.76        75.00114
645.18        75.04351
645.61        75.00809
646.04         74.8772
646.47        74.64405
646.90        74.43188
647.33        74.38937
647.75        74.57083
648.18        74.99112
648.61        75.38901
649.04        75.37552
649.47        74.90381
649.89        73.89108
650.32        72.86773
650.75        72.94743
651.18        74.02026
651.61        74.99709
652.03        75.42463
652.46        75.17449
652.89        74.67554
653.32        73.95802
653.74        73.48313
654.17        74.54233
654.60        75.68863
655.03        73.00031
655.46        74.01615
655.88        78.47232
656.31        83.18015
656.74        189.0768
657.16        122.8695
657.59        43.36306
658.02        32.51862
658.45        56.06002
658.87        72.34575
659.30        75.54169
659.73        74.63336
660.15        72.14714
660.58        74.41048
661.01        76.32217
661.44        74.07781
661.86        73.41443
662.29        73.42384
662.72        74.16009
663.14        75.37922
663.57        75.21273
664.00        73.97908
664.42         73.7293
664.85        74.54693
665.27        75.12534
665.70        75.20625
666.13        75.11562
666.55        74.81897
666.98        74.22057
667.41        73.55328
667.83        73.25737
668.26         73.4261
668.69        73.88604
669.11        74.37457
669.54        74.81884
669.96        74.42405
670.39        73.93702
670.82         73.3699
671.24        72.98858
671.67        72.97058
672.09        73.43308
672.52        74.05637
672.94        74.64146
673.37        73.89078
673.80        73.68265
674.22        73.72807
674.65        73.72597
675.07        73.66618
675.50        73.57223
675.92        73.49448
676.35        73.54952
676.77        73.74593
677.20        73.96809
677.62        74.16272
678.05        74.25155
678.47        74.20304
678.90        74.05516
679.32        73.88877
679.75        73.68929
680.17        73.77427
680.60        73.89537
681.02        74.03262
681.45        73.94829
681.87        73.63984
682.30        73.26579
682.72        72.97247
683.15        72.88909
683.57        73.09675
684.00        73.58075
684.42        74.28342
684.85        74.63617
685.27        74.58059
685.70        74.29167
686.12        73.89732
686.54        73.64205
686.97        73.58694
687.39        73.64039
687.82        73.69067
688.24        73.83667
688.66        73.67242
689.09        73.53288
689.51        73.41042
689.94        73.43346
690.36        73.63039
690.78        73.94473
691.21        74.27218
691.63        74.44722
692.06        74.43159
692.48        74.28559
692.90        74.09512
693.33        73.98045
693.75        73.98055
694.17        74.06609
694.60        74.20121
695.02        74.30639
695.44        74.32038
695.87        74.45092
696.29        74.69858
696.71        74.46925
697.14        73.96857
697.56        74.48178
697.98        75.72456
698.41        75.56191
698.83        74.76749
699.25        74.26663
699.68        74.35291
700.10        74.27491
700.52        74.05271
700.94        74.10168
701.37        74.37109
701.79        74.66419
702.21        74.90168
702.64        75.14362
703.06        75.31066
703.48         75.2701
703.90        75.01997
704.33         74.5919
704.75         74.1133
705.17        73.88462
705.59        73.98244
706.01         74.2134
706.44        74.41792
706.86        74.97795
707.28        74.83727
707.70        74.82941
708.12        74.73449
708.55        74.67687
708.97        74.66234
709.39        74.66126
709.81        74.68553
710.23         74.7428
710.66        74.82948
711.08        74.98018
711.50         75.1124
711.92        75.10954
712.34        74.95556
712.76        74.66885
713.19        74.38694
713.61          74.367
714.03        74.63975
714.45        75.13003
714.87        75.62154
715.29        75.76842
715.71        75.50069
716.13        74.93045
716.56        74.27911
716.98         73.9369
717.40        74.00025
717.82        74.35727
718.24        74.82841
718.66        75.10774
719.08        75.10338
719.50        74.90791
719.92        74.63625
720.34        74.48826
720.76        74.52197
721.19        74.54836
721.61         74.7347
722.03        74.83323
722.45        74.87869
722.87        74.89853
723.29        74.92641
723.71        75.00404
724.13        75.13548
724.55        75.29366
724.97        75.44283
725.39        75.53351
725.81        75.55133
726.23        75.51639
726.65        75.44714
727.07        75.36948
727.49        75.30251
727.91        75.25003
728.33        75.22602
728.75        75.25232
729.17        75.32907
729.59        75.44303
730.01         75.5901
730.43         75.7528
730.85        75.92142
731.27          76.118
731.69        76.28779
732.10        76.32227
732.52        76.20517
732.94         76.0167
733.36        75.87389
733.78         75.8173
734.20        75.86915
734.62        76.34158
735.04         77.0517
735.46        76.92986
735.88        76.24612
736.30        76.70204
736.72        78.17245
737.13        78.75108
737.55        78.14133
737.97         77.9071
738.39        78.13031
738.81        77.21258
739.23        75.73143
739.65        76.74401
740.06        79.60648
740.48        80.05144
740.90        78.11649
741.32        77.11203
741.74        77.40849
742.16        77.57957
742.57        77.71631
742.99        78.61688
743.41         79.9594
743.83        80.74891
744.25        80.79536
744.67        80.35669
745.08        79.74474
745.50         79.4668
745.92        79.68339
746.34        80.21994
746.75        80.85029
747.17        81.20338
747.59        81.19842
748.01        80.95486
748.42        80.70538
748.84        80.79775
749.26        81.31509
749.68        82.09851
750.09        82.90555
750.51        83.38898
750.93        83.44482
751.35        83.04199
751.76        82.40979
752.18        82.18739
752.60        82.38295
753.01        82.45113
753.43        82.38165
753.85        82.59441
754.27        83.09695
754.68        83.69167
755.10        84.25165
755.52        84.73412
755.93        85.06561
756.35         85.1781
756.77        85.21656
757.18        85.27573
757.60        85.41274
758.02        85.96532
758.43        86.52135
758.85        85.81027
759.26        84.50056
759.68        83.40362
760.10        85.17045
760.51        86.03995
760.93        85.48003
761.34        83.95398
761.76        83.49673
762.18        82.94166
762.59        83.00046
763.01        83.41251
763.42        84.15125
763.84        84.85408
764.26        85.40606
764.67        85.86272
765.09        86.06056
765.50        85.83482
765.92        85.16686
766.33        83.67756
766.75        81.96617
767.16        81.43584
767.58         82.2467
768.00        83.93346
768.41        86.00934
768.83         87.2859
769.24         87.2923
769.66        86.48927
770.07        85.37294
770.49        83.94784
770.90        82.66108
771.32        83.52796
771.73        85.85266
772.15         85.3209
772.56        82.42748
772.97        81.84787
773.39        83.49467
773.80        84.04317
774.22        83.28349
774.63        83.24184
775.05        83.87276
775.46          84.248
775.88        84.25069
776.29        84.13569
776.70        83.98179
777.12        83.94662
777.53        84.08707
777.95        84.30231
778.36        84.45591
778.77        84.31223
779.19        83.87859
779.60        83.23766
780.02        82.66087
780.43        82.61887
780.84        83.23797
781.26        84.00502
781.67        84.75003
782.09        85.89127
782.50        86.92589
782.91        85.94877
783.33        83.65826
783.74        82.84382
784.15        83.67112
784.57        84.28161
784.98        84.36682
785.39        84.37334
785.81        84.21684
786.22        83.62508
786.63        82.94891
787.04        82.85999
787.46        83.43246
787.87        84.44633
788.28        85.54444
788.70        86.12423
789.11        86.02734
789.52        85.45163
789.93        84.71463
790.35         84.2561
790.76        84.20432
791.17        84.48824
791.58        84.90493
792.00        85.05161
792.41        84.82062
792.82        84.39046
793.23        84.06353
793.65        83.81255
794.06        83.88122
794.47        85.35154
794.88        87.32208
795.29        86.96442
795.71        84.50323
796.12        82.09112
796.53        80.53571
796.94        80.17428
797.35        81.08755
797.76        82.60246
798.18        84.02339
798.59        84.97987
799.00        85.09124
799.41        84.08782
799.82        82.52425
800.23        81.63483
800.64        81.67634
801.06        82.19508
801.47        82.98868
801.88        83.60587
802.29        83.87194
802.70        83.98062
803.11        83.98292
803.52        83.91919
803.93        83.82658
804.34         83.6247
804.75        83.43186
805.17        83.46101
805.58        83.77052
805.99        84.29856
806.40        84.77464
806.81        84.76646
807.22        84.17031
807.63        83.05433
808.04        81.84168
808.45        81.25916
808.86        81.44512
809.27        82.16001
809.68        83.07632
810.09        83.61215
810.50        83.56489
810.91        83.12341
811.32        82.50966
811.73        82.08376
812.14        81.95666
812.55        81.97034
812.96        82.10638
813.37        82.34007
813.78        82.62301
814.19        83.01283
814.60        83.30228
815.01        83.15922
815.42         82.5489
815.83        81.52602
816.24        80.49387
816.65        80.16689
817.05        80.75963
817.46        82.04172
817.87        83.47287
818.28        84.07019
818.69         83.5761
819.10        82.23586
819.51        80.71416
819.92        80.13779
820.33        80.78083
820.74        82.28416
821.14        83.96571
821.55        84.61594
821.96          83.975
822.37        82.46518
822.78        80.69929
823.19        79.57621
823.60         79.3463
824.00        79.78503
824.41        80.52146
824.82        81.05024
825.23        81.15116
825.64        81.03114
826.04        80.82305
826.45        80.70086
826.86        80.71712
827.27        80.74611
827.68        80.79922
828.08        80.96622
828.49         81.1804
828.90        81.50286
829.31        81.77023
829.72        81.67181
830.12        81.18825
830.53        80.40957
830.94        79.68356
831.35        79.48444
831.75        79.94034
832.16        80.85665
832.57        81.96917
832.97        82.71826
833.38        82.83701
833.79        82.49017
834.20        81.94047
834.60         81.5884
835.01        81.56973
835.42         81.7459
835.82        81.95219
836.23        81.83837
836.64         81.3714
837.04        80.70997
837.45        80.06529
837.86        79.75941
838.26        79.88023
838.67         80.2766
839.08        80.82266
839.48        81.28153
839.89        81.51723
840.29        81.61318
840.70        81.55852
841.11        81.32167
841.51        80.93699
841.92        80.38378
842.33        79.83944
842.73        79.61572
843.14        79.74001
843.54        80.17886
843.95        80.65765
844.35        80.77589
844.76        80.42577
845.17         79.7531
845.57        79.01081
845.98        78.59367
846.38        78.59879
846.79        78.88129
847.19        79.30308
847.60        79.52512
848.00        79.48409
848.41        79.26566
848.81         79.0105
849.22        78.84554
849.62        78.87249
850.03        79.05374
850.43        79.38805
850.84        79.78198
851.24        80.22983
851.65        80.54534
852.05        80.92353
852.46         81.5012
852.86        82.27097
853.27        83.20959
853.67         83.7002
854.07        82.93467
854.48        80.95185
854.88        78.06463
855.29        75.29434
855.69        74.11448
856.10        74.81992
856.50        77.21622
856.90        80.41115
857.31        82.32448
857.71        82.26527
858.12        80.75723
858.52        78.77555
858.92        77.62575
859.33        77.59587
859.73        78.32972
860.13        79.50782
860.54         80.4711
860.94        81.00677
861.34        81.28452
861.75        81.43053
862.15        81.72461
862.55         82.1944
862.96        82.68843
863.36        83.11334
863.76         83.2932
864.17        83.19991
864.57        82.99984
864.97        82.78972
865.38        82.69118
865.78        82.78991
866.18        82.93936
866.58          83.222
866.99        83.76435
867.39        84.61082
867.79        85.77753
868.19        86.77579
868.60        86.69503
869.00        85.37836
869.40        83.08929
869.80        80.89822
870.21        80.49576
870.61          82.333
871.01        85.89931
871.41        89.97459
871.81        92.45335
872.22        92.71214
872.62        91.35724
873.02        89.41172
873.42        88.57937
873.82        89.17285
874.22        90.49728
874.63        92.01126
875.03        92.62454
875.43        91.86122
875.83        90.78442
876.23         89.0535
876.63        88.53841
877.03        89.41808
877.44         91.9792
877.84        101.0825
878.24        99.81577
878.64        99.53895
879.04        97.74916
879.44        94.72421
879.84         93.2253
880.24        95.48508
880.64        97.41174
881.04        99.29908
881.44        100.2428
881.84        99.29238
882.24         97.0493
882.65        94.81009
883.05        93.98181
883.45        94.79089
883.85         96.9758
884.25         99.6725
884.65        101.1752
885.05        100.9308
885.45        99.53226
885.85        97.82362
886.25         96.9451
886.65        97.16177
887.05         98.0856
887.45        99.32122
887.85        100.1885
888.25        100.4172
888.65        100.2547
889.04        99.87363
889.44        99.56278
889.84        99.40556
890.24        99.27388
890.64         99.1552
891.04        99.06635
891.44        98.99368
891.84        98.97479
892.24         98.9608
892.64        98.82415
893.04        98.59433
893.44        98.38293
893.83        98.27754
894.23        98.43531
894.63        98.86138
895.03        99.42873
895.43        100.2185
895.83        101.3516
896.23        102.7368
896.63        104.2998
897.02        105.4696
897.42        105.3402
897.82        103.8384
898.22        101.3379
898.62        98.72995
899.01        97.31244
899.41        97.37844
899.81        98.47018
900.21        100.0042
900.61        101.0152
901.00        101.1793
901.40        100.8223
901.80        100.1275
902.20        99.36739
902.59        98.68809
902.99        97.97885
903.39        97.35948
903.79        97.06921
904.18        97.16473
904.58        97.64935
904.98        98.37615
905.38        99.08601
905.77         99.6456
906.17        100.0571
906.57        100.3305
906.96        100.5559
907.36        100.6907
907.76        100.7211
908.15        100.5505
908.55         99.9225
908.95        98.89637
909.34        97.57581
909.74        96.33693
910.14        95.56612
910.53        95.39471
910.93        95.75932
911.33        96.50694
911.72        97.33926
912.12        98.01451
912.52         98.5195
912.91         98.9054
913.31        99.28821
913.70        99.74982
914.10        100.2455
914.49        100.5694
914.89        100.1701
915.29        99.00764
915.68        97.29068
916.08        95.85049
916.47        95.36021
916.87        95.88041
917.26        97.21658
917.66        98.62188
918.05        98.90374
918.45        97.80219
918.84         95.7468
919.24        93.68752
919.64        93.01618
920.03        94.06973
920.42        96.42364
920.82        99.25066
921.21        101.2031
921.61        101.6538
922.00        101.0625
922.40        99.89857
922.79         98.7934
923.19        97.99599
923.58        97.28474
923.98        96.61043
924.37        96.01632
924.77        95.68697
925.16        94.77978
925.55        95.19465
925.95        95.77917
926.34        97.04599
926.74         98.5799
927.13        100.0352
927.52        100.5987
927.92        100.1934
928.31         99.1151
928.70        97.58244
929.10        95.99476
929.49        94.51316
929.89        93.07277
930.28        92.17784
930.67        92.66246
931.07        94.48328
931.46         97.4352
931.85        100.3657
932.24        101.5442
932.64        100.6141
933.03        97.90148
933.42        94.29562
933.82        91.81268
934.21        91.10273
934.60        91.64487
934.99        92.60311
935.39        92.98313
935.78        92.60616
936.17          91.569
936.56        89.85216
936.96        90.01268
937.35        89.35435
937.74        89.94867
938.13         90.6841
938.53        91.67448
938.92        92.94798
939.31        94.66319
939.70         96.3631
940.09         96.7561
940.49        95.50536
940.88        93.16383
941.27        90.81707
941.66        89.74896
942.05        90.10796
942.44        91.50446
942.84        93.38064
943.23        94.82019
943.62        95.37533
944.01        95.27802
944.40        94.79636
944.79        94.35736
945.18        94.08385
945.57        93.79366
945.97        93.28217
946.36        92.30394
946.75        91.01124
947.14        89.79196
947.53        88.91993
947.92         88.5184
948.31        88.54674
948.70         88.9455
949.09        89.65682
949.48        90.50695
949.87        91.30416
950.26        91.94497
950.65        92.40211
951.04        92.71265
951.43        92.87517
951.82        92.87277
952.21        92.50174
952.60        91.49778
952.99        89.91515
953.38        87.91503
953.77        86.05409
954.16         85.1011
954.55        85.19342
954.94        86.19772
955.33        87.45807
955.72        87.84072
956.11        87.08009
956.50        85.44735
956.89        83.82238
957.28        83.83162
957.66        85.94539
958.05        89.35512
958.44        92.93615
958.83        95.05005
959.22        95.27445
959.61        94.05191
960.00        92.05175
960.39        90.36852
960.78        89.39188
961.16         88.8811
961.55         88.4665
961.94        87.56582
962.33        86.12355
962.72        84.52196
963.11         83.2418
963.49        82.83408
963.88        83.36942
964.27        84.69479
964.66         86.4049
965.04        87.62051
965.43        87.83659
965.82        87.30666
966.21        86.51986
966.60        86.17269
966.98        86.40891
967.37         86.9458
967.76        87.46077
968.15        87.36151
968.53        86.51614
968.92        85.20371
969.31        83.78933
969.69         82.6614
970.08        81.94349
970.47        81.56522
970.86        81.41875
971.24        81.33121
971.63        81.23904
972.02        81.17405
972.40        81.36913
972.79        82.17709
973.17        83.74067
973.56         85.7964
973.95        87.76364
974.33        88.55622
974.72        87.83207
975.11        85.95833
975.49        83.86693
975.88        82.85603
976.26        83.11556
976.65        84.40146
977.04        85.92779
977.42        85.79691
977.81         83.4306
978.19        79.66958
978.58        76.41905
978.96        75.56509
979.35        77.36517
979.74        81.41259
980.12        86.80093
980.51        90.25862
980.89        90.72422
981.28        89.02823
981.66        86.53602
982.05        85.03254
982.43        84.83788
982.82        85.32716
983.20        86.32558
983.59        87.72197
983.97        89.48605
984.35        91.80224
984.74         94.0452
985.12        95.09654
985.51        94.17767
985.89        91.46313
986.28          87.784
986.66        84.54639
987.04         82.5649
987.43         81.7027
987.81        81.43293
988.20        81.02578
988.58        80.18122
988.96        78.75219
989.35        77.19662
989.73        77.66909
990.12        80.90927
990.50        85.77232
990.88        89.18407
991.27        89.01988
991.65        85.76029
992.03        80.06933
992.42        74.12267
992.80        71.87833
993.18        74.31921
993.56         79.2092
993.95        84.31998
994.33        87.62503
994.71        88.72007
995.10        88.65061
995.48        87.61245
995.86        85.66943
996.24        82.99619
996.63         79.2231
997.01         75.4015
997.39        74.65532
997.77        78.17613
998.15        85.15036
998.54        92.50596
998.92        96.21361
999.30        95.08852
999.68        90.17572
1000.06        82.79741
1000.45        76.53946
1000.83        73.16499
1001.21        71.67218
1001.59        71.83894
1001.97        73.43931
1002.35        76.21736
1002.73        80.98032
1003.12         86.1082
1003.50        86.54598
1003.88        80.39455
1004.26        70.33801
1004.64        61.21751
1005.02        57.11947
1005.40        58.35986
1005.78        64.76849
1006.16        77.21219
1006.54        89.89414
1006.92        94.94771
1007.30        94.19992
1007.69        91.65823
1008.07        90.21276
1008.45        90.19415
1008.83         90.6741
1009.21        91.26222
1009.59         88.9874
1009.97        72.84905
1010.35         41.6845
1010.73        36.35884
1011.11        46.97753
1011.49        56.46505
1011.86        64.91695
1012.24        70.43988
1012.62        74.11707
1013.00          77.216
1013.38         80.2614
1013.76        85.38042
1014.14        96.95422
1014.52        117.4023
1014.90        146.9677
1015.28        176.9582
1015.66        187.7229
1016.04        168.1711
1016.41        122.9414
1016.79        74.72419
1017.17        47.52111
1017.55        40.90252
1017.93         43.4237
1018.31         49.0871
1018.69        55.23184
1019.06        62.04155
1019.44        71.11958
1019.82        84.75571
1020.20        103.0928
1020.58        125.3236
1020.95        152.3265
1021.33        187.4497
1021.71        -260.794
1022.09         100.284
1022.46        122.4957
1022.84        131.1043
1023.22        136.9023
1023.60        145.3753
1023.97         207.339
1024.35        108.1955
1024.73        122.3304
