SpectraSmart Spectrum 2.9.0.0
--------- Device Information -----------
Spectrum Name :  反射率_0
Saving Time :  2024/04/26 01:44:10
Spectro-Module Model Name : SE2030-DUVN
Spectro-Module Serial Number : OS361AC55029948
Wavelength Start : 200
Wavelength End : 1025
Wavelength Unit : Wavelength(nm)
Spectrum Unit : Reflectance(%)
-----------Spectrum Setting ------------
Integration Time : 20ms
Average : 10
Boxcar : 0
Background removal :  enabled
linearity correction :  enabled
SC :  disabled
Intensity correction :  disabled
DWT denoise :  enabled
savitzky-golay :  disabled
FFT :  disabled
Running average :  disabled
Kalman :  disabled
High pass :  disabled
---------------BEGIN--------------------
Wavelength(nm)             Reflectance(%)
200.29               0
200.75         84.4327
201.21        82.91531
201.67        80.29755
202.13        77.25898
202.58        74.03639
203.04         70.8345
203.50        67.98669
203.96        66.38671
204.42        66.18784
204.88        66.88379
205.34        67.95686
205.80        68.97135
206.26        70.01273
206.72        71.74317
207.18        74.40426
207.64        75.25042
208.10         71.2086
208.55        66.16181
209.01        63.68165
209.47        63.90775
209.93        65.89363
210.39        69.49292
210.85        73.33207
211.31        74.13303
211.77        70.95347
212.23        65.04089
212.69        59.24184
213.14        58.07268
213.60        62.07703
214.06        70.03232
214.52        78.96272
214.98        84.28674
215.44        84.77884
215.90         81.8693
216.36        77.57307
216.81        74.60067
217.27        73.91457
217.73        74.56465
218.19        74.99771
218.65        73.15687
219.11        68.09121
219.57        58.86789
220.02        46.60267
220.48        38.78317
220.94        39.68897
221.40        47.96181
221.86        55.56863
222.32        53.85758
222.77        44.30273
223.23        31.97013
223.69        22.43002
224.15        21.40984
224.61        28.00193
225.06        39.00471
225.52        50.10884
225.98         55.7027
226.44        54.70998
226.90        49.51338
227.36        42.83421
227.81         38.3515
228.27        37.32427
228.73        38.33294
229.19        40.51803
229.65         42.6487
230.10        44.18129
230.56        45.51506
231.02        46.66675
231.48        47.57532
231.93        48.26076
232.39        48.68513
232.85        48.85146
233.31         48.8753
233.77        48.77254
234.22        48.50948
234.68        48.12489
235.14        47.64211
235.60        47.14112
236.05        46.75672
236.51        46.45259
236.97        46.06298
237.43        45.59251
237.88        45.12518
238.34         45.0066
238.80        46.19567
239.26        48.98626
239.71        53.11774
240.17        57.49282
240.63        60.73105
241.08        62.40738
241.54        62.69711
242.00        62.19328
242.46        61.77903
242.91         61.9492
243.37        62.55414
243.83        66.24703
244.28        87.37681
244.74        127.8999
245.20        127.3245
245.66        116.6007
246.11        114.0565
246.57        118.1416
247.03        131.8559
247.48        169.5085
247.94        144.1042
248.40        102.2592
248.85        90.09922
249.31        86.64548
249.77        85.79166
250.22         86.0779
250.68         87.3278
251.14        89.11802
251.59        89.02963
252.05        85.85278
252.51        81.35364
252.96        77.55443
253.42        76.68432
253.88        78.14988
254.33        80.85556
254.79        84.73283
255.25        88.99228
255.70        92.73035
256.16        96.07849
256.62        97.80508
257.07        96.66061
257.53         93.4767
257.99        88.61018
258.44          83.496
258.90        80.79834
259.35        79.67808
259.81        79.40703
260.27        78.27457
260.72        74.60887
261.18         69.2356
261.63        62.87099
262.09        57.17776
262.55        53.37384
263.00        51.35143
263.46        50.55236
263.91         49.9553
264.37        48.78387
264.83        46.83373
265.28        44.30604
265.74        41.83197
266.19        40.12051
266.65        39.42352
267.11        39.33643
267.56        39.28989
268.02        38.61209
268.47         37.1665
268.93        35.19958
269.38         33.0683
269.84        31.62174
270.30        31.09868
270.75        31.25512
271.21        31.65668
271.66        31.65466
272.12        31.06645
272.57        30.09082
273.03        29.04517
273.48        28.31891
273.94        28.02979
274.39        27.99439
274.85        27.98695
275.31        27.67752
275.76        27.00375
276.22         26.1319
276.67        25.25888
277.13        24.74984
277.58        24.61152
278.04        24.72647
278.49        24.86039
278.95        24.74862
279.40        24.31118
279.86        23.70232
280.31        23.00749
280.77        22.46241
281.22        22.08644
281.68        21.83042
282.13         21.6468
282.59        21.50204
283.04        21.37183
283.50        21.31003
283.95        21.25729
284.41        21.13334
284.86        20.92713
285.32        20.66603
285.77        20.46925
286.22        20.58035
286.68        20.99434
287.13        21.59174
287.59        22.14362
288.04        22.30536
288.50        22.04266
288.95        21.46795
289.41        20.80341
289.86        20.27741
290.32        20.02163
290.77        19.96147
291.22        20.08742
291.68          20.344
292.13        20.71164
292.59        21.21386
293.04        21.85099
293.50          22.613
293.95        23.46874
294.40        24.37786
294.86        25.28589
295.31        26.13139
295.77        26.91693
296.22        27.67469
296.68        28.44754
297.13        29.27258
297.58        30.18319
298.04        31.18137
298.49        32.30496
298.95        33.65688
299.40        35.23006
299.85        36.98692
300.31        38.79675
300.76        40.44931
301.21        41.86786
301.67         43.1335
302.12        44.29298
302.58        45.51464
303.03        46.82281
303.48        48.19763
303.94        49.68707
304.39        51.30586
304.84        53.05321
305.30        54.91698
305.75        56.75704
306.20        58.37867
306.66        59.75925
307.11         60.9037
307.57        61.97065
308.02        63.09467
308.47        64.36598
308.93        65.74815
309.38        67.15557
309.83        68.50039
310.29        69.73962
310.74        70.86907
311.19        71.93356
311.65        73.00087
312.10        74.07669
312.55        75.15266
313.00        76.12946
313.46        76.85454
313.91        77.28873
314.36        77.49678
314.82        77.67616
315.27        78.08404
315.72        78.80909
316.18        79.77896
316.63        80.82385
317.08        81.61779
317.53        82.06703
317.99        82.24934
318.44        82.36759
318.89        82.75731
319.35         83.4743
319.80        84.43928
320.25        85.37962
320.70        85.84844
321.16        85.74813
321.61        85.22713
322.06        84.59978
322.51        84.35787
322.97        84.60107
323.42        85.22153
323.87        85.95737
324.32        86.35664
324.78        86.28838
325.23         85.9409
325.68        85.51591
326.13        85.36524
326.59        85.56685
327.04        86.01862
327.49        86.60176
327.94        87.15465
328.39         87.6007
328.85        87.97877
329.30        88.29254
329.75        88.38943
330.20        88.28796
330.66        88.02393
331.11         87.8436
331.56        88.07253
332.01        88.80243
332.46        89.93542
332.92        91.27253
333.37        92.60568
333.82        93.71687
334.27        94.63967
334.72        95.29678
335.17        95.59798
335.63        95.56075
336.08        95.25468
336.53        94.85574
336.98        94.70171
337.43        94.89378
337.88        95.36216
338.34        96.01386
338.79        96.76134
339.24        97.50033
339.69        98.27572
340.14        98.96171
340.59        99.33646
341.05        99.37767
341.50        99.13726
341.95        98.84904
342.40          98.896
342.85         99.3584
343.30        100.1214
343.75        100.9984
344.20        101.6466
344.66          101.96
345.11        102.0283
345.56        101.9267
346.01        101.7688
346.46        101.6193
346.91        101.4447
347.36        101.3122
347.81        101.3368
348.26        101.5369
348.72        101.9108
349.17        102.3286
349.62        102.6135
350.07        102.7112
350.52        102.6571
350.97        102.5419
351.42        102.5178
351.87        102.6123
352.32        102.7669
352.77        102.8856
353.22        102.8227
353.67        102.5502
354.13        102.1436
354.58        101.6653
355.03         101.266
355.48        100.9853
355.93        100.7786
356.38        100.5948
356.83        100.3546
357.28        100.0261
357.73        99.63049
358.18        99.18114
358.63        98.69479
359.08        98.18636
359.53        97.66306
359.98         97.1143
360.43        96.52602
360.88        95.89938
361.33        95.23216
361.78        94.59389
362.23        94.09404
362.68        93.74821
363.13        93.53212
363.58        93.30415
364.03        92.83842
364.48        92.09575
364.93        91.13964
365.38        90.15636
365.83        89.45399
366.28         89.0912
366.73        88.95532
367.18        88.85851
367.63        88.49354
368.08        87.79534
368.53        86.90554
368.98        85.93801
369.43        85.05121
369.88        84.30802
370.33         83.6459
370.78        83.12793
371.23        82.86659
371.68        82.85419
372.13        83.05707
372.58        83.28075
373.03        83.18937
373.48        82.70851
373.93        81.94047
374.38        81.08422
374.83        80.45079
375.28        80.12006
375.72        79.98829
376.17        79.96723
376.62        79.88475
377.07        79.67355
377.52        79.37226
377.97        79.00994
378.42        78.63267
378.87        78.26637
379.32        77.88603
379.77        77.44272
380.22        76.92559
380.67         76.3416
381.11        75.47202
381.56        74.85205
382.01        74.33147
382.46        74.08621
382.91        74.07045
383.36        74.11994
383.81        73.96064
384.26        73.53252
384.71        72.91078
385.15        72.27888
385.60        71.98105
386.05        72.02456
386.50        72.28603
386.95         72.5233
387.40        72.34096
387.85        71.69756
388.29        70.76154
388.74        69.86213
389.19        69.18637
389.64        68.77229
390.09        68.50346
390.54        68.40057
390.98        68.50051
391.43        68.76714
391.88        69.16636
392.33        69.47413
392.78        69.33616
393.23        68.74842
393.67         67.8756
394.12        67.07547
394.57        66.53542
395.02        66.37984
395.47        66.73344
395.91        67.45393
396.36         67.9499
396.81        68.09354
397.26        68.09483
397.71         67.9744
398.15        67.64196
398.60        67.22057
399.05        66.74371
399.50        66.26482
399.95        65.69629
400.39        65.35664
400.84        64.96514
401.29         64.6481
401.74        64.66394
402.18        64.95732
402.63        65.03487
403.08        64.94893
403.53        65.12488
403.97        65.55028
404.42        65.95136
404.87        66.15357
405.32        65.98551
405.76        65.42313
406.21        64.61295
406.66         63.7905
407.11         63.3414
407.55         63.3622
408.00        63.63875
408.45        63.85295
408.90        64.48042
409.34        65.09724
409.79        64.62601
410.24        63.39752
410.68        62.85362
411.13        63.11134
411.58        63.39225
412.03        63.58944
412.47        63.86319
412.92        64.11107
413.37        64.32807
413.81        64.44714
414.26        64.39989
414.71        64.17051
415.15        63.77419
415.60        63.34431
416.05        63.11515
416.49        63.14558
416.94        63.39592
417.39        63.67746
417.83        63.64781
418.28        63.25528
418.73        62.62357
419.17        62.01866
419.62        61.85963
420.07        62.19037
420.51        62.86235
420.96        63.61534
421.41        63.95584
421.85        63.73708
422.30        63.37113
422.74        62.95703
423.19        62.36861
423.64        61.81552
424.08        62.11034
424.53        63.04249
424.98        63.56766
425.42        63.53432
425.87        63.66187
426.31        63.96374
426.76        63.82898
427.21         63.4578
427.65        63.70457
428.10        64.47082
428.54        65.08489
428.99        65.48955
429.44        65.61795
429.88         65.5149
430.33        66.09323
430.77         66.8064
431.22        65.76142
431.66        63.46634
432.11        62.26178
432.56        62.39209
433.00        63.16619
433.45        64.46451
433.89         66.1132
434.34        66.75003
434.78        68.77866
435.23        64.53667
435.67        63.33497
436.12          65.249
436.57        66.32153
437.01        66.73205
437.46         67.0061
437.90        67.38071
438.35        66.40437
438.79        67.24218
439.24        67.07903
439.68         66.8687
440.13        66.60674
440.57        66.54647
441.02        67.20921
441.46        68.29597
441.91        69.10308
442.35        69.33565
442.80        68.66439
443.24         67.4955
443.69        67.97886
444.13        69.75449
444.58        69.72012
445.02        68.09808
445.47        67.83315
445.91        68.84643
446.36        69.14902
446.80        68.68108
447.24        68.47934
447.69        68.62228
448.13         68.8055
448.58         69.0379
449.02        69.34856
449.47        69.67332
449.91        69.92278
450.36        70.07001
450.80        70.11726
451.25        70.08176
451.69        69.96648
452.13        69.80726
452.58        69.61126
453.02         69.4372
453.47        69.41283
453.91        69.53314
454.36        69.77944
454.80          70.089
455.24        70.11123
455.69        69.78982
456.13         69.6211
456.58        69.78454
457.02        68.68332
457.46        68.84048
457.91        69.11276
458.35         69.9364
458.79        70.27793
459.24        70.08694
459.68        69.79811
460.13        69.50176
460.57         69.1651
461.01         68.8876
461.46        68.50459
461.90        68.23218
462.34        68.35088
462.79        68.11483
463.23          68.331
463.68        68.68088
464.12        69.10635
464.56        69.43159
465.01        69.40606
465.45        68.98669
465.89        68.69659
466.34        68.51647
466.78        67.71839
467.22        66.69987
467.67        66.56244
468.11        67.49306
468.55        68.22006
468.99          68.485
469.44        68.22968
469.88        67.64914
470.32        67.59531
470.77        68.02052
471.21        68.05292
471.65        67.65691
472.10        67.47061
472.54        67.54339
472.98        67.61337
473.42        67.65556
473.87         67.9304
474.31        68.26517
474.75        68.00932
475.20        67.35788
475.64        67.26765
476.08         67.7067
476.52         67.7843
476.97        67.47646
477.41        67.37621
477.85        67.60034
478.29        67.38746
478.74        68.30499
479.18        68.22473
479.62        67.25687
480.06        67.69743
480.50        67.98141
480.95        68.29649
481.39        68.28313
481.83        67.01031
482.27         67.6648
482.72        67.08871
483.16        66.45187
483.60        66.38723
484.04        68.06573
484.48        68.30339
484.93        67.92415
485.37        69.60445
485.81        70.51201
486.25        68.88139
486.69        93.05502
487.14         75.1124
487.58         46.9706
488.02        58.20079
488.46        65.71227
488.90        65.47565
489.34        67.03007
489.79        66.15195
490.23        68.42439
490.67        69.30219
491.11        68.36488
491.55        68.24237
491.99        68.58774
492.43        68.40261
492.88        67.79601
493.32        67.90715
493.76        68.20506
494.20         68.5325
494.64        68.62899
495.08        68.75245
495.52        68.94711
495.96         68.8333
496.41        68.43641
496.85        68.87209
497.29        69.84677
497.73        68.68513
498.17        66.42831
498.61        66.85251
499.05        69.83721
499.49        70.25674
499.93        69.67406
500.37        69.24093
500.82        68.90727
501.26        69.03487
501.70        69.36713
502.14        69.62027
502.58        69.62788
503.02          69.578
503.46        69.45383
503.90        69.06622
504.34        68.58495
504.78        68.39972
505.22        68.57124
505.66         68.9796
506.10        69.46619
506.54        69.72407
506.98        69.65993
507.42         69.4518
507.86        69.25792
508.30        68.86404
508.74        69.05124
509.18        69.17602
509.62        69.36095
510.06         69.4445
510.50        69.39538
510.94         69.2604
511.38        69.11903
511.82        69.10536
512.26        69.24461
512.70        69.48786
513.14        69.74495
513.58        69.87516
514.02        69.83662
514.46        69.66881
514.90         69.4561
515.34          69.314
515.78        69.26695
516.22        69.34986
516.66        69.49753
517.10        69.42781
517.54        69.11512
517.98        69.23284
518.42        68.97303
518.86        69.08955
519.30        69.33014
519.74        69.71983
520.18         70.1321
520.62        70.35885
521.06        70.36076
521.50         70.1944
521.93        69.95753
522.37        69.81074
522.81        69.80641
523.25        69.89464
523.69        70.02642
524.13        70.12781
524.57        70.17389
525.01        70.19096
525.45        70.19109
525.89        70.18894
526.32        70.18298
526.76        70.16315
527.20        70.11752
527.64        70.05095
528.08        69.98178
528.52        69.85517
528.96        69.66282
529.40        69.58509
529.83        69.66496
530.27         69.1459
530.71        69.39304
531.15        69.30708
531.59         69.2986
532.03        69.32341
532.46         69.4282
532.90        69.65482
533.34        69.97733
533.78        70.36811
534.22        70.71241
534.66        70.85036
535.09        70.74369
535.53        70.46537
535.97        70.11295
536.41        69.86557
536.85        69.77863
537.28        69.81085
537.72        69.89116
538.16        69.91438
538.60        69.85236
539.04        69.69165
539.47        69.49206
539.91        69.52013
540.35        69.71697
540.79        69.76884
541.22        69.65504
541.66        69.61965
542.10        69.65438
542.54        69.60226
542.97        69.50515
543.41        69.53755
543.85        69.69788
544.29        69.94135
544.72        70.14928
545.16        70.16786
545.60        69.95514
546.04        69.58174
546.47        69.20635
546.91        69.03802
547.35        69.17874
547.79        69.71868
548.22        70.38982
548.66         70.7199
549.10        70.54613
549.53        69.80172
549.97        68.86174
550.41        68.46412
550.84        68.72912
551.28        69.33642
551.72        70.03565
552.15        70.45197
552.59        70.45821
553.03        70.33688
553.46        69.93887
553.90        69.77721
554.34        69.83113
554.77        69.94283
555.21        70.02933
555.65        70.19459
556.08        70.44386
556.52        69.89667
556.96        70.21331
557.39        70.09061
557.83        70.05418
558.27        70.04316
558.70        70.07597
559.14        70.17989
559.57        70.31772
560.01        70.44408
560.45        70.53441
560.88        70.64111
561.32        70.71701
561.75        70.56805
562.19        70.27859
562.63        69.86578
563.06        69.48099
563.50        69.57661
563.93        70.02554
564.37        70.22034
564.80        70.09196
565.24        70.02546
565.68        70.03747
566.11        70.01697
566.55        70.02017
566.98        70.01239
567.42        70.03165
567.85         70.2296
568.29        70.60006
568.72        70.70164
569.16        70.68931
569.60        71.08411
570.03        71.55004
570.47        71.41014
570.90        70.98669
571.34        69.34119
571.77         70.2504
572.21        70.28029
572.64        69.73186
573.08        68.88297
573.51        66.05743
573.95        68.65102
574.38        72.91721
574.82        70.64154
575.25        70.46449
575.69        68.40993
576.12        67.05649
576.56        66.33533
576.99        67.88686
577.42        70.84226
577.86        70.55704
578.29        70.19057
578.73        73.72704
579.16        67.98086
579.60        62.12141
580.03        64.99464
580.47        69.39149
580.90        70.82162
581.33        69.75314
581.77         68.7545
582.20        75.56406
582.64        74.77926
583.07        64.10243
583.51        62.88386
583.94        61.75256
584.37        64.52817
584.81        67.67271
585.24        71.50404
585.68        73.62794
586.11        72.05679
586.54        67.09092
586.98        64.72554
587.41        65.54318
587.85        69.09164
588.28        71.19827
588.71        67.86936
589.15        65.64412
589.58        67.24139
590.01        67.98025
590.45         68.6552
590.88        69.62645
591.31        68.86681
591.75        68.35252
592.18        68.36743
592.61        69.76711
593.05        70.29613
593.48        72.72678
593.91        73.64929
594.35         67.7808
594.78        66.59092
595.21        66.24082
595.65        69.24308
596.08        71.92325
596.51        69.26764
596.94        67.44284
597.38        68.09294
597.81          70.594
598.24        72.51559
598.68        70.73257
599.11        69.53127
599.54        72.49854
599.97        73.68762
600.41        68.98401
600.84        68.98264
601.27        70.85418
601.70        69.30075
602.14        69.62517
602.57        68.57416
603.00        69.15415
603.43        70.61229
603.87        72.08636
604.30        71.65027
604.73        69.63409
605.16        68.58311
605.60        69.48312
606.03        70.49467
606.46        71.07149
606.89        71.44559
607.32        69.33826
607.76        68.69239
608.19        71.13882
608.62        70.70159
609.05        69.10883
609.48        69.71234
609.92        69.64774
610.35        69.43243
610.78        71.33858
611.21        71.83479
611.64        68.87159
612.07        69.62952
612.50        69.97792
612.94        70.63174
613.37         70.0653
613.80        70.12153
614.23        70.70454
614.66        70.59482
615.09        70.80276
615.52         70.8242
615.96        70.78317
616.39        70.80339
616.82        69.74809
617.25        69.52756
617.68        70.62149
618.11        71.26586
618.54        71.43755
618.97        70.92973
619.40        70.14156
619.84        69.95188
620.27        70.90308
620.70        71.40142
621.13        71.52603
621.56         70.9919
621.99        70.64824
622.42        71.41843
622.85         73.0118
623.28        72.43878
623.71         71.8384
624.14        71.79212
624.57        71.62162
625.00        70.96886
625.43        71.55431
625.86        70.93046
626.29        70.95959
626.72        71.90224
627.15        71.41698
627.58        71.55027
628.01        71.42786
628.44        71.97943
628.87        71.77222
629.30        71.90422
629.73        72.24976
630.16        72.25373
630.59        72.00005
631.02        71.63898
631.45        71.29226
631.88        71.05896
632.31        70.97908
632.74        71.02279
633.17        71.13973
633.60        71.24185
634.03        71.29477
634.46        71.32755
634.89        71.33186
635.32        71.29421
635.75        71.22292
636.18        71.11459
636.61         71.0136
637.04        71.00849
637.47        71.11194
637.89        71.27845
638.32        71.43182
638.75        71.55691
639.18        71.59468
639.61        71.43022
640.04         71.1229
640.47        70.89785
640.90        70.79564
641.33        70.70498
641.76        70.61198
642.18        70.63755
642.61          70.775
643.04        70.83266
643.47        70.73393
643.90        71.27245
644.33        70.96208
644.76        71.00649
645.18         70.9719
645.61        70.89074
646.04        70.75786
646.47        70.55708
646.90        70.39095
647.33        70.37702
647.75        70.55785
648.18        70.93585
648.61        71.27973
649.04        71.28388
649.47        70.90504
649.89        69.97633
650.32        68.98399
650.75        69.10809
651.18        70.22594
651.61        71.02351
652.03        71.16563
652.46        71.13142
652.89        71.23442
653.32        70.74559
653.74        69.96803
654.17        71.14546
654.60        71.91128
655.03         69.3348
655.46        70.50613
655.88        74.60211
656.31        79.24986
656.74          175.66
657.16        114.1299
657.59        40.13928
658.02        30.67401
658.45        53.54266
658.87        68.36829
659.30         71.8474
659.73        70.67471
660.15        68.57272
660.58        70.69699
661.01        72.63114
661.44        70.62029
661.86        70.00077
662.29        69.95422
662.72        70.64182
663.14        71.84903
663.57        71.72601
664.00        70.55437
664.42        70.28782
664.85        71.00725
665.27        71.48311
665.70         71.4986
666.13        71.39903
666.55        71.15688
666.98        70.66804
667.41        70.12654
667.83        69.90384
668.26        70.07892
668.69        70.50633
669.11        70.93798
669.54        71.32677
669.96        70.93098
670.39        70.40228
670.82        69.79308
671.24        69.56371
671.67        69.82506
672.09        70.33993
672.52        70.81522
672.94        71.40619
673.37        70.84203
673.80        70.60315
674.22        70.43502
674.65        70.30687
675.07        70.23442
675.50        70.12685
675.92        70.03024
676.35        70.08294
676.77        70.27167
677.20        70.53181
677.62        70.82607
678.05        70.91389
678.47        70.72128
678.90        71.02205
679.32        70.61325
679.75        70.47173
680.17        70.52701
680.60        70.56557
681.02         70.6003
681.45        70.50753
681.87        70.29153
682.30        70.01431
682.72        69.78451
683.15        69.69799
683.57        69.84138
684.00          70.264
684.42        70.93841
684.85        71.24443
685.27        71.13834
685.70        70.84608
686.12        70.49647
686.54         70.2639
686.97        70.21095
687.39        70.34653
687.82        70.55827
688.24        70.66956
688.66        70.61783
689.09        70.48253
689.51        70.36229
689.94        70.36314
690.36         70.5096
690.78         70.7778
691.21        71.07877
691.63        71.17983
692.06        71.03001
692.48        71.09222
692.90        70.76062
693.33        70.69818
693.75        70.73209
694.17        70.84404
694.60        71.00257
695.02        71.13089
695.44        71.16802
695.87        71.36481
696.29         71.6805
696.71        71.32812
697.14        70.57335
697.56        71.01364
697.98        72.35162
698.41        72.20758
698.83        71.31362
699.25        70.75008
699.68        70.82375
700.10        70.77045
700.52        70.61141
700.94        70.75004
701.37        71.10568
701.79        71.43868
702.21        71.65973
702.64        71.83521
703.06        71.91162
703.48        71.81245
703.90        71.55441
704.33        71.11367
704.75        70.68963
705.17         70.4964
705.59        70.62634
706.01        70.89347
706.44        71.14997
706.86        71.75468
707.28        71.68665
707.70        71.76729
708.12        71.75941
708.55         71.6727
708.97        71.54477
709.39         71.5266
709.81        71.61713
710.23        71.65052
710.66        71.61602
711.08        71.65313
711.50        71.72446
711.92        71.68251
712.34        71.50622
712.76        71.31468
713.19         71.2275
713.61        70.94088
714.03        71.30782
714.45        71.61106
714.87         71.9331
715.29        71.98838
715.71        71.73728
716.13         71.2585
716.56        70.74091
716.98        70.54964
717.40        70.75752
717.82        71.22787
718.24        71.78318
718.66        72.12548
719.08        72.25939
719.50        71.95428
719.92        71.40601
720.34        71.06326
720.76        71.01392
721.19        70.94195
721.61         71.0324
722.03        71.15117
722.45        71.33125
722.87        71.57133
723.29        71.82336
723.71        71.99081
724.13        72.04756
724.55        72.00963
724.97        71.92708
725.39        71.89468
725.81        71.93751
726.23        72.02721
726.65        72.13161
727.07        72.19647
727.49        72.20994
727.91        72.20124
728.33        72.18092
728.75        72.16323
729.17         72.1547
729.59        72.14137
730.01        72.15179
730.43        72.22391
730.85        72.36521
731.27        72.59369
731.69         72.8267
732.10        72.90694
732.52         72.8043
732.94        72.59899
733.36        72.43513
733.78        72.43833
734.20        72.64323
734.62        73.26165
735.04        74.02881
735.46        74.10101
735.88        73.20551
736.30        73.42147
736.72        74.56228
737.13        74.99306
737.55         74.4805
737.97         74.4371
738.39        74.84496
738.81        74.09865
739.23        72.66451
739.65        73.30109
740.06        75.54237
740.48        75.76881
740.90        74.08359
741.32        73.43485
741.74        74.04611
742.16        74.38619
742.57         74.4732
742.99        75.12802
743.41        76.15092
743.83        76.76971
744.25        76.85623
744.67        76.59851
745.08        76.21951
745.50        76.08391
745.92        76.30901
746.34        76.77388
746.75        77.30439
747.17        77.60655
747.59        77.62278
748.01        77.44028
748.42        77.26735
748.84        77.41446
749.26        77.94854
749.68        78.74281
750.09        79.55662
750.51        79.99335
750.93        79.96496
751.35        79.56862
751.76        79.02388
752.18        78.77644
752.60        78.81645
753.01        79.04084
753.43        78.82835
753.85        79.08666
754.27        79.63291
754.68        80.27924
755.10        80.88573
755.52        81.39538
755.93         81.7367
756.35        81.85352
756.77        81.85914
757.18        81.79321
757.60        81.67918
758.02         81.9422
758.43        82.31944
758.85        81.49102
759.26        79.98151
759.68        79.99995
760.10        81.25932
760.51        82.34392
760.93        81.22601
761.34        80.45588
761.76        79.86376
762.18        79.57318
762.59        79.68807
763.01        80.01234
763.42        80.54314
763.84        81.06388
764.26        81.51077
764.67        81.85237
765.09        81.96282
765.50        81.68809
765.92        81.05173
766.33        79.87715
766.75        78.62479
767.16        78.25776
767.58         78.9373
768.00        80.44936
768.41        82.38275
768.83        83.77973
769.24        84.09711
769.66        83.11237
770.07        81.46825
770.49         80.1897
770.90        79.55334
771.32        80.37119
771.73        82.03471
772.15        81.38304
772.56        78.92986
772.97        78.62413
773.39        80.31928
773.80        80.90841
774.22        80.15956
774.63        80.00801
775.05        80.44632
775.46         80.6436
775.88         80.5183
776.29        80.31087
776.70        80.11241
777.12        80.08858
777.53        80.29075
777.95        80.62205
778.36        80.90981
778.77        80.85383
779.19        80.43797
779.60        79.75396
780.02         79.0993
780.43        78.98519
780.84        79.55287
781.26        80.30447
781.67        81.04305
782.09        82.11518
782.50        83.02068
782.91        81.93891
783.33        79.62128
783.74        78.82822
784.15        79.72529
784.57        80.62997
784.98        81.11174
785.39        81.05224
785.81        80.47643
786.22         79.9102
786.63          79.646
787.04        79.65728
787.46        79.99989
787.87        80.84504
788.28        81.89217
788.70        82.39729
789.11        82.20977
789.52        81.71507
789.93        81.14744
790.35        80.49834
790.76        80.02583
791.17        80.39516
791.58        81.36854
792.00         81.8029
792.41        81.52821
792.82        81.19479
793.23        81.05688
793.65         80.7274
794.06        80.49017
794.47        81.68278
794.88        83.49583
795.29        83.11655
795.71        80.77461
796.12        78.61328
796.53        77.34826
796.94        77.14488
797.35        78.04002
797.76        79.42691
798.18        80.67699
798.59        81.51044
799.00        81.58984
799.41         80.6301
799.82        79.14948
800.23        78.31597
800.64        78.36622
801.06        78.86983
801.47          79.633
801.88        80.21962
802.29        80.45895
802.70        80.53322
803.11         80.4852
803.52        80.34924
803.93        80.17255
804.34         79.8862
804.75        79.61968
805.17        79.65263
805.58        80.06019
805.99        80.61014
806.40        81.04485
806.81        81.34162
807.22        81.20525
807.63        79.82835
808.04        77.82613
808.45        76.96421
808.86        77.45728
809.27        78.52605
809.68        79.70373
810.09        80.40672
810.50        80.36965
810.91        79.78202
811.32        78.97504
811.73        78.48643
812.14        78.47102
812.55        78.71972
812.96        79.12213
813.37        79.48326
813.78        79.70506
814.19        79.91516
814.60        79.97894
815.01        79.66428
815.42        78.97004
815.83        77.91597
816.24        76.90084
816.65        76.63474
817.05        77.31548
817.46         78.7152
817.87        80.25134
818.28        80.86881
818.69        80.29199
819.10        78.78271
819.51        77.04545
819.92        76.27946
820.33        76.79208
820.74        78.21956
821.14        79.87994
821.55        80.55786
821.96        79.98769
822.37        78.59438
822.78        76.98724
823.19        76.06113
823.60        76.06093
824.00        76.75009
824.41        77.73196
824.82        78.44522
825.23        78.63625
825.64        78.50466
826.04         78.2091
826.45        77.96973
826.86        77.85571
827.27        77.74509
827.68         77.6199
828.08        77.51361
828.49        77.36623
828.90        77.26801
829.31        77.16016
829.72        76.91178
830.12         76.5477
830.53        76.09679
830.94        75.76962
831.35         75.8456
831.75        76.40315
832.16        77.29349
832.57        78.31461
832.97        79.03038
833.38         79.2165
833.79        78.98617
834.20        78.56052
834.60        78.28243
835.01        78.27859
835.42        78.45195
835.82        78.64922
836.23        78.53551
836.64        78.08356
837.04        77.42649
837.45        76.81675
837.86        76.64637
838.26         77.0027
838.67        77.72243
839.08        78.54409
839.48        78.99751
839.89        78.90678
840.29        78.43394
840.70        77.78063
841.11        77.23753
841.51        76.90669
841.92        76.67757
842.33         76.5425
842.73        76.50217
843.14        76.50211
843.54        76.60505
843.95         76.6905
844.35        76.61227
844.76        76.33257
845.17        75.90137
845.57        75.45612
845.98        75.22506
846.38        75.25817
846.79        75.46983
847.19        75.77211
847.60        75.91157
848.00        75.86074
848.41        75.67833
848.81         75.4838
849.22        75.38138
849.62        75.45734
850.03        75.67122
850.43        76.03811
850.84        76.49644
851.24        77.03596
851.65        77.47295
852.05        77.90749
852.46        78.33264
852.86        78.73619
853.27        79.15446
853.67        79.16528
854.07        78.24579
854.48        76.47516
854.88        74.07446
855.29        71.85256
855.69        70.96633
856.10        71.62943
856.50        73.70499
856.90        76.45972
857.31        78.17036
857.71        78.26686
858.12        77.14745
858.52        75.57598
858.92        74.58073
859.33        74.39887
859.73        74.75204
860.13        75.45287
860.54        76.11806
860.94        76.64029
861.34        77.11526
861.75        77.53902
862.15        77.97697
862.55         78.4002
862.96        78.74156
863.36         78.9765
863.76        79.05403
864.17        78.97684
864.57        78.82743
864.97        78.70554
865.38        78.74824
865.78        79.02457
866.18        79.41321
866.58         79.8438
866.99        80.18068
867.39        80.42259
867.79        80.63567
868.19        80.66165
868.60        80.20701
869.00        79.28158
869.40        78.00405
869.80        76.98561
870.21        77.15845
870.61         78.7726
871.01        81.52033
871.41        84.58914
871.81         86.5741
872.22        87.05657
872.62        86.40548
873.02        85.27899
873.42        84.89474
873.82        85.40726
874.22        86.17741
874.63        86.93337
875.03          87.213
875.43        86.75884
875.83        86.57684
876.23        85.33867
876.63        84.98693
877.03        85.48795
877.44        87.10374
877.84        103.0122
878.24        93.72947
878.64        93.61884
879.04        92.91972
879.44        88.91079
879.84         86.9192
880.24        90.59184
880.64        92.74079
881.04        94.04893
881.44        94.69061
881.84        93.95587
882.24        92.21817
882.65        90.51547
883.05        89.88162
883.45        90.50554
883.85        92.29271
884.25        94.59172
884.65        96.02313
885.05        96.11753
885.45        95.30584
885.85        94.22275
886.25        93.74252
886.65        94.06261
887.05        94.88515
887.45        95.83271
887.85        96.26073
888.25        95.97131
888.65        95.23602
889.04         94.3538
889.44          93.808
889.84        93.70699
890.24        93.84636
890.64        94.11496
891.04        94.36808
891.44        94.52602
891.84         94.6693
892.24         94.6662
892.64        94.26511
893.04        93.52012
893.44        92.60735
893.83        91.84468
894.23        91.70204
894.63        92.23997
895.03        93.25887
895.43        94.64986
895.83         96.1645
896.23        97.58352
896.63        98.92712
897.02        99.78356
897.42        99.52863
897.82        98.16747
898.22        95.97167
898.62        93.72044
899.01        92.55694
899.41        92.74062
899.81        93.89046
900.21        95.47803
900.61        96.61741
901.00        96.99374
901.40        96.86034
901.80        96.39935
902.20         95.8931
902.59        95.47095
902.99        95.04221
903.39        94.59441
903.79        94.13929
904.18        93.72724
904.58        93.46434
904.98        93.49529
905.38         94.0089
905.77        94.94337
906.17         96.1228
906.57        97.28814
906.96        98.12311
907.36         98.4745
907.76        98.45575
908.15        98.05051
908.55        97.14722
908.95        95.86435
909.34        94.23141
909.74        92.69604
910.14        91.76113
910.53         91.5826
910.93        92.14073
911.33         93.1099
911.72        93.86382
912.12        94.13126
912.52        94.01846
912.91        93.90918
913.31        94.34674
913.70        95.47591
914.10        97.17641
914.49        98.90611
914.89        99.22147
915.29        97.69955
915.68        94.91148
916.08        92.20873
916.47        90.84901
916.87         90.9778
917.26        92.20274
917.66        93.72525
918.05         94.2767
918.45        93.52142
918.84        91.92241
919.24        90.28069
919.64        89.74004
920.03        90.59007
920.42        92.43832
920.82        94.63543
921.21        96.20097
921.61        96.62428
922.00        96.25738
922.40        95.40242
922.79        94.47382
923.19        93.68441
923.58        92.83694
923.98        91.91734
924.37        91.25251
924.77        91.13269
925.16        89.73811
925.55        90.63202
925.95        91.34061
926.34        92.87228
926.74         94.7849
927.13        96.66103
927.52        97.55663
927.92        97.34614
928.31        96.31307
928.70        94.79579
929.10        93.39948
929.49        92.30544
929.89        91.40401
930.28        90.90205
930.67        91.14975
931.07        92.03664
931.46        93.53436
931.85        94.98669
932.24         95.3985
932.64        94.60037
933.03        92.76347
933.42        90.35213
933.82         88.5008
934.21        87.57844
934.60        87.34742
934.99        87.46828
935.39        87.63751
935.78        87.82324
936.17        87.86551
936.56        87.45105
936.96        88.42663
937.35        87.04321
937.74        86.38795
938.13        85.94458
938.53        86.45708
938.92        87.94809
939.31        90.38895
939.70          93.046
940.09        93.88647
940.49        92.28244
940.88        89.11713
941.27        85.87917
941.66        84.30198
942.05        84.59597
942.44        86.18137
942.84        88.41698
943.23        90.23769
943.62        91.10472
944.01        91.31712
944.40        91.03683
944.79         90.5022
945.18        89.81861
945.57        88.82001
945.97         87.5573
946.36        86.38169
946.75        85.60735
947.14         85.2916
947.53        85.37139
947.92        85.69405
948.31        86.20742
948.70        86.97926
949.09        87.87135
949.48        88.51392
949.87        88.70708
950.26        88.43149
950.65        87.98421
951.04        87.88425
951.43        88.22974
951.82        88.88466
952.21        89.41019
952.60        89.10432
952.99        87.85658
953.38         85.9397
953.77        83.96701
954.16        82.80257
954.55        82.63177
954.94        83.26903
955.33        84.12131
955.72        84.18159
956.11         83.2154
956.50        81.49696
956.89        79.82747
957.28        79.66045
957.66        81.43916
958.05        84.43425
958.44        87.62689
958.83        89.53396
959.22        89.75229
959.61        88.63975
960.00        86.81201
960.39        85.27906
960.78        84.39165
961.16        83.95412
961.55        83.51111
961.94        82.33709
962.33        80.38725
962.72        78.08723
963.11        76.17551
963.49        75.55244
963.88        76.32912
964.27        78.29559
964.66        80.73785
965.04        82.09451
965.43        81.69505
965.82        80.09466
966.21        78.26366
966.60        77.49213
966.98        78.03297
967.37        79.41852
967.76        81.15293
968.15        82.26048
968.53        82.35979
968.92        81.76826
969.31        80.82359
969.69        79.91456
970.08        79.18573
970.47        78.52274
970.86        77.87038
971.24        77.18433
971.63        76.47704
972.02        75.82845
972.40        75.44125
972.79        75.58685
973.17        76.41103
973.56        77.71749
973.95        79.17822
974.33        80.11508
974.72        80.19334
975.11        79.54728
975.49        78.64543
975.88        78.25157
976.26        78.47815
976.65        79.17213
977.04        79.79767
977.42        79.12933
977.81        76.89481
978.19        73.71796
978.58        71.08838
978.96        70.36995
979.35        71.73425
979.74        74.93629
980.12        79.32132
980.51         82.2672
980.89        82.94756
981.28         81.8848
981.66        80.17657
982.05        79.28362
982.43        79.44364
982.82        80.14903
983.20        81.13898
983.59        82.11796
983.97        83.03904
984.35        84.06963
984.74        84.90298
985.12         85.1917
985.51        84.58713
985.89          83.106
986.28        81.16058
986.66        79.29927
987.04         77.9947
987.43          77.271
987.81        76.83364
988.20        76.22857
988.58        75.23861
988.96        73.65239
989.35        71.80688
989.73        71.58175
990.12        73.85866
990.50        77.78777
990.88        80.85482
991.27        81.24645
991.65        79.36356
992.03        75.75187
992.42        71.84167
992.80        70.09518
993.18        71.27504
993.56        73.90669
993.95        76.77341
994.33        79.02029
994.71        80.28322
995.10         81.1384
995.48        81.27233
995.86        79.94628
996.24        77.06628
996.63        72.48617
997.01        67.34126
997.39        65.16572
997.77        67.50357
998.15        73.49271
998.54        80.17522
998.92          83.592
999.30        82.51038
999.68        78.04324
1000.06        71.36031
1000.45        65.58543
1000.83        62.30782
1001.21        60.65237
1001.59        60.59554
1001.97        62.19703
1002.35        65.27591
1002.73        70.56463
1003.12        76.51527
1003.50        77.88523
1003.88         72.5052
1004.26        62.95268
1004.64        53.97696
1005.02        49.61026
1005.40        50.13952
1005.78         55.2162
1006.16        65.52026
1006.54        76.15784
1006.92        80.35793
1007.30        79.55804
1007.69        77.10044
1008.07        75.36311
1008.45        74.31482
1008.83        72.78508
1009.21        67.81242
1009.59        47.24194
1009.97       -17.29821
1010.35        -114.628
1010.73       -103.1315
1011.11       -41.75266
1011.49        4.236386
1011.86        37.08675
1012.24         55.4827
1012.62        62.44151
1013.00        62.14402
1013.38        56.11007
1013.76        47.12966
1014.14        46.01254
1014.52        62.33779
1014.90        99.42156
1015.28        146.8459
1015.66        171.5522
1016.04        153.8681
1016.41        100.8019
1016.79        43.92281
1017.17        17.24485
1017.55        17.30379
1017.93        26.92013
1018.31        37.28804
1018.69        43.96049
1019.06        47.23507
1019.44        48.52594
1019.82        49.05227
1020.20        51.24794
1020.58        58.02475
1020.95        72.87224
1021.33        91.19123
1021.71        149.0559
1022.09        127.1761
1022.46        134.8561
1022.84        142.1749
1023.22        152.4084
1023.60         176.173
1023.97        402.2462
1024.35        21.99431
1024.73        66.88779
