SpectraSmart Spectrum 2.9.0.0
--------- Device Information -----------
Spectrum Name :  反射率_0
Saving Time :  2024/04/26 01:45:47
Spectro-Module Model Name : SE2030-DUVN
Spectro-Module Serial Number : OS361AC55029948
Wavelength Start : 200
Wavelength End : 1025
Wavelength Unit : Wavelength(nm)
Spectrum Unit : Reflectance(%)
-----------Spectrum Setting ------------
Integration Time : 20ms
Average : 10
Boxcar : 0
Background removal :  enabled
linearity correction :  enabled
SC :  disabled
Intensity correction :  disabled
DWT denoise :  enabled
savitzky-golay :  disabled
FFT :  disabled
Running average :  disabled
Kalman :  disabled
High pass :  disabled
---------------BEGIN--------------------
Wavelength(nm)             Reflectance(%)
200.29               0
200.75        93.06404
201.21        84.35814
201.67         74.2927
202.13        67.89126
202.58        65.85197
203.04         67.0359
203.50        70.22848
203.96        73.25566
204.42        75.06306
204.88        76.11806
205.34        76.97104
205.80        78.43605
206.26        81.17675
206.72         86.3813
207.18         95.0581
207.64        99.09478
208.10        87.98132
208.55        73.94852
209.01         66.5169
209.47        64.92456
209.93        66.69852
210.39        71.02385
210.85        76.10767
211.31        77.80154
211.77        74.75927
212.23         68.5606
212.69        62.18909
213.14        60.37331
213.60         63.8041
214.06        71.12878
214.52         79.7275
214.98        85.62614
215.44        87.49999
215.90        86.39263
216.36        83.68654
216.81        81.14923
217.27        79.70648
217.73        78.95145
218.19        77.66779
218.65        74.04573
219.11        67.20887
219.57        56.11059
220.02        42.43898
220.48        35.41825
220.94        39.91027
221.40        53.26038
221.86        65.69415
222.32        67.21847
222.77        59.13762
223.23        47.05571
223.69        36.67543
224.15        33.77851
224.61        37.77879
225.06        45.79034
225.52        53.94154
225.98        57.30212
226.44        55.02651
226.90        49.28895
227.36        42.82949
227.81        39.30695
228.27        39.77514
228.73        42.66399
229.19        46.48808
229.65        49.11386
230.10        49.95159
230.56        49.86206
231.02        49.43058
231.48        49.24416
231.93        49.41438
232.39        49.71474
232.85        49.98281
233.31        50.08813
233.77        49.99037
234.22        49.76682
234.68        49.57738
235.14         49.6214
235.60        49.96756
236.05        50.57981
236.51        51.27184
236.97        51.76298
237.43        52.07928
237.88        52.43481
238.34        53.11684
238.80        54.91199
239.26        58.01866
239.71        62.17469
240.17        66.63232
240.63        70.71134
241.08        74.13484
241.54        76.82993
242.00        79.02203
242.46         81.4231
242.91        85.29593
243.37        92.64951
243.83        113.5253
244.28        180.4502
244.74        255.0682
245.20        211.6108
245.66        173.1908
246.11         163.347
246.57        170.6263
247.03        202.4972
247.48        293.2791
247.94        228.3667
248.40        126.6874
248.85        97.66862
249.31        89.72931
249.77          89.247
250.22         92.8625
250.68        100.7636
251.14        112.7872
251.59        121.3301
252.05        118.5848
252.51        107.9266
252.96        96.01818
253.42        89.59142
253.88        88.38324
254.33        89.98863
254.79        94.22121
255.25        100.1273
255.70        106.1664
256.16        112.1876
256.62         116.351
257.07        116.7658
257.53        114.4384
257.99         109.982
258.44        104.8021
258.90        101.7436
259.35        99.99213
259.81        98.95179
260.27        97.23666
260.72        93.48117
261.18        88.47626
261.63        82.65746
262.09        77.28519
262.55        72.98407
263.00        69.74995
263.46        67.46411
263.91        65.52909
264.37        63.72271
264.83        61.75289
265.28        59.58139
265.74        57.47662
266.19        55.55175
266.65        54.08751
267.11        52.96712
267.56        51.95836
268.02         50.7972
268.47        49.33032
268.93        47.65208
269.38         45.9218
269.84        44.65304
270.30        43.97301
270.75        43.74002
271.21        43.65285
271.66        43.24696
272.12        42.40573
272.57        41.27253
273.03        40.10276
273.48        39.18195
273.94        38.62279
274.39        38.27348
274.85        38.00966
275.31        37.62684
275.76        37.05317
276.22        36.38523
276.67        35.67556
277.13         35.1116
277.58        34.66555
278.04        34.32492
278.49        33.93591
278.95        33.37227
279.40        32.58216
279.86        31.68874
280.31        30.78553
280.77        30.14144
281.22        29.75528
281.68        29.57901
282.13        29.47786
282.59        29.30886
283.04        29.02585
283.50        28.72528
283.95        28.42485
284.41        28.18295
284.86        28.00664
285.32        27.87388
285.77        27.82856
286.22        28.01236
286.68        28.39567
287.13        28.89148
287.59        29.30572
288.04        29.32965
288.50        28.95396
288.95        28.27402
289.41          27.524
289.86        26.93891
290.32         26.6541
290.77        26.58705
291.22        26.72139
291.68        26.98432
292.13        27.34938
292.59        27.85209
293.04        28.48503
293.50        29.23167
293.95        30.06252
294.40        30.93739
294.86        31.83407
295.31         32.7392
295.77        33.65796
296.22        34.60022
296.68        35.55202
297.13        36.45881
297.58        37.33019
298.04        38.19561
298.49        39.13916
298.95        40.34282
299.40        41.81882
299.85        43.50666
300.31        45.25273
300.76        46.80843
301.21        48.08989
301.67         49.2039
302.12        50.20341
302.58         51.2712
303.03        52.43331
303.48        53.66937
303.94        55.03677
304.39        56.56142
304.84         58.2443
305.30        60.06778
305.75         61.8774
306.20        63.46073
306.66        64.79134
307.11        65.87666
307.57        66.88431
308.02        67.95184
308.47        69.17902
308.93        70.53665
309.38        71.93877
309.83        73.30062
310.29        74.58055
310.74        75.76437
311.19        76.91371
311.65        78.12309
312.10         79.3911
312.55        80.69501
313.00        81.87722
313.46        82.69176
313.91         83.0828
314.36        83.14949
314.82        83.15999
315.27        83.47607
315.72        84.21764
316.18        85.28391
316.63        86.47146
317.08        87.39364
317.53        87.93311
317.99        88.18444
318.44        88.35959
318.89        88.80859
319.35        89.59019
319.80        90.61685
320.25        91.60566
320.70         92.0985
321.16        91.99702
321.61        91.45678
322.06        90.80768
322.51        90.56457
322.97        90.83105
323.42        91.49511
323.87        92.28044
324.32        92.71044
324.78        92.64466
325.23        92.28033
325.68        91.83007
326.13        91.66326
326.59        91.86791
327.04        92.35189
327.49        92.98567
327.94        93.59137
328.39        94.08953
328.85         94.5109
329.30        94.90464
329.75         95.1844
330.20        95.36481
330.66        95.44525
331.11         95.5689
331.56        95.89771
332.01         96.4902
332.46        97.29625
332.92        98.21861
333.37        99.25907
333.82         100.276
334.27        101.2626
334.72        102.0941
335.17        102.5816
335.63        102.6993
336.08        102.5527
336.53        102.3064
336.98         102.281
337.43        102.5754
337.88        103.1023
338.34        103.7995
338.79        104.6479
339.24        105.5572
339.69        106.5668
340.14        107.4832
340.59        107.9653
341.05        107.9639
341.50         107.555
341.95        107.0865
342.40        107.1107
342.85        107.7363
343.30        108.8063
343.75        109.9823
344.20        110.6625
344.66        110.6924
345.11         110.256
345.56        109.6366
346.01        109.2577
346.46        109.2469
346.91        109.4706
347.36        109.8156
347.81        110.1153
348.26        110.3157
348.72        110.5003
349.17        110.6729
349.62        110.8737
350.07        111.1012
350.52        111.3045
350.97        111.4657
351.42        111.5809
351.87        111.6409
352.32        111.6522
352.77        111.5851
353.22        111.3892
353.67        111.0727
354.13        110.6819
354.58        110.2607
355.03        109.9371
355.48        109.7329
355.93        109.6008
356.38        109.4862
356.83        109.2996
357.28        109.0024
357.73        108.6185
358.18        108.1296
358.63        107.5088
359.08        106.7756
359.53         105.957
359.98        105.1267
360.43        104.3984
360.88        103.7961
361.33        103.2822
361.78        102.8257
362.23        102.3702
362.68         101.892
363.13        101.4164
363.58        100.9002
364.03         100.271
364.48        99.52937
364.93        98.69667
365.38        97.87351
365.83        97.23293
366.28        96.79766
366.73        96.48965
367.18         96.2142
367.63        95.81339
368.08        95.24968
368.53        94.61208
368.98        93.88624
369.43        93.03838
369.88        92.09378
370.33        91.04861
370.78        90.10665
371.23        89.61295
371.68        89.62281
372.13        90.03999
372.58        90.53471
373.03        90.53816
373.48         89.9195
373.93        88.86712
374.38        87.70571
374.83        86.93552
375.28        86.67705
375.72        86.74618
376.17        86.97755
376.62         87.0807
377.07         86.9427
377.52        86.64806
377.97        86.22042
378.42        85.69154
378.87        85.10528
379.32        84.46652
379.77        83.81246
380.22        83.20062
380.67        82.63986
381.11        82.11901
381.56        81.66278
382.01        81.30694
382.46        81.05891
382.91         80.9284
383.36        80.80493
383.81        80.51521
384.26        80.03411
384.71        79.39616
385.15        78.76994
385.60        78.48614
386.05        78.54001
386.50        78.82363
386.95        79.07497
387.40        78.86022
387.85        78.13992
388.29        77.09272
388.74        76.10323
389.19        75.41073
389.64        75.05795
390.09          74.908
390.54        74.94296
390.98        75.13112
391.43        75.41579
391.88        75.78386
392.33         76.0387
392.78        75.86684
393.23        75.27724
393.67        74.41766
394.12         73.6439
394.57        73.12666
395.02         72.9851
395.47         73.3418
395.91        74.07005
396.36        74.59494
396.81         74.7939
397.26        74.87299
397.71        74.81342
398.15        74.46292
398.60        73.94614
399.05        73.31646
399.50        72.69937
399.95        72.06635
400.39        71.77214
400.84        71.56476
401.29        71.48846
401.74        71.46107
402.18        71.47009
402.63        71.47046
403.08        71.53873
403.53        71.77954
403.97        72.18112
404.42        72.67233
404.87        73.04697
405.32         72.9547
405.76        72.34472
406.21        71.45094
406.66        70.54103
407.11        69.95748
407.55        69.85479
408.00        70.16931
408.45        70.73578
408.90        71.29434
409.34        71.54791
409.79         71.0789
410.24         70.1659
410.68        69.70237
411.13        69.79446
411.58        69.94934
412.03        70.10941
412.47         70.3931
412.92        70.70548
413.37         71.0461
413.81        71.29835
414.26        71.32343
414.71        71.08591
415.15        70.61672
415.60        70.07516
416.05        69.74159
416.49        69.69359
416.94        69.87958
417.39        70.10717
417.83        70.02868
418.28        69.59132
418.73        68.92367
419.17        68.30025
419.62         68.1552
420.07        68.52997
420.51        69.26704
420.96        70.07767
421.41        70.44054
421.85        70.20162
422.30        69.74477
422.74        69.20037
423.19         68.6014
423.64        68.11643
424.08        68.30244
424.53        69.01325
424.98        69.45036
425.42        69.50222
425.87         69.7435
426.31        70.15284
426.76        70.10486
427.21        69.79877
427.65        70.13218
428.10        70.99744
428.54        71.69863
428.99        72.17704
429.44        72.30922
429.88        72.15025
430.33        72.78387
430.77        73.57265
431.22        72.31207
431.66        69.60406
432.11        68.14023
432.56        68.27481
433.00        69.23181
433.45        70.76134
433.89        72.71555
434.34        73.66806
434.78        74.63521
435.23        70.57535
435.67        68.84252
436.12        71.72845
436.57        72.74725
437.01        72.60012
437.46        72.86736
437.90        73.45716
438.35        72.83422
438.79        73.74771
439.24        73.65734
439.68        73.44281
440.13         73.0135
440.57        72.72185
441.02        73.43778
441.46        74.80075
441.91        75.58443
442.35        75.52563
442.80        74.76965
443.24        73.68166
443.69        74.07832
444.13        75.63819
444.58        75.49986
445.02         73.9323
445.47         73.8773
445.91        75.18096
446.36        75.64785
446.80        75.18079
447.24        74.92834
447.69        75.02109
448.13        75.19692
448.58        75.48499
449.02        75.89309
449.47        76.33458
449.91        76.68357
450.36        76.89949
450.80        76.99928
451.25        76.98995
451.69        76.85667
452.13        76.63682
452.58        76.33534
453.02        76.05322
453.47        75.99612
453.91        76.18034
454.36        76.55808
454.80        76.95829
455.24        77.05212
455.69        76.79936
456.13        76.28459
456.58        75.74813
457.02        75.43536
457.46        75.43636
457.91        75.63422
458.35        75.88882
458.79        76.03333
459.24        76.05163
459.68        75.91866
460.13        75.65303
460.57        75.39226
461.01        75.25493
461.46        74.47922
461.90        74.14575
462.34         74.3876
462.79        74.27973
463.23        74.43261
463.68         74.8491
464.12        75.20088
464.56        75.48918
465.01        75.58481
465.45        75.35905
465.89        75.11568
466.34        74.83994
466.78        73.81982
467.22        72.56268
467.67        72.55298
468.11        73.88428
468.55        74.55686
468.99         74.3457
469.44        73.87095
469.88        73.37625
470.32        73.39461
470.77        73.84644
471.21        73.91578
471.65        73.55516
472.10        73.42487
472.54        73.53654
472.98        73.57355
473.42        73.52256
473.87        73.57874
474.31        73.64893
474.75        73.45702
475.20        73.10547
475.64        72.88171
476.08        73.11427
476.52        73.08692
476.97        72.83158
477.41        73.13184
477.85        73.51535
478.29        73.08286
478.74        73.42057
479.18        73.68626
479.62        72.74527
480.06        73.41525
480.50        73.64017
480.95        73.90647
481.39        73.77891
481.83        72.90218
482.27        72.90791
482.72        72.85704
483.16        71.50988
483.60        71.79267
484.04        73.39462
484.48        73.76277
484.93        73.42011
485.37        75.07203
485.81          75.695
486.25        74.36879
486.69        99.39159
487.14         80.3781
487.58        50.58165
488.02        62.38244
488.46        71.05675
488.90        70.30933
489.34        71.77918
489.79        71.34193
490.23        73.15653
490.67        74.04513
491.11        72.95788
491.55        72.95667
491.99        73.58265
492.43         73.5013
492.88        72.81335
493.32        72.86664
493.76        73.10847
494.20         73.3791
494.64        73.42229
495.08        73.39893
495.52        73.40903
495.96        73.41187
496.41        73.33656
496.85        73.71727
497.29        74.30272
497.73        73.04156
498.17         71.0102
498.61        71.42682
499.05        74.22573
499.49        74.89734
499.93         74.9733
500.37        74.55501
500.82        73.66392
501.26        73.69743
501.70         74.3644
502.14         74.6383
502.58        74.35987
503.02        74.18922
503.46        74.12597
503.90        73.77899
504.34        73.29858
504.78        73.09944
505.22        73.21767
505.66        73.59142
506.10        74.11178
506.54        74.29311
506.98        73.99493
507.42        74.24118
507.86        74.01912
508.30        73.31792
508.74        73.82219
509.18        73.90803
509.62        74.06166
510.06        74.09399
510.50        73.99715
510.94        73.79779
511.38        73.57933
511.82        73.51511
512.26        73.63544
512.70        73.88564
513.14        74.17268
513.58        74.34778
514.02        74.36288
514.46        74.25667
514.90        74.10411
515.34        74.00936
515.78        73.99537
516.22        74.08863
516.66        74.22963
517.10        74.17456
517.54        73.90387
517.98        73.99228
518.42        73.76863
518.86         73.8878
519.30        74.13689
519.74        74.52512
520.18        74.93546
520.62        75.17608
521.06        75.20699
521.50        75.08413
521.93        74.87807
522.37        74.70428
522.81        74.61378
523.25         74.5768
523.69        74.59578
524.13        74.67387
524.57        74.80148
525.01        74.98029
525.45        75.17382
525.89        75.31733
526.32         75.3818
526.76        75.37305
527.20        75.30868
527.64        75.24341
528.08         75.2095
528.52        75.13211
528.96        74.96997
529.40        74.87042
529.83        74.87311
530.27        74.18444
530.71        74.31784
531.15        74.16393
531.59        74.17616
532.03        74.28743
532.46        74.49377
532.90        74.74913
533.34        75.00887
533.78        75.27846
534.22        75.49512
534.66        75.57665
535.09        75.50147
535.53        75.31526
535.97         75.0802
536.41        74.92394
536.85        74.88205
537.28        74.92436
537.72        74.99141
538.16        74.99754
538.60        74.92297
539.04        74.74677
539.47        74.51524
539.91        74.49468
540.35        74.61904
540.79        74.55097
541.22        74.31761
541.66        74.26185
542.10        74.38417
542.54        74.49005
542.97        74.55024
543.41        74.63351
543.85        74.71849
544.29        74.80521
544.72        74.84675
545.16        74.78648
545.60        74.60747
546.04        74.37809
546.47        74.20048
546.91        74.11224
547.35        74.19425
547.79        74.74165
548.22        75.46595
548.66        75.59405
549.10        75.07098
549.53        74.32741
549.97        73.67559
550.41         73.3522
550.84        73.45639
551.28        73.93504
551.72        74.57051
552.15        74.95876
552.59        74.99068
553.03        74.78838
553.46        74.47649
553.90        74.31953
554.34        74.37557
554.77        74.48142
555.21         74.5471
555.65        74.67707
556.08        74.88046
556.52         74.2247
556.96        74.50268
557.39        74.37926
557.83        74.41444
558.27        74.52099
558.70        74.68079
559.14        74.86208
559.57        75.01356
560.01        75.11292
560.45        75.14459
560.88        75.20625
561.32        75.26954
561.75        75.04155
562.19        74.64759
562.63        74.35114
563.06        74.21275
563.50         74.2555
563.93         74.4021
564.37        74.48832
564.80        74.46399
565.24        74.46273
565.68        74.47062
566.11        74.44526
566.55        74.43809
566.98         74.3793
567.42        74.31509
567.85        74.46711
568.29        74.81838
568.72        74.80488
569.16        74.64096
569.60        75.05171
570.03        75.38463
570.47        75.38332
570.90        75.32077
571.34        73.10724
571.77        74.08569
572.21        74.64822
572.64        73.78082
573.08        72.52088
573.51        69.95286
573.95        72.47504
574.38        76.44264
574.82        74.42337
575.25        73.77299
575.69        71.39777
576.12        70.64865
576.56        69.77999
576.99        71.35403
577.42        75.08067
577.86        74.65395
578.29        73.91528
578.73        77.57774
579.16        71.46475
579.60        65.78296
580.03        68.86951
580.47        73.09972
580.90        74.96119
581.33        73.75109
581.77        72.38131
582.20        79.47906
582.64        78.65188
583.07        67.48602
583.51        66.43868
583.94        65.52331
584.37         68.6259
584.81        72.00436
585.24        75.66142
585.68        77.20206
586.11        75.88436
586.54        70.55461
586.98        68.02277
587.41        69.31828
587.85        73.22739
588.28        75.33878
588.71        71.84504
589.15        69.60979
589.58        71.42492
590.01        71.73332
590.45        72.90129
590.88        73.55795
591.31        72.74743
591.75         72.2893
592.18        72.35444
592.61        73.90746
593.05        74.60518
593.48        78.16747
593.91        78.13474
594.35        71.96265
594.78        70.11352
595.21        70.21011
595.65        73.39006
596.08        76.04815
596.51        73.11562
596.94         71.0816
597.38        71.89642
597.81        74.95662
598.24        76.49745
598.68        74.94688
599.11        74.01178
599.54        76.42753
599.97        77.98105
600.41        72.61969
600.84        72.68736
601.27        74.18098
601.70        73.33154
602.14        73.40974
602.57        72.32314
603.00        72.75363
603.43        74.58027
603.87        75.70663
604.30        75.44518
604.73        73.57047
605.16        71.95485
605.60        72.97482
606.03        74.08273
606.46         75.2104
606.89        74.96951
607.32        72.70555
607.76        72.39671
608.19        75.04538
608.62        74.22565
609.05        73.10883
609.48        73.59986
609.92        73.28564
610.35        72.78329
610.78        75.25211
611.21        75.74871
611.64        72.41792
612.07        73.12271
612.50        73.57582
612.94        74.06181
613.37        73.47793
613.80        73.45004
614.23        74.02812
614.66        73.86401
615.09        74.07983
615.52        74.20541
615.96        74.29958
616.39        74.56813
616.82        73.76608
617.25        72.97935
617.68        73.97693
618.11        74.60415
618.54        75.12038
618.97        74.66135
619.40        73.72002
619.84        73.14617
620.27        74.70404
620.70        75.33817
621.13        75.38505
621.56        74.74856
621.99        73.76573
622.42        74.55922
622.85        76.60301
623.28        76.09071
623.71        75.44892
624.14        75.52846
624.57        75.38182
625.00        75.09453
625.43        75.31393
625.86        74.64275
626.29        74.86347
626.72        75.09395
627.15        74.97637
627.58        75.12472
628.01         75.2168
628.44        75.41954
628.87         75.8318
629.30        75.61844
629.73        75.83166
630.16        76.87384
630.59        75.79901
631.02        75.48787
631.45        75.12144
631.88        74.81174
632.31        74.56297
632.74        74.81963
633.17        74.81287
633.60        74.99202
634.03        75.09975
634.46        75.19019
634.89        75.25633
635.32        75.30383
635.75         75.3425
636.18        75.34637
636.61        75.33589
637.04        75.35654
637.47        75.41398
637.89        75.50825
638.32        75.58385
638.75        75.59804
639.18        75.54063
639.61        75.43732
640.04        75.31174
640.47        75.20026
640.90        75.12146
641.33        75.05803
641.76        75.00163
642.18        75.04628
642.61        75.18872
643.04        75.23596
643.47        75.10578
643.90        75.64342
644.33        75.27528
644.76        75.27633
645.18        75.21163
645.61        75.15263
646.04        75.09844
646.47        75.02516
646.90        74.98513
647.33         75.0109
647.75        75.12945
648.18        75.36549
648.61        75.55159
649.04        75.48409
649.47        75.12556
649.89        74.28698
650.32        73.40912
650.75        73.48335
651.18        74.41759
651.61         75.2596
652.03        75.58458
652.46        75.39228
652.89        75.14919
653.32        74.48634
653.74        73.67915
654.17        75.67214
654.60        76.22329
655.03        73.25977
655.46        74.87169
655.88         78.9465
656.31        82.62845
656.74        182.4952
657.16        117.4626
657.59        41.62912
658.02        32.29771
658.45        56.15491
658.87        72.12041
659.30        75.48896
659.73        74.67795
660.15        72.63625
660.58        74.55811
661.01        76.38577
661.44        74.12572
661.86        73.35593
662.29        73.26506
662.72        74.25018
663.14        75.98549
663.57        75.99352
664.00        74.55575
664.42        74.20116
664.85        75.02047
665.27        75.41187
665.70         75.2041
666.13        75.01263
666.55        74.83546
666.98        74.49658
667.41        74.11993
667.83        73.96425
668.26        74.07755
668.69         74.3518
669.11        74.60853
669.54         74.9073
669.96        74.49414
670.39        74.07521
670.82         73.6228
671.24        73.33238
671.67         73.3611
672.09        73.86918
672.52        74.52805
672.94        75.10412
673.37         74.2943
673.80        74.00162
674.22        73.95545
674.65        73.88764
675.07        73.80194
675.50        73.71687
675.92        73.67233
676.35        73.76614
676.77        73.99442
677.20        74.24152
677.62        74.45617
678.05        74.55104
678.47        74.49454
678.90        74.37809
679.32        74.18231
679.75        73.92538
680.17         73.9053
680.60        73.86642
681.02        73.86298
681.45        73.80818
681.87        73.69611
682.30        73.57758
682.72        73.49737
683.15        73.46455
683.57        73.54016
684.00        73.77749
684.42        74.21076
684.85        74.40089
685.27        74.33645
685.70        74.16863
686.12        73.97069
686.54        73.86954
686.97        73.89074
687.39         74.0153
687.82        74.15083
688.24        74.20076
688.66        74.11755
689.09        73.94128
689.51        73.77284
689.94        73.73154
690.36        73.83872
690.78        74.10316
691.21        74.44595
691.63        74.55441
692.06         74.3541
692.48        74.67021
692.90        74.25943
693.33        74.30554
693.75        74.44419
694.17        74.66917
694.60        74.90903
695.02        75.05968
695.44         75.0639
695.87        75.11607
696.29        75.24104
696.71        74.90851
697.14        74.33075
697.56        74.73792
697.98        75.86581
698.41        75.65104
698.83        74.87366
699.25        74.42908
699.68         74.5848
700.10        74.55414
700.52        74.34393
700.94         74.3733
701.37        74.62101
701.79        74.94295
702.21        75.26643
702.64        75.62915
703.06         75.9074
703.48        75.89922
703.90        75.59138
704.33        75.04643
704.75        74.43085
705.17        74.10641
705.59         74.1698
706.01        74.40564
706.44         74.6528
706.86        75.29083
707.28        75.24514
707.70        75.35077
708.12        75.34608
708.55        75.29401
708.97        75.19412
709.39        75.03562
709.81        74.88116
710.23        74.83092
710.66         74.9091
711.08         75.1229
711.50        75.35436
711.92        75.42809
712.34        75.30935
712.76        75.02998
713.19          74.726
713.61        74.67529
714.03        74.92083
714.45        75.28994
714.87        75.75617
715.29        75.88506
715.71        75.66433
716.13        75.19357
716.56        74.66268
716.98        74.40605
717.40        74.49991
717.82        74.83965
718.24        75.27592
718.66        75.55495
719.08        75.59822
719.50        75.48883
719.92        75.28906
720.34        75.11863
720.76        75.02483
721.19        74.84053
721.61        74.82567
722.03         74.8805
722.45        75.06927
722.87        75.37601
723.29        75.70889
723.71        75.90136
724.13        75.90978
724.55        75.77332
724.97        75.58724
725.39        75.51624
725.81        75.60154
726.23        75.79136
726.65        76.00552
727.07        76.11631
727.49         76.0947
727.91        75.99152
728.33        75.86395
728.75        75.80486
729.17         75.8396
729.59        75.92599
730.01        76.04615
730.43        76.16461
730.85        76.27122
731.27        76.41299
731.69         76.5371
732.10         76.5342
732.52        76.39064
732.94        76.16991
733.36        76.01836
733.78         76.0563
734.20        76.24997
734.62         76.9377
735.04        77.84063
735.46         77.7252
735.88        76.86355
736.30        77.08079
736.72        78.30857
737.13        78.73158
737.55        78.11179
737.97        77.89362
738.39        78.15046
738.81         77.5391
739.23        76.47743
739.65        77.37469
740.06        79.70134
740.48        79.98811
740.90        78.33434
741.32        77.61066
741.74        78.08512
742.16        78.33086
742.57        78.39921
742.99         79.1079
743.41        80.21204
743.83        80.83945
744.25        80.84448
744.67        80.45679
745.08         79.9571
745.50        79.79782
745.92        80.11019
746.34        80.72749
746.75        81.42725
747.17        81.83375
747.59        81.87269
748.01        81.69086
748.42        81.48568
748.84        81.54179
749.26        81.97485
749.68        82.62892
750.09         83.3457
750.51        84.08831
750.93        84.62421
751.35        84.31825
751.76         83.4169
752.18        83.08807
752.60        83.35623
753.01        83.35016
753.43        83.08292
753.85        83.19833
754.27        83.71966
754.68        84.36397
755.10        84.99728
755.52        85.56559
755.93        85.98594
756.35        86.22279
756.77        86.33395
757.18        86.28527
757.60        86.09917
758.02        86.16432
758.43        86.34602
758.85         85.6061
759.26         84.3824
759.68        84.61716
760.10        86.06541
760.51        86.67637
760.93         86.0817
761.34        85.13984
761.76        84.24236
762.18        83.61678
762.59         83.4899
763.01         83.9153
763.42        84.83199
763.84        85.55962
764.26        85.96503
764.67        86.36498
765.09        86.60802
765.50        86.24464
765.92         85.3732
766.33        84.11795
766.75         82.9598
767.16        82.69668
767.58        83.43698
768.00        85.02343
768.41         87.0332
768.83        88.30152
769.24        88.38493
769.66        87.58556
770.07        86.40694
770.49        85.12821
770.90         84.0861
771.32         84.8045
771.73        86.67213
772.15        85.96667
772.56        83.23901
772.97         82.8615
773.39        84.67452
773.80        85.31034
774.22        84.51555
774.63        84.35963
775.05        84.82825
775.46        85.03319
775.88        84.89127
776.29        84.65757
776.70        84.44413
777.12        84.45886
777.53        84.75813
777.95        85.21651
778.36        85.64412
778.77        85.71027
779.19        85.38343
779.60        84.76126
780.02        84.11588
780.43        83.93508
780.84        84.37293
781.26        84.87854
781.67        85.32357
782.09        86.33551
782.50        87.44136
782.91        86.26807
783.33        84.11531
783.74        83.35552
784.15        84.32095
784.57        85.08655
784.98        85.31618
785.39        85.41932
785.81        85.29724
786.22        84.70373
786.63          84.014
787.04        83.92327
787.46        84.51579
787.87        85.57669
788.28         86.7221
788.70        87.29464
789.11        87.12997
789.52        86.45201
789.93        85.61514
790.35        85.11165
790.76        85.08355
791.17        85.44185
791.58        85.96048
792.00        86.20758
792.41        86.06138
792.82        85.67155
793.23        85.34508
793.65        85.14922
794.06         85.2906
794.47        86.66119
794.88        88.41723
795.29         87.9835
795.71        85.60974
796.12        83.33456
796.53        81.91806
796.94        81.65161
797.35        82.58335
797.76        84.03551
798.18        85.35182
798.59        86.24537
799.00        86.35927
799.41         85.4037
799.82        83.88794
800.23        82.98112
800.64        82.92834
801.06        83.29142
801.47         83.9412
801.88        84.55261
802.29        84.96959
802.70         85.3333
803.11        85.58905
803.52        85.60749
803.93        85.39713
804.34        84.94112
804.75        84.43073
805.17        84.28792
805.58        84.64175
805.99        85.10551
806.40        85.44662
806.81        85.96353
807.22         86.2188
807.63        84.77441
808.04        82.32235
808.45        81.27886
808.86        81.89238
809.27        83.00648
809.68        84.12861
810.09        84.81967
810.50        84.81287
810.91        84.26601
811.32        83.48895
811.73        82.98135
812.14        82.89459
812.55        83.03616
812.96        83.34779
813.37        83.72272
813.78        84.08054
814.19        84.51325
814.60        84.81893
815.01        84.66714
815.42        84.02975
815.83        82.95139
816.24        81.85824
816.65        81.51016
817.05        82.13033
817.46        83.47918
817.87        84.97285
818.28        85.55044
818.69        84.93806
819.10        83.40736
819.51         81.6804
819.92        80.97844
820.33        81.60598
820.74        83.18189
821.14        84.98605
821.55        85.74111
821.96        85.16472
822.37        83.69733
822.78        81.97518
823.19        80.93546
823.60        80.83702
824.00        81.43702
824.41        82.33171
824.82        82.96411
825.23        83.08504
825.64        82.90417
826.04        82.57764
826.45         82.3158
826.86        82.18281
827.27         82.0562
827.68        81.92093
828.08         81.8192
828.49        81.68887
828.90        81.62144
829.31        81.54863
829.72        81.32423
830.12        80.96699
830.53        80.50381
830.94        80.16618
831.35        80.26554
831.75        80.88561
832.16        81.86971
832.57        82.97585
832.97        83.69367
833.38        83.78024
833.79        83.37908
834.20        82.77679
834.60         82.4145
835.01        82.43614
835.42        82.70821
835.82         83.0305
836.23        82.97972
836.64         82.5056
837.04        81.78351
837.45        81.07518
837.86        80.78547
838.26        81.01928
838.67        81.59802
839.08        82.33144
839.48        82.87296
839.89        83.05212
840.29        82.98198
840.70        82.72072
841.11        82.34012
841.51        81.89989
841.92        81.35505
842.33        80.82418
842.73        80.52148
843.14         80.4593
843.54        80.64722
843.95        80.89221
844.35        80.92419
844.76        80.66632
845.17        80.21547
845.57         79.7487
845.98        79.55175
846.38        79.68671
846.79        80.03253
847.19         80.4744
847.60        80.71247
848.00         80.6991
848.41        80.50482
848.81        80.25386
849.22        80.05697
849.62        80.00862
850.03        80.06641
850.43        80.26662
850.84        80.57431
851.24        81.00481
851.65         81.3801
852.05        81.80397
852.46        82.25724
852.86        82.72215
853.27        83.23114
853.67        83.35883
854.07         82.5857
854.48         80.9762
854.88        78.72327
855.29        76.61675
855.69        75.78819
856.10        76.44137
856.50        78.46114
856.90        81.08837
857.31        82.57066
857.71        82.37875
858.12        80.95261
858.52        79.15614
858.92         78.1385
859.33         78.1464
859.73        78.88215
860.13        80.06847
860.54        81.10812
860.94        81.80156
861.34        82.26932
861.75        82.58129
862.15        82.94724
862.55        83.38238
862.96        83.77055
863.36        84.05186
863.76        84.10989
864.17        83.93964
864.57          83.674
864.97        83.44915
865.38        83.44241
865.78        83.73832
866.18        84.19997
866.58        84.76509
866.99        85.30942
867.39        85.83064
867.79        86.38893
868.19        86.76726
868.60        86.56215
869.00        85.74677
869.40        84.43278
869.80        83.29962
870.21        83.40678
870.61        85.03616
871.01        87.84889
871.41        90.94171
871.81        92.75434
872.22        92.85003
872.62        91.69651
873.02        90.09698
873.42        89.41837
873.82        89.90323
874.22        90.97662
874.63        92.26784
875.03        93.03387
875.43          92.852
875.83         92.4675
876.23        91.48502
876.63        91.39835
877.03        92.37489
877.44        94.66622
877.84        100.4903
878.24        100.6786
878.64        99.99007
879.04        98.09245
879.44        95.28758
879.84        93.98759
880.24        96.14701
880.64         98.1255
881.04        100.2494
881.44        101.5172
881.84         100.906
882.24        98.96307
882.65        96.94778
883.05        96.32585
883.45         97.3538
883.85        99.71604
884.25        102.5209
884.65        104.0603
885.05        103.7892
885.45        102.3247
885.85        100.5583
886.25        99.69556
886.65         100.001
887.05        101.0411
887.45        102.4072
887.85        103.3809
888.25        103.6751
888.65        103.5905
889.04        103.1866
889.44        102.5816
889.84        101.8666
890.24        100.9541
890.64         100.163
891.04        100.0127
891.44        100.5514
891.84        101.6755
892.24        102.8445
892.64        103.0551
893.04        102.1522
893.44        100.5793
893.83        99.00121
894.23        98.38337
894.63        98.90809
895.03        100.2095
895.43        102.0573
895.83        103.9956
896.23        105.6961
896.63        107.2402
897.02        108.2116
897.42        107.9583
897.82         106.499
898.22        104.1059
898.62        101.5846
899.01        100.1324
899.41        100.0423
899.81        100.9323
900.21        102.3389
900.61        103.4609
901.00        103.9976
901.40        104.1977
901.80        104.1143
902.20        103.8344
902.59        103.4366
902.99        102.8278
903.39        102.1745
903.79        101.8064
904.18        101.8167
904.58        102.2036
904.98         102.766
905.38          103.16
905.77        103.2735
906.17        103.1794
906.57        103.0513
906.96         103.208
907.36        103.6315
907.76        104.2148
908.15        104.6736
908.55        104.4416
908.95        103.4758
909.34        101.9479
909.74        100.3553
910.14        99.28741
910.53        98.95336
910.93        99.25314
911.33        99.96728
911.72        100.6897
912.12        101.1655
912.52        101.4239
912.91        101.6434
913.31        102.1017
913.70        102.9004
914.10        103.9827
914.49        104.9391
914.89        104.6806
915.29        103.0207
915.68        100.4065
916.08        98.11558
916.47        97.31548
916.87        98.09698
917.26        100.0618
917.66        102.2476
918.05         103.077
918.45        102.1409
918.84         100.009
919.24        97.65413
919.64        96.49225
920.03         96.9114
920.42        98.45473
920.82        100.5129
921.21        102.1669
921.61        102.8779
922.00        102.9753
922.40        102.5991
922.79        101.8969
923.19        101.0316
923.58        99.98347
923.98        98.90016
924.37         98.1293
924.77        97.96696
925.16        97.89603
925.55        98.79767
925.95        100.2765
926.34        102.4195
926.74        104.8449
927.13        106.9462
927.52        107.5645
927.92        106.6156
928.31        104.4771
928.70        101.7432
929.10        99.42909
929.49        97.86454
929.89         96.8489
930.28        96.55588
930.67        97.24302
931.07        98.70279
931.46        100.8927
931.85        102.9919
932.24        103.7619
932.64        102.9775
933.03          100.87
933.42        97.98571
933.82        95.69334
934.21        94.49834
934.60        94.12902
934.99        94.30661
935.39        94.69747
935.78        95.23384
936.17        96.03038
936.56         96.8311
936.96        97.30527
937.35        96.34215
937.74        94.97449
938.13        93.82394
938.53        93.73389
938.92         94.7022
939.31        96.59165
939.70        98.78144
940.09        99.60614
940.49         98.5172
940.88        96.23282
941.27        93.85152
941.66        92.65034
942.05        92.80621
942.44        93.87762
942.84        95.44603
943.23        96.89022
943.62        97.81945
944.01         98.3914
944.40        98.63017
944.79        98.57681
945.18          98.257
945.57        97.56319
945.97        96.49097
946.36        95.30219
946.75        94.30914
947.14        93.67067
947.53        93.40995
947.92        93.44497
948.31        93.72358
948.70        94.25555
949.09        95.03953
949.48        95.97395
949.87        96.89516
950.26        97.69843
950.65        98.23698
951.04        98.38126
951.43        98.12017
951.82         97.4713
952.21        96.53994
952.60          95.563
952.99        94.64912
953.38        93.76847
953.77        92.98161
954.16         92.3173
954.55        91.78606
954.94        91.49115
955.33        91.24355
955.72        90.69728
956.11        89.82829
956.50        88.70041
956.89        87.87671
957.28        88.37127
957.66         90.4326
958.05        93.46637
958.44        96.54348
958.83        98.29865
959.22        98.39568
959.61        97.15381
960.00        95.21027
960.39        93.63956
960.78        92.80163
961.16        92.48145
961.55        92.24252
961.94        91.37315
962.33        89.79153
962.72        87.91364
963.11        86.31174
963.49          85.663
963.88        86.06104
964.27        87.32312
964.66        88.99632
965.04        90.11247
965.43        90.14818
965.82        89.41196
966.21        88.45989
966.60         88.0547
966.98        88.35774
967.37        89.08216
967.76          89.853
968.15        89.97786
968.53        89.27254
968.92        88.00172
969.31        86.63813
969.69        85.73468
970.08        85.43647
970.47        85.64714
970.86        86.02907
971.24        86.00647
971.63        85.40117
972.02        84.31963
972.40        83.39687
972.79        83.72033
973.17         85.6598
973.56        88.78917
973.95        91.99156
974.33        93.16972
974.72        91.74565
975.11         88.5032
975.49        84.95441
975.88        83.06949
976.26        83.15881
976.65        84.79532
977.04        87.02505
977.42        87.51063
977.81        85.42896
978.19         81.7568
978.58        78.56591
978.96        77.98256
979.35        80.32433
979.74        85.06445
980.12        91.16117
980.51        95.02004
980.89        95.40234
981.28        93.25575
981.66        90.04749
982.05        87.66142
982.43         86.5036
982.82         86.0205
983.20        86.10041
983.59        86.69883
983.97        87.80605
984.35        89.58107
984.74        91.55801
985.12        92.92879
985.51        92.99407
985.89        91.78786
986.28        89.70385
986.66        87.41837
987.04        85.57258
987.43        84.28204
987.81        83.34826
988.20        82.44033
988.58        81.33786
988.96        79.74208
989.35        78.24205
989.73        79.32648
990.12        83.68398
990.50        89.89296
990.88        94.19365
991.27        94.01785
991.65        89.93104
992.03        82.71672
992.42        75.04008
992.80        71.91972
993.18         74.6125
993.56        80.42915
993.95        86.55572
994.33        90.28764
994.71        91.15154
995.10        90.43987
995.48        88.61687
995.86        86.14442
996.24        83.31949
996.63        79.66092
997.01        76.04512
997.39        75.22559
997.77        78.21598
998.15        84.29971
998.54        90.72332
998.92        93.86266
999.30           92.59
999.68        87.87341
1000.06        80.66803
1000.45        73.84415
1000.83        69.16022
1001.21          66.115
1001.59        65.01877
1001.97        66.19563
1002.35        69.44753
1002.73        75.37494
1003.12        82.53064
1003.50        85.58782
1003.88        81.88448
1004.26        73.79326
1004.64        65.55988
1005.02        60.87675
1005.40        59.98294
1005.78        62.05711
1006.16        68.23243
1006.54        77.35515
1006.92        84.44666
1007.30        88.45461
1007.69        90.03521
1008.07        90.41991
1008.45        90.16346
1008.83        88.23944
1009.21        82.37756
1009.59        67.73015
1009.97        38.50657
1010.35        13.24899
1010.73        31.36761
1011.11        50.78042
1011.49        60.52814
1011.86        67.56747
1012.24        71.23018
1012.62        72.30936
1013.00        71.85146
1013.38        69.77699
1013.76        67.80073
1014.14        72.01308
1014.52        87.45185
1014.90        115.9507
1015.28        151.1007
1015.66        173.5742
1016.04        170.3056
1016.41         142.156
1016.79        104.4235
1017.17        76.73146
1017.55        63.55598
1017.93         58.4289
1018.31         57.5983
1018.69        59.20251
1019.06        62.75386
1019.44        68.71997
1019.82        79.31602
1020.20        96.37835
1020.58        122.3765
1020.95        165.2022
1021.33        246.8162
1021.71       -831.4509
1022.09        44.53134
1022.46        96.87916
1022.84         115.958
1023.22        125.9762
1023.60        135.8737
1023.97        195.2027
1024.35        102.8138
1024.73        117.3288
