SpectraSmart Spectrum 2.9.0.0
--------- Device Information -----------
Spectrum Name :  反射率_0
Saving Time :  2024/04/26 01:41:59
Spectro-Module Model Name : SE2030-DUVN
Spectro-Module Serial Number : OS361AC55029948
Wavelength Start : 200
Wavelength End : 1025
Wavelength Unit : Wavelength(nm)
Spectrum Unit : Reflectance(%)
-----------Spectrum Setting ------------
Integration Time : 20ms
Average : 10
Boxcar : 0
Background removal :  enabled
linearity correction :  enabled
SC :  disabled
Intensity correction :  disabled
DWT denoise :  enabled
savitzky-golay :  disabled
FFT :  disabled
Running average :  disabled
Kalman :  disabled
High pass :  disabled
---------------BEGIN--------------------
Wavelength(nm)             Reflectance(%)
200.29               0
200.75        94.43187
201.21        86.90283
201.67        77.72804
202.13        70.96717
202.58        67.29613
203.04        66.03892
203.50        66.48125
203.96         67.4852
204.42        68.45277
204.88        69.47241
205.34        70.85471
205.80        73.31982
206.26        77.78085
206.72        86.44641
207.18        102.1614
207.64        114.5746
208.10        103.3532
208.55        82.93668
209.01        70.29012
209.47        65.90784
209.93        66.20432
210.39        69.79474
210.85        74.09081
211.31        73.77674
211.77        67.54128
212.23        57.39564
212.69        48.28383
213.14        47.84375
213.60        57.06239
214.06        73.52139
214.52        91.15725
214.98        100.7426
215.44        100.1159
215.90        92.41875
216.36        82.12001
216.81        75.46917
217.27        74.18514
217.73        76.06957
218.19        78.21704
218.65         76.8631
219.11        70.57636
219.57        58.75088
220.02        43.12648
220.48        33.52065
220.94         35.7218
221.40        47.36205
221.86        58.43901
222.32        58.46851
222.77         48.9195
223.23        35.65129
223.69        25.02899
224.15        23.53156
224.61        30.25961
225.06         41.7356
225.52        53.16117
225.98         58.2308
226.44        55.85592
226.90        48.77334
227.36        40.37968
227.81        35.28541
228.27        34.84813
228.73        37.23885
229.19        40.97369
229.65        43.89275
230.10        45.29647
230.56        46.01402
231.02         46.3737
231.48        46.65117
231.93        46.93793
232.39         47.0425
232.85        47.03458
233.31        47.15166
233.77        47.42967
234.22        47.89476
234.68        48.35199
235.14        48.32131
235.60        47.74035
236.05        46.81871
236.51         46.0164
236.97        45.95533
237.43        46.87263
237.88        48.87403
238.34        51.75637
238.80        54.75594
239.26        57.18344
239.71        59.04372
240.17         60.3683
240.63        62.05051
241.08         64.3914
241.54        66.88826
242.00         69.2292
242.46        71.23321
242.91        73.38573
243.37        76.56625
243.83        85.28479
244.28        116.1386
244.74        156.4156
245.20        140.9188
245.66        123.4683
246.11        118.6045
246.57         121.615
247.03        135.5667
247.48        178.2997
247.94        158.5806
248.40        113.4941
248.85        99.50859
249.31        95.82801
249.77        96.19479
250.22        99.11505
250.68        104.6436
251.14        112.8676
251.59         119.122
252.05        118.1602
252.51        112.1454
252.96        104.4487
253.42         98.9287
253.88        95.45064
254.33        92.74656
254.79        92.27899
255.25        95.36947
255.70        100.7892
256.16        107.2992
256.62        111.9944
257.07        111.9948
257.53        108.3655
257.99        102.2902
258.44        95.82244
258.90        92.42017
259.35        91.20464
259.81        91.07577
260.27        90.21918
260.72        86.90121
261.18         81.9269
261.63        75.96492
262.09        70.47919
262.55        66.35725
263.00        63.56994
263.46         61.8159
263.91        60.36015
264.37        58.80638
264.83        56.89264
265.28        54.66813
265.74        52.49736
266.19         50.6498
266.65        49.39803
267.11        48.54536
267.56        47.79348
268.02        46.79804
268.47        45.41104
268.93        43.76043
269.38        42.02092
269.84        40.72398
270.30        40.01722
270.75        39.76794
271.21        39.69522
271.66        39.36955
272.12        38.67373
272.57        37.72782
273.03        36.78027
273.48        36.11104
273.94        35.80667
274.39        35.70686
274.85        35.61831
275.31        35.24253
275.76        34.51192
276.22        33.57108
276.67        32.57533
277.13        31.85515
277.58        31.41675
278.04        31.19524
278.49        30.98323
278.95        30.56544
279.40        29.87194
279.86        29.05286
280.31        28.21023
280.77        27.61904
281.22        27.28128
281.68        27.12651
282.13        27.04299
282.59        26.91933
283.04        26.71369
283.50        26.51962
283.95        26.30475
284.41        26.04328
284.86         25.7427
285.32        25.41589
285.77        25.20076
286.22        25.37597
286.68        25.92792
287.13        26.71391
287.59        27.44223
288.04        27.66321
288.50        27.33103
288.95        26.58814
289.41        25.71926
289.86        25.03955
290.32        24.70658
290.77        24.61282
291.22        24.72855
291.68          24.963
292.13        25.28773
292.59        25.75629
293.04        26.36482
293.50        27.09365
293.95        27.91866
294.40        28.80031
294.86        29.73025
295.31        30.72002
295.77        31.77378
296.22        32.88653
296.68        34.02018
297.13        35.08159
297.58        36.06519
298.04        37.00799
298.49        37.99992
298.95        39.23323
299.40        40.73237
299.85        42.44321
300.31        44.22477
300.76        45.84673
301.21        47.22998
301.67        48.47331
302.12        49.63146
302.58        50.88936
303.03        52.26259
303.48        53.71796
303.94        55.28459
304.39        56.94593
304.84        58.69815
305.30        60.54561
305.75        62.35205
306.20        63.93472
306.66        65.28351
307.11        66.39857
307.57        67.47132
308.02        68.67342
308.47        70.10112
308.93        71.71017
309.38        73.36164
309.83        74.88553
310.29         76.2226
310.74        77.38515
311.19        78.48249
311.65        79.68503
312.10        81.01427
312.55        82.42761
313.00        83.74675
313.46        84.68974
313.91        85.18512
314.36        85.34118
314.82        85.43355
315.27        85.83309
315.72        86.66282
316.18        87.81627
316.63        89.07726
317.08        90.04054
317.53        90.58649
317.99         90.8169
318.44        90.96729
318.89        91.42513
319.35        92.25531
319.80         93.3591
320.25        94.42755
320.70        94.95623
321.16        94.83707
321.61         94.2467
322.06        93.53335
322.51        93.24028
322.97        93.48051
323.42        94.12933
323.87        94.92352
324.32        95.40817
324.78        95.44009
325.23        95.21375
325.68        94.88973
326.13        94.75368
326.59        94.87627
327.04        95.18486
327.49        95.62353
327.94        96.14169
328.39        96.69389
328.85        97.28098
329.30        97.87237
329.75        98.23518
330.20         98.3462
330.66        98.25096
331.11        98.18187
331.56        98.44241
332.01         99.1286
332.46        100.1458
332.92        101.3257
333.37        102.5474
333.82        103.6213
334.27        104.5822
334.72        105.3437
335.17        105.7842
335.63        105.9069
336.08         105.792
336.53        105.6126
336.98        105.7092
337.43        106.1739
337.88        106.9146
338.34        107.8209
338.79        108.7929
339.24        109.7182
339.69        110.6544
340.14         111.451
340.59        111.8494
341.05        111.8319
341.50        111.4575
341.95        111.0521
342.40        111.1314
342.85        111.7996
343.30        112.9215
343.75        114.1727
344.20        114.9701
344.66        115.1552
345.11        114.8819
345.56        114.4248
346.01        114.2034
346.46        114.3337
346.91        114.6807
347.36        115.0888
347.81        115.3269
348.26         115.341
348.72        115.2435
349.17        115.1215
349.62        115.1501
350.07        115.3644
350.52        115.6775
350.97        116.0041
351.42        116.2296
351.87         116.315
352.32        116.3011
352.77        116.1893
353.22        115.9806
353.67         115.695
354.13        115.3492
354.58         114.978
355.03        114.7018
355.48        114.5363
355.93        114.4465
356.38        114.3556
356.83        114.1346
357.28        113.7484
357.73        113.2393
358.18        112.6474
358.63        112.0372
359.08        111.4423
359.53        110.8531
359.98        110.2785
360.43        109.7344
360.88        109.2088
361.33        108.6783
361.78        108.1401
362.23        107.5861
362.68        107.0152
363.13        106.4548
363.58        105.8313
364.03        105.0258
364.48        104.0401
364.93        102.9121
365.38        101.8441
365.83        101.1621
366.28        100.9153
366.73        100.9894
367.18        101.1184
367.63        100.8652
368.08        100.1305
368.53        99.07348
368.98         97.9023
369.43        96.93035
369.88        96.25323
370.33        95.77114
370.78        95.43314
371.23        95.16298
371.68        94.91155
372.13        94.70205
372.58        94.49834
373.03         94.2255
373.48        93.87437
373.93        93.47134
374.38        93.02952
374.83        92.57778
375.28        92.13175
375.72        91.66415
376.17        91.26315
376.62        91.04758
377.07        91.01411
377.52        91.10398
377.97         91.1479
378.42        90.87606
378.87        90.25304
379.32        89.40352
379.77        88.47861
380.22        87.69064
380.67        87.09118
381.11        86.60276
381.56        86.22372
382.01         85.9566
382.46        85.78768
382.91        85.74966
383.36        85.69793
383.81        85.39636
384.26        84.81764
384.71        84.01366
385.15        83.22369
385.60         82.8924
386.05        83.03118
386.50         83.4969
386.95        83.95545
387.40        83.84483
387.85         83.0923
388.29        81.92197
388.74        80.78488
389.19        79.98459
389.64        79.58049
390.09        79.41499
390.54        79.45193
390.98        79.63135
391.43        79.87976
391.88        80.19186
392.33        80.39028
392.78        80.14287
393.23        79.45628
393.67        78.60294
394.12          77.892
394.57        77.14527
395.02         76.6113
395.47        77.04775
395.91        78.26213
396.36        78.97992
396.81        79.01414
397.26        78.95433
397.71        78.84201
398.15         78.4444
398.60        77.91531
399.05        77.33313
399.50        76.76132
399.95        76.11942
400.39        75.78526
400.84        75.36084
401.29        74.99638
401.74        75.17253
402.18        75.73692
402.63        75.70453
403.08        75.22647
403.53        75.30985
403.97        75.97756
404.42        76.63435
404.87        77.01446
405.32        76.92616
405.76        76.31641
406.21        75.36349
406.66        74.35027
407.11         73.7546
407.55          73.722
408.00        73.87798
408.45        74.13638
408.90        74.90314
409.34         75.7333
409.79        75.22788
410.24         73.7629
410.68        73.12865
411.13        73.46194
411.58        73.75619
412.03        73.90054
412.47        74.30589
412.92         74.6256
413.37        75.00243
413.81        75.26219
414.26        75.29399
414.71        75.06474
415.15        74.61176
415.60        74.07783
416.05        73.70475
416.49        73.56946
416.94         73.6363
417.39        73.75604
417.83        73.64632
418.28        73.27023
418.73        72.73822
419.17        72.26733
419.62        72.21081
420.07        72.58221
420.51         73.2358
420.96        73.93618
421.41        74.22363
421.85        73.95896
422.30        73.59931
422.74        73.17461
423.19        72.39336
423.64        71.49382
424.08        71.49464
424.53         72.2929
424.98        72.73703
425.42        72.69901
425.87        73.08284
426.31        73.77714
426.76         73.6307
427.21        72.93772
427.65        73.27653
428.10        74.47936
428.54        75.26988
428.99        75.58231
429.44        75.45246
429.88        75.08067
430.33        76.02444
430.77        77.44479
431.22         76.2347
431.66        73.07381
432.11        71.45636
432.56         71.7113
433.00        72.64846
433.45        74.08846
433.89        75.85497
434.34        76.46056
434.78        78.48515
435.23        74.50272
435.67        72.42633
436.12        74.42822
436.57        75.59114
437.01        76.61421
437.46        76.96345
437.90         76.7924
438.35        76.41534
438.79        76.72397
439.24        76.72983
439.68        76.66943
440.13        76.35457
440.57        76.11267
441.02        76.92705
441.46         78.4229
441.91        79.43197
442.35        79.59908
442.80        78.58237
443.24        76.96782
443.69        77.61542
444.13        80.03023
444.58        80.09393
445.02        78.02039
445.47        77.51383
445.91        78.58339
446.36         78.8633
446.80        78.28827
447.24        78.30466
447.69        78.91735
448.13        78.68304
448.58        78.81145
449.02        79.10698
449.47        79.80606
449.91        80.20271
450.36         80.2506
450.80        80.31361
451.25        80.37601
451.69        80.17521
452.13         79.7872
452.58        79.46448
453.02        79.27304
453.47        79.20431
453.91        79.24947
454.36        79.46658
454.80        79.79342
455.24        79.80749
455.69        79.44047
456.13        79.26329
456.58        79.42442
457.02          78.092
457.46        77.98135
457.91        78.05069
458.35         78.8071
458.79          79.116
459.24        78.94809
459.68         78.7549
460.13        78.56161
460.57        78.33897
461.01        78.19147
461.46        77.38273
461.90        77.18996
462.34        77.14608
462.79        76.50938
463.23        76.70206
463.68        77.33746
464.12        77.69793
464.56        77.69736
465.01        77.68855
465.45        77.54878
465.89        77.43241
466.34        77.25077
466.78        76.14713
467.22        74.64683
467.67        74.46747
468.11        75.53465
468.55        76.28777
468.99        76.36713
469.44        76.00443
469.88        75.42001
470.32        75.42522
470.77        75.92836
471.21        75.94078
471.65        75.41235
472.10        75.06219
472.54        74.99284
472.98        74.98378
473.42        75.02578
473.87        75.39918
474.31        75.87043
474.75        75.62167
475.20        74.83225
475.64        74.68049
476.08        75.16812
476.52        75.12442
476.97        74.47389
477.41        74.83502
477.85        74.71924
478.29        74.55848
478.74        74.70856
479.18        75.06103
479.62        74.05427
480.06        74.77875
480.50        75.09779
480.95        75.45552
481.39        75.40176
481.83        74.51347
482.27        74.35843
482.72        74.35392
483.16        72.97694
483.60        72.94523
484.04        74.69759
484.48        75.18156
484.93        75.20919
485.37        76.46055
485.81        77.21091
486.25        76.04274
486.69        102.7358
487.14        83.58712
487.58        51.57543
488.02        63.85326
488.46        72.42039
488.90         71.5546
489.34        73.55554
489.79        72.68247
490.23        74.89617
490.67        75.68024
491.11         74.4561
491.55        74.41442
491.99        75.07235
492.43        74.92133
492.88        74.04743
493.32        73.95048
493.76        74.10838
494.20        74.31809
494.64        74.31889
495.08        74.40894
495.52         74.6159
495.96        74.48705
496.41        74.04648
496.85        74.53098
497.29        75.62315
497.73        74.46191
498.17         72.0724
498.61         72.6404
499.05        75.10191
499.49        75.77174
499.93        75.78513
500.37        75.44382
500.82        74.68699
501.26        74.75626
501.70         75.3262
502.14         75.7919
502.58        75.31174
503.02        75.13287
503.46        75.05415
503.90        74.68484
504.34        74.16934
504.78        73.93865
505.22        74.04646
505.66        74.39642
506.10        74.83783
506.54        75.01609
506.98        74.83347
507.42        74.77383
507.86        74.30934
508.30        74.21119
508.74        74.33118
509.18        74.60758
509.62        74.91154
510.06        75.05332
510.50        74.98899
510.94        74.78352
511.38        74.53752
511.82         74.3988
512.26        74.41008
512.70        74.52313
513.14        74.67691
513.58        74.77758
514.02        74.78925
514.46        74.73519
514.90          74.658
515.34        74.60755
515.78        74.58961
516.22         74.6433
516.66        74.71886
517.10        74.59337
517.54        74.25694
517.98        74.27342
518.42        73.98861
518.86        74.06404
519.30        74.29147
519.74        74.67957
520.18        75.10606
520.62        75.36683
521.06        75.41824
521.50        75.31941
521.93        75.13847
522.37        74.98918
522.81        74.91909
523.25        74.88973
523.69        74.91154
524.13        75.00182
524.57        75.15181
525.01        75.36387
525.45         75.5714
525.89        75.66161
526.32        75.60204
526.76        75.41534
527.20        75.18206
527.64        75.05337
528.08        75.08018
528.52        75.16199
528.96        75.18102
529.40        75.16373
529.83        75.12463
530.27        74.30365
530.71          74.296
531.15        74.11346
531.59        74.23244
532.03        74.53925
532.46        74.95023
532.90        75.29105
533.34        75.48273
533.78        75.57607
534.22        75.57162
534.66        75.47933
535.09        75.30641
535.53        75.07584
535.97        74.82337
536.41        74.63408
536.85        74.53616
537.28        74.52214
537.72        74.55954
538.16        74.60047
538.60        74.62824
539.04        74.59596
539.47         74.5221
539.91        74.63756
540.35        74.86319
540.79        74.86954
541.22        74.67862
541.66         74.6282
542.10        74.72496
542.54        74.77827
542.97        74.78305
543.41        74.84836
543.85        74.95576
544.29        75.08855
544.72        75.18238
545.16        75.13776
545.60        74.92889
546.04        74.68265
546.47        74.48475
546.91        74.27029
547.35        74.17491
547.79        74.65345
548.22        75.42482
548.66        75.66946
549.10        75.26224
549.53         74.4651
549.97        73.62074
550.41        73.19673
550.84        73.29211
551.28        73.73577
551.72         74.3448
552.15        74.70874
552.59        74.69761
553.03        74.96275
553.46        74.60036
553.90        74.52615
554.34        74.49789
554.77        74.39939
555.21         74.2494
555.65        74.32172
556.08         74.6581
556.52        74.33643
556.96        74.98082
557.39        74.81334
557.83        74.44754
558.27        74.29623
558.70        74.40521
559.14        74.49987
559.57        74.54916
560.01        74.67284
560.45        74.84554
560.88         75.0554
561.32        75.20784
561.75         75.0768
562.19        74.74466
562.63        74.15697
563.06        73.54719
563.50         73.6741
563.93        74.38787
564.37        74.56798
564.80        74.53262
565.24         74.3839
565.68         74.3068
566.11         74.2403
566.55        74.25663
566.98        74.29925
567.42        74.33649
567.85        74.46503
568.29        74.74285
568.72        74.73595
569.16        74.57424
569.60        75.55276
570.03        75.68689
570.47        75.71627
570.90        75.48392
571.34        73.74883
571.77        74.53206
572.21        74.76527
572.64        74.23153
573.08        73.12646
573.51        70.27116
573.95        72.93363
574.38        77.32706
574.82        75.15649
575.25         74.7233
575.69        72.55742
576.12        71.26375
576.56        70.31498
576.99        71.90976
577.42        75.39005
577.86        75.39491
578.29        74.98509
578.73        78.60515
579.16          72.646
579.60        66.38172
580.03        69.28727
580.47        73.59848
580.90        75.52433
581.33        73.84525
581.77        72.87556
582.20        80.78278
582.64        80.07886
583.07        68.45412
583.51        67.01199
583.94        65.75477
584.37        68.77062
584.81        72.49389
585.24        76.38272
585.68        77.91198
586.11        77.10242
586.54        71.38661
586.98        69.03875
587.41        69.72845
587.85        73.24899
588.28        76.25606
588.71        72.42856
589.15        69.92551
589.58        71.55304
590.01        71.47127
590.45        72.79426
590.88        73.64832
591.31        73.07029
591.75        72.64908
592.18        72.41505
592.61         73.5199
593.05        74.38555
593.48        77.57138
593.91        78.88712
594.35        72.61565
594.78        70.57764
595.21        70.00563
595.65        73.18662
596.08         76.5359
596.51        73.49689
596.94        71.15646
597.38        71.65913
597.81        74.48552
598.24        76.73683
598.68        74.71911
599.11        73.71286
599.54        76.31171
599.97         78.3071
600.41        72.53304
600.84        72.75591
601.27        74.41179
601.70         73.3271
602.14        73.51461
602.57        72.43802
603.00        72.92682
603.43        74.76113
603.87        75.87704
604.30        75.86935
604.73        73.62789
605.16        71.82875
605.60        73.04144
606.03        74.06033
606.46        74.96304
606.89        74.76322
607.32        72.69947
607.76        72.16202
608.19        74.85623
608.62        73.82635
609.05        72.54386
609.48        73.05555
609.92        72.93254
610.35        72.61985
610.78        75.04089
611.21         75.4763
611.64        72.29977
612.07        72.95858
612.50        73.30205
612.94        73.69724
613.37        73.05272
613.80        73.29494
614.23        73.74825
614.66        73.68043
615.09        73.94312
615.52        73.96332
615.96        73.85847
616.39        73.97347
616.82        73.08377
617.25        72.55833
617.68        73.43346
618.11        74.02719
618.54         74.4513
618.97         73.9334
619.40        72.87335
619.84        72.81917
620.27        73.71668
620.70        74.39877
621.13        74.62012
621.56        73.99092
621.99        72.86156
622.42        73.59039
622.85        75.65826
623.28        75.43694
623.71        74.45884
624.14        74.60499
624.57        74.63472
625.00        73.92152
625.43        74.54653
625.86         73.8349
626.29        73.94338
626.72        74.49725
627.15        74.09718
627.58        74.27527
628.01        74.45066
628.44        74.46961
628.87        74.38913
629.30        74.68391
629.73        75.23396
630.16        75.40434
630.59        75.12457
631.02        74.65593
631.45        74.15459
631.88        73.80939
632.31        73.68453
632.74         73.7097
633.17        73.81945
633.60        73.89993
634.03        73.92331
634.46        73.97472
634.89         74.0447
635.32        74.07185
635.75        74.05715
636.18        74.00639
636.61        73.95793
637.04        74.00177
637.47         74.1304
637.89         74.2681
638.32        74.35455
638.75        74.39044
639.18        74.35553
639.61        74.29655
640.04        74.12053
640.47        73.98559
640.90        73.87923
641.33        73.78984
641.76        73.69186
642.18        73.65175
642.61         73.6707
643.04        73.57003
643.47        73.32915
643.90        73.86459
644.33        73.65087
644.76         73.9015
645.18        74.10397
645.61        74.18282
646.04        74.10268
646.47        73.88626
646.90        73.65671
647.33        73.56867
647.75         73.6795
648.18        73.96024
648.61        74.22426
649.04        74.22672
649.47        73.90102
649.89        73.12765
650.32        72.30438
650.75        72.21968
651.18        72.87265
651.61        73.66317
652.03        74.19773
652.46        74.21899
652.89        74.04758
653.32        73.30012
653.74        72.49856
654.17        73.78977
654.60        75.35894
655.03         72.5418
655.46        73.10076
655.88        77.26422
656.31        82.79581
656.74        187.9398
657.16        121.9244
657.59         42.9617
658.02        32.15658
658.45        55.71194
658.87        70.62585
659.30        74.22549
659.73        73.62099
660.15        70.57948
660.58        73.25042
661.01        75.07923
661.44        73.00928
661.86         72.2277
662.29         71.9721
662.72        72.82495
663.14        74.47059
663.57        74.43729
664.00        73.01667
664.42        72.71295
664.85        73.61187
665.27         74.1572
665.70        74.10221
666.13        73.91405
666.55        73.57552
666.98         72.9585
667.41        72.30238
667.83        72.05532
668.26        72.30304
668.69        72.86795
669.11        73.46925
669.54        73.98867
669.96         73.6255
670.39        73.14947
670.82        72.56559
671.24        72.08453
671.67        71.91325
672.09        72.27411
672.52        72.86786
672.94        73.43353
673.37        72.69401
673.80        72.54467
674.22        72.67478
674.65        72.71154
675.07        72.63088
675.50        72.48065
675.92        72.32792
676.35        72.31683
676.77        72.46631
677.20        72.65036
677.62        72.83239
678.05        72.94422
678.47        72.92171
678.90        72.89336
679.32        72.92644
679.75        72.66872
680.17        72.36009
680.60        73.06292
681.02        72.55975
681.45        72.52938
681.87        72.30771
682.30        71.98354
682.72        71.68207
683.15        71.66276
683.57        71.99783
684.00        72.49529
684.42         73.1138
684.85        73.41911
685.27        73.36571
685.70        73.06151
686.12        72.65002
686.54        72.40312
686.97        72.39132
687.39        72.55021
687.82         72.7521
688.24        72.89788
688.66        72.93675
689.09        72.63008
689.51        72.61093
689.94        72.57497
690.36        72.71806
690.78        72.97108
691.21        73.23632
691.63        73.35754
692.06        73.29774
692.48          73.125
692.90        72.93206
693.33        72.84834
693.75        72.90907
694.17        73.07382
694.60        73.28769
695.02        73.44304
695.44        73.46767
695.87        73.56958
696.29        73.75114
696.71        73.44016
697.14        72.84793
697.56        73.23293
697.98        74.33978
698.41        74.12045
698.83        73.34193
699.25        72.89255
699.68        73.05134
700.10        73.06482
700.52        72.93923
700.94        73.08414
701.37        73.42517
701.79        73.73131
702.21         73.9183
702.64        74.05278
703.06        74.10203
703.48        74.00768
703.90        73.78822
704.33        73.46587
704.75         73.1153
705.17        72.94825
705.59        73.01895
706.01        73.15325
706.44        73.26644
706.86        73.84212
707.28        73.85418
707.70        74.11811
708.12        74.29942
708.55         74.2589
708.97        74.01682
709.39         73.8019
709.81        73.69579
710.23        73.64112
710.66        73.66488
711.08        73.87794
711.50         74.1468
711.92        74.21372
712.34        74.03443
712.76        73.67651
713.19        73.29612
713.61        73.17686
714.03        73.36808
714.45        73.78362
714.87          74.228
715.29        74.39273
715.71        74.21138
716.13        73.78665
716.56        73.30396
716.98        73.09322
717.40        73.22926
717.82         73.6046
718.24         74.0646
718.66        74.34902
719.08        74.37897
719.50        74.23973
719.92        74.00771
720.34        73.82237
720.76        73.73651
721.19        73.58475
721.61        73.60336
722.03        73.66027
722.45        73.80912
722.87        74.03964
723.29        74.28791
723.71        74.43259
724.13         74.4409
724.55        74.34479
724.97        74.19502
725.39          74.084
725.81        74.04359
726.23        74.04815
726.65        74.08997
727.07        74.15338
727.49        74.23271
727.91        74.34587
728.33         74.4707
728.75        74.56501
729.17        74.61472
729.59        74.61326
730.01        74.61275
730.43        74.69321
730.85        74.87158
731.27         75.1526
731.69        75.42538
732.10        75.48846
732.52        75.30513
732.94        74.97549
733.36        74.67864
733.78        74.60619
734.20        74.81218
734.62        75.47121
735.04        76.27762
735.46        76.45715
735.88         75.4862
736.30        75.69192
736.72         76.8282
737.13        77.27299
737.55        76.77321
737.97        76.71367
738.39        77.09816
738.81        76.31683
739.23        74.88898
739.65        75.75339
740.06        78.36337
740.48        78.74113
740.90        76.95884
741.32        76.19003
741.74        76.69384
742.16        76.89358
742.57        76.83495
742.99        77.36515
743.41          78.301
743.83        78.88274
744.25        78.98445
744.67        78.80061
745.08        78.50811
745.50        78.39056
745.92        78.54884
746.34        78.87678
746.75        79.26848
747.17        79.54481
747.59        79.67084
748.01        79.69844
748.42        79.75186
748.84        80.00288
749.26        80.48771
749.68        81.12563
750.09        81.75712
750.51        82.12511
750.93        82.18418
751.35        81.94795
751.76        81.56849
752.18        81.49031
752.60        81.68921
753.01        81.70893
753.43        81.56577
753.85        81.69081
754.27        82.10846
754.68        82.61768
755.10          83.091
755.52        83.48949
755.93        83.74792
756.35        83.79111
756.77        83.74254
757.18        83.81465
757.60        84.06295
758.02        84.57101
758.43        84.87947
758.85        84.90328
759.26        82.74413
759.68        82.33881
760.10        83.50391
760.51        84.16105
760.93        83.94951
761.34        82.67232
761.76         82.1627
762.18        81.73083
762.59        81.95255
763.01        82.34402
763.42        82.87302
763.84        83.44743
764.26        83.99341
764.67        84.30702
765.09        84.30988
765.50        84.27209
765.92        84.05738
766.33        82.68124
766.75        80.71703
767.16        80.07536
767.58        80.93832
768.00        82.33384
768.41        83.92308
768.83        85.41998
769.24        86.20659
769.66        85.68685
770.07        84.31335
770.49         82.6426
770.90        81.22288
771.32        82.06887
771.73        84.47991
772.15        83.97491
772.56        81.03411
772.97        80.46673
773.39        82.19262
773.80        82.80614
774.22        82.07961
774.63        82.06429
775.05        82.67431
775.46        82.91424
775.88        82.67402
776.29        82.23799
776.70         81.7843
777.12        81.63555
777.53        81.87785
777.95        82.34628
778.36         82.8269
778.77        82.95181
779.19        82.67921
779.60          82.132
780.02         81.5564
780.43        81.43918
780.84        81.93609
781.26        82.37897
781.67        82.72382
782.09        84.00768
782.50        85.58327
782.91        84.60491
783.33        81.85284
783.74        80.95039
784.15        82.08043
784.57        82.98683
784.98        83.25117
785.39          83.174
785.81        82.74709
786.22        82.14284
786.63         81.6968
787.04        81.67883
787.46        82.15096
787.87        83.12826
788.28        84.27418
788.70        84.85787
789.11        84.71806
789.52        84.20166
789.93        83.54776
790.35        82.86791
790.76        82.36892
791.17        82.45075
791.58         82.9982
792.00        83.27543
792.41        83.16133
792.82        83.24175
793.23        83.57076
793.65        83.23214
794.06        82.60488
794.47        83.72288
794.88        85.74819
795.29        85.62041
795.71        82.79654
796.12         80.6021
796.53         79.4645
796.94        78.96051
797.35        79.22408
797.76        80.43921
798.18        82.00863
798.59        83.00066
799.00        83.03876
799.41        82.21643
799.82        81.00494
800.23        80.31245
800.64        80.35362
801.06         80.7679
801.47         81.3931
801.88        81.86029
802.29        82.02341
802.70        82.02185
803.11        81.93658
803.52        81.86905
803.93         81.8829
804.34        81.91814
804.75         81.9634
805.17        82.13443
805.58        82.48841
805.99        82.60032
806.40        82.46446
806.81          83.078
807.22        83.93586
807.63        82.75713
808.04        80.15999
808.45        79.07037
808.86        79.72112
809.27        80.61866
809.68        81.34538
810.09        81.80428
810.50         81.7981
810.91        81.38792
811.32        80.81197
811.73        80.45885
812.14        80.43663
812.55        80.58306
812.96        80.87375
813.37        81.25298
813.78        81.65326
814.19        82.14674
814.60        82.47717
815.01        82.23576
815.42        81.39034
815.83        80.02226
816.24        78.64701
816.65        78.17516
817.05        78.87022
817.46        80.44767
817.87        82.23945
818.28        83.04194
818.69        82.52615
819.10        80.99519
819.51         79.1942
819.92         78.3885
820.33        78.90968
820.74        80.36844
821.14        82.05825
821.55        82.73249
821.96        82.11668
822.37        80.64576
822.78        78.96477
823.19        78.01568
823.60        78.05412
824.00        78.84396
824.41        79.92443
824.82        80.62153
825.23        80.66082
825.64        80.27911
826.04        79.75866
826.45        79.50669
826.86        79.62323
827.27        79.92781
827.68        80.26229
828.08        80.42149
828.49         80.2663
828.90        79.94507
829.31        79.51058
829.72        79.04639
830.12        78.65181
830.53         78.2912
830.94        78.09126
831.35        78.20629
831.75        78.68818
832.16        79.44273
832.57        80.31738
832.97        80.95981
833.38        81.17374
833.79        81.02689
834.20        80.72355
834.60        80.59319
835.01        80.74021
835.42        81.06554
835.82        81.35859
836.23        81.18235
836.64        80.50327
837.04        79.50475
837.45        78.52277
837.86        78.08049
838.26        78.30629
838.67        78.99796
839.08        79.89708
839.48        80.52437
839.89        80.67232
840.29        80.50107
840.70        80.11051
841.11        79.63734
841.51        79.16705
841.92        78.63057
842.33        78.15985
842.73        77.99544
843.14        78.14086
843.54          78.588
843.95        79.09158
844.35        79.28913
844.76        79.07552
845.17        78.57049
845.57        77.98046
845.98        77.63992
846.38        77.63364
846.79        77.83279
847.19        78.14407
847.60        78.30914
848.00        78.28922
848.41        78.15003
848.81        77.98169
849.22        77.83518
849.62        77.78925
850.03         77.8162
850.43        77.96625
850.84        78.24315
851.24        78.67019
851.65        79.05087
852.05        79.48337
852.46        79.94741
852.86         80.4169
853.27        80.92809
853.67        81.03608
854.07        80.18291
854.48        78.44352
854.88        76.04952
855.29        73.82577
855.69        72.95624
856.10        73.66663
856.50          75.818
856.90         78.6883
857.31        80.56487
857.71        80.85717
858.12        79.93073
858.52        78.51069
858.92        77.59284
859.33        77.40868
859.73        77.69282
860.13        78.24703
860.54        78.68275
860.94        78.92031
861.34        79.06903
861.75        79.19434
862.15        79.45767
862.55        79.84802
862.96        80.28492
863.36         80.6745
863.76        80.82813
864.17        80.71679
864.57        80.47208
864.97        80.25364
865.38        80.29625
865.78         80.6941
866.18        81.27957
866.58        81.97815
866.99        82.64976
867.39        83.27594
867.79         83.9267
868.19        84.35242
868.60        84.09145
869.00        83.10921
869.40        81.54437
869.80        80.15528
870.21        80.12293
870.61        81.76806
871.01        84.73798
871.41         88.0693
871.81        90.09373
872.22        90.33007
872.62        89.24059
873.02        87.68567
873.42        87.14864
873.82        87.86186
874.22         89.1887
874.63        90.65059
875.03        91.27042
875.43        90.59914
875.83        89.65971
876.23        87.94251
876.63        87.45686
877.03        88.35565
877.44        90.96841
877.84        101.4068
878.24        98.50274
878.64        97.54735
879.04        95.38018
879.44        91.10638
879.84        89.01493
880.24        92.43679
880.64        95.01912
881.04        97.34789
881.44        98.75925
881.84        98.07891
882.24        95.87422
882.65        93.52894
883.05        92.57716
883.45        93.28652
883.85        95.38724
884.25        97.98803
884.65        99.32797
885.05        98.87029
885.45         97.2608
885.85        95.44097
886.25        94.67039
886.65        95.21728
887.05        96.64469
887.45        98.41896
887.85         99.6048
888.25        99.84978
888.65        99.47301
889.04        98.75861
889.44        98.18776
889.84        97.89665
890.24         97.6784
890.64        97.50287
891.04        97.35928
891.44        97.21078
891.84        97.13261
892.24        96.99038
892.64        96.50385
893.04        95.72292
893.44        94.84625
893.83        94.16099
894.23        94.09666
894.63        94.69348
895.03        95.72375
895.43        97.12121
895.83         98.7215
896.23        100.3153
896.63        101.9131
897.02        102.9498
897.42        102.5528
897.82        100.7069
898.22        97.77763
898.62        94.83575
899.01        93.44801
899.41        93.93317
899.81        95.76705
900.21        98.11505
900.61        99.59421
901.00        99.78152
901.40        99.10719
901.80        98.00495
902.20        97.15233
902.59        96.77871
902.99        96.63799
903.39        96.59409
903.79        96.45463
904.18        96.16843
904.58        95.91077
904.98        95.78324
905.38         95.8968
905.77         96.2328
906.17        96.68201
906.57        97.14919
906.96        97.56515
907.36        97.83148
907.76        97.99076
908.15        97.96011
908.55        97.49702
908.95        96.65533
909.34         95.4943
909.74        94.38833
910.14        93.74002
910.53        93.68438
910.93        94.17741
911.33        95.00769
911.72        95.77926
912.12         96.2478
912.52        96.43153
912.91        96.53818
913.31        96.87229
913.70        97.53909
914.10        98.48498
914.49        99.29476
914.89        98.92343
915.29        97.19321
915.68        94.54978
916.08        92.24771
916.47        91.42999
916.87        92.18423
917.26        94.16611
917.66        96.38426
918.05          97.215
918.45        96.24882
918.84        94.02543
919.24        91.68408
919.64        90.91537
920.03        92.12595
920.42        94.78507
920.82        97.87267
921.21         99.7201
921.61         99.6378
922.00        98.24428
922.40        96.24951
922.79        94.57655
923.19        93.55846
923.58        92.87075
923.98        92.31015
924.37        91.82488
924.77        91.57024
925.16        89.89562
925.55        90.52158
925.95        91.39861
926.34        93.57013
926.74         96.4174
927.13        99.14314
927.52        100.2585
927.92        99.56429
928.31        97.55731
928.70        94.93432
929.10        92.87566
929.49         91.7348
929.89        91.21713
930.28        91.37962
930.67          92.305
931.07         93.7491
931.46        95.76465
931.85        97.59778
932.24        98.10356
932.64        97.10397
933.03        94.76833
933.42        91.76145
933.82        89.66063
934.21        88.94988
934.60        89.24088
934.99        89.93259
935.39         90.3643
935.78        90.42627
936.17        90.10874
936.56        89.16922
936.96        89.51843
937.35        88.06267
937.74        87.49133
938.13        87.21391
938.53        87.79884
938.92        89.24855
939.31        91.57907
939.70        94.15361
940.09        95.13706
940.49        93.93341
940.88        91.30902
941.27        88.54299
941.66        87.15249
942.05        87.33645
942.44         88.5717
942.84        90.38435
943.23        92.01888
943.62        93.02878
944.01        93.63773
944.40        93.79533
944.79        93.40972
945.18        92.48333
945.57        90.88035
945.97        88.87883
946.36        87.38525
946.75        86.88215
947.14         87.2045
947.53        87.86064
947.92        88.25767
948.31        88.31728
948.70        88.20926
949.09        88.10144
949.48        88.33035
949.87        88.97054
950.26        89.78407
950.65        90.56185
951.04        91.06876
951.43        91.22112
951.82        91.09238
952.21        90.62755
952.60        89.77258
952.99        88.59956
953.38        87.16242
953.77        85.76627
954.16        84.83008
954.55        84.43537
954.94        84.55135
955.33        84.80772
955.72         84.5505
956.11        83.64451
956.50        82.24763
956.89        80.97113
957.28        80.92487
957.66        82.46374
958.05        85.02449
958.44         87.7586
958.83        89.41853
959.22        89.67305
959.61        88.77534
960.00        87.35242
960.39        86.44511
960.78        86.35084
961.16        86.85176
961.55        87.24557
961.94        86.37002
962.33        84.09171
962.72        80.98572
963.11         78.1161
963.49        76.82506
963.88        77.31743
964.27        79.27701
964.66        81.87125
965.04        83.27518
965.43        82.72345
965.82        80.89781
966.21        78.84213
966.60        77.91441
966.98        78.38334
967.37        79.73212
967.76         81.4826
968.15        82.70667
968.53        83.01597
968.92        82.71203
969.31        82.06076
969.69        81.35359
970.08        80.73048
970.47        80.10517
970.86        79.50072
971.24        79.01235
971.63        78.68982
972.02        78.57449
972.40        78.77896
972.79        79.40649
973.17         80.5228
973.56        81.91277
973.95        83.28112
974.33        84.03722
974.72        83.89197
975.11        82.99638
975.49        81.75966
975.88        80.82095
976.26        80.27287
976.65        79.99137
977.04        79.63619
977.42        78.50562
977.81        76.55005
978.19        74.16976
978.58         72.5289
978.96        72.65469
979.35        74.62108
979.74        78.21954
980.12        82.69051
980.51        85.20386
980.89        84.98984
981.28        82.80777
981.66        79.93583
982.05        77.99841
982.43        77.31139
982.82        77.33378
983.20        78.03136
983.59        79.45598
983.97        81.60827
984.35        84.62955
984.74         87.7482
985.12        89.39981
985.51        88.57849
985.89        85.48521
986.28         81.1462
986.66        77.35076
987.04        75.08724
987.43        74.14628
987.81        73.90175
988.20        73.45937
988.58        72.46973
988.96        70.78093
989.35        69.08687
989.73        70.04758
990.12          74.576
990.50        80.96735
990.88        85.44959
991.27        85.49271
991.65        81.72928
992.03        75.03662
992.42        67.87598
992.80        64.82021
993.18        67.11496
993.56        72.24011
993.95        77.90079
994.33        82.07901
994.71        84.23785
995.10        85.37913
995.48        85.35282
995.86        83.63882
996.24        80.23057
996.63        74.77317
997.01        68.50829
997.39        65.40978
997.77         67.2562
998.15        73.24204
998.54        80.11008
998.92        83.24672
999.30        81.28448
999.68        75.57888
1000.06        67.58958
1000.45        61.12791
1000.83        58.04695
1001.21        57.07387
1001.59        58.08484
1001.97        61.21919
1002.35        66.34405
1002.73        74.43686
1003.12         83.3841
1003.50        85.87343
1003.88        78.74338
1004.26        65.52061
1004.64        52.82694
1005.02        46.23286
1005.40         46.0661
1005.78        51.71613
1006.16        64.07153
1006.54        77.28235
1006.92        83.04317
1007.30        82.97312
1007.69        80.90269
1008.07        79.82601
1008.45        80.13357
1008.83        80.99648
1009.21        81.57719
1009.59        75.78532
1009.97        43.20737
1010.35       -20.45601
1010.73       -28.72201
1011.11      0.08435971
1011.49        24.97615
1011.86        44.58966
1012.24        56.11869
1012.62        61.16545
1013.00        62.26247
1013.38        60.31876
1013.76        57.67768
1014.14         61.8777
1014.52        78.97823
1014.90        110.9862
1015.28        148.4232
1015.66         164.704
1016.04        144.9259
1016.41        95.76777
1016.79        45.46941
1017.17         23.2057
1017.55        24.91646
1017.93        34.99052
1018.31        46.06118
1018.69        54.98062
1019.06          62.546
1019.44        71.06767
1019.82        82.62879
1020.20        97.18851
1020.58          113.21
1020.95        127.8809
1021.33        131.4122
1021.71        187.2645
1022.09        145.0551
1022.46        145.5897
1022.84        148.8286
1023.22        157.5802
1023.60        182.2065
1023.97        421.2574
1024.35         18.2973
1024.73        64.96661
