SpectraSmart Spectrum 2.9.0.0
--------- Device Information -----------
Spectrum Name :  反射率_0
Saving Time :  2024/04/26 01:38:48
Spectro-Module Model Name : SE2030-DUVN
Spectro-Module Serial Number : OS361AC55029948
Wavelength Start : 200
Wavelength End : 1025
Wavelength Unit : Wavelength(nm)
Spectrum Unit : Reflectance(%)
-----------Spectrum Setting ------------
Integration Time : 20ms
Average : 10
Boxcar : 0
Background removal :  enabled
linearity correction :  enabled
SC :  disabled
Intensity correction :  disabled
DWT denoise :  enabled
savitzky-golay :  disabled
FFT :  disabled
Running average :  disabled
Kalman :  disabled
High pass :  disabled
---------------BEGIN--------------------
Wavelength(nm)             Reflectance(%)
200.29               0
200.75        108.2396
201.21        97.31841
201.67        84.57597
202.13        77.06168
202.58        75.71567
203.04        78.94391
203.50        83.94879
203.96        86.01354
204.42        84.17158
204.88         80.3456
205.34        77.04163
205.80        76.87041
206.26        80.91759
206.72        91.50108
207.18        112.2576
207.64        128.1611
208.10        111.8478
208.55         84.6256
209.01        68.35041
209.47        63.17778
209.93        64.36678
210.39        69.77962
210.85         76.5409
211.31        78.53382
211.77        73.82993
212.23        64.75896
212.69        56.01981
213.14        54.87252
213.60        62.38004
214.06        76.14451
214.52        91.17184
214.98        99.93839
215.44         100.505
215.90        95.44656
216.36        87.97537
216.81        82.45945
217.27         80.4499
217.73         80.5433
218.19        80.86738
218.65        78.95795
219.11        73.77238
219.57        64.63857
220.02        53.08592
220.48        47.14485
220.94        50.88078
221.40        61.92437
221.86        71.31895
222.32        69.96635
222.77        59.57935
223.23        45.82318
223.69        34.54538
224.15        31.67534
224.61        36.44727
225.06        45.69574
225.52        55.31834
225.98        60.05117
226.44        58.84262
226.90        53.85551
227.36        47.68106
227.81        43.79227
228.27        43.30793
228.73         44.8383
229.19        47.17537
229.65        48.62054
230.10        48.77374
230.56         48.3921
231.02        48.05589
231.48         48.3508
231.93        49.27849
232.39        50.51461
232.85        51.67792
233.31        52.29433
233.77        52.22056
234.22        51.61169
234.68        50.65297
235.14        49.68408
235.60        48.93422
236.05        48.40657
236.51        48.07104
236.97        47.79729
237.43        47.56464
237.88        47.50047
238.34        47.78811
238.80        48.93009
239.26        51.02901
239.71        53.97522
240.17        56.98805
240.63        59.27378
241.08        60.68983
241.54        61.35675
242.00        61.84282
242.46        63.17921
242.91         66.5116
243.37        73.93224
243.83        96.34748
244.28        169.6777
244.74        254.9407
245.20        210.6502
245.66        168.6579
246.11         156.874
246.57        162.7059
247.03        191.1029
247.48        274.5237
247.94        221.3525
248.40        129.2927
248.85        102.6174
249.31        95.27596
249.77        94.59464
250.22        97.51938
250.68        104.0914
251.14         113.984
251.59        120.5381
252.05        117.0716
252.51        106.4537
252.96        94.85119
253.42        88.38879
253.88        86.45161
254.33        86.85318
254.79        88.71117
255.25        90.28249
255.70        90.91899
256.16        91.48222
256.62        91.24967
257.07         89.3673
257.53        86.41021
257.99        82.30229
258.44        78.07792
258.90        75.95492
259.35        75.04972
259.81          74.745
260.27        73.48502
260.72        69.73906
261.18        64.32057
261.63         57.9386
262.09        52.17532
262.55        48.20333
263.00        45.96312
263.46        44.92852
263.91        44.18223
264.37        43.00399
264.83        41.19172
265.28          38.912
265.74        36.71152
266.19        35.18721
266.65         34.5525
267.11         34.4522
267.56        34.39354
268.02        33.77748
268.47        32.48915
268.93        30.74528
269.38        28.85288
269.84        27.56753
270.30        27.09566
270.75        27.22311
271.21        27.57295
271.66        27.58657
272.12        27.09949
272.57        26.28391
273.03        25.40567
273.48        24.78189
273.94        24.51705
274.39        24.46435
274.85        24.43856
275.31        24.17509
275.76        23.61884
276.22         22.8929
276.67        22.17102
277.13        21.77856
277.58        21.71223
278.04         21.8711
278.49        22.00443
278.95        21.81252
279.40         21.2317
279.86        20.43198
280.31        19.57552
280.77        19.00433
281.22        18.75356
281.68        18.72868
282.13        18.80199
282.59         18.8172
283.04        18.72873
283.50        18.62187
283.95        18.49751
284.41        18.36383
284.86        18.22905
285.32        18.08511
285.77        18.00203
286.22        18.14754
286.68        18.50659
287.13        18.99871
287.59        19.43915
288.04        19.55173
288.50        19.31184
288.95        18.80067
289.41        18.21698
289.86        17.76198
290.32        17.55032
290.77        17.52054
291.22        17.63985
291.68        17.81638
292.13        18.03586
292.59        18.33684
293.04        18.77496
293.50         19.4278
293.95        20.28354
294.40        21.27355
294.86        22.29275
295.31        23.20106
295.77        23.97532
296.22        24.66735
296.68        25.34425
297.13        26.08261
297.58        26.93417
298.04        27.89746
298.49        28.99754
298.95        30.31533
299.40        31.84701
299.85        33.56708
300.31        35.38733
300.76        37.16079
301.21        38.80935
301.67        40.37594
302.12        41.83953
302.58        43.26889
303.03        44.67058
303.48        46.05479
303.94        47.51469
304.39        49.13747
304.84        50.94451
305.30        52.90487
305.75        54.86172
306.20        56.59228
306.66         58.0633
307.11        59.28904
307.57        60.43818
308.02        61.66087
308.47        63.04725
308.93        64.55331
309.38        66.06998
309.83        67.47385
310.29        68.71655
310.74        69.80518
311.19        70.81842
311.65         71.8773
312.10        72.99662
312.55        74.14957
313.00        75.20113
313.46        75.93857
313.91        76.31058
314.36        76.40917
314.82         76.4607
315.27         76.7646
315.72        77.42436
316.18         78.3549
316.63        79.38905
317.08        80.20584
317.53        80.70496
317.99        80.95945
318.44        81.14789
318.89        81.56663
319.35        82.26226
319.80        83.16522
320.25        84.02176
320.70        84.41893
321.16        84.27765
321.61        83.74649
322.06        83.13714
322.51        82.93617
322.97        83.23787
323.42         83.9248
323.87        84.74498
324.32        85.26196
324.78        85.33395
325.23        85.13611
325.68        84.80884
326.13        84.60751
326.59        84.60156
327.04        84.73045
327.49        84.96764
327.94         85.3052
328.39        85.71542
328.85        86.19659
329.30        86.70715
329.75        87.01019
330.20        87.07578
330.66        86.95231
331.11        86.85653
331.56        87.07031
332.01        87.68244
332.46        88.60227
332.92        89.67467
333.37        90.78172
333.82        91.74895
334.27        92.60199
334.72        93.27051
335.17        93.65696
335.63        93.76729
336.08        93.67696
336.53        93.51332
336.98         93.5359
337.43          93.826
337.88        94.31691
338.34        94.97661
338.79        95.82655
339.24        96.78771
339.69        97.87942
340.14        98.87945
340.59        99.39989
341.05         99.3765
341.50         98.9069
341.95         98.3591
342.40        98.31183
342.85        98.88311
343.30        99.90855
343.75        101.0573
344.20        101.7398
344.66        101.7987
345.11        101.4147
345.56         100.852
346.01        100.5019
346.46        100.4881
346.91        100.6916
347.36        101.0109
347.81        101.3002
348.26        101.5107
348.72        101.7105
349.17        101.9175
349.62         102.196
350.07        102.5416
350.52        102.9005
350.97        103.1896
351.42        103.3062
351.87         103.231
352.32        102.9985
352.77        102.6867
353.22        102.4176
353.67        102.2303
354.13        102.1159
354.58        101.9915
355.03        101.7794
355.48         101.458
355.93        101.0512
356.38        100.6251
356.83        100.2785
357.28        100.0267
357.73        99.83768
358.18        99.61266
358.63         99.1993
359.08         98.5779
359.53        97.80781
359.98        97.01378
360.43        96.38914
360.88         95.9669
361.33        95.66814
361.78        95.39376
362.23        94.98503
362.68        94.40273
363.13        93.72363
363.58        92.97006
364.03         92.1675
364.48         91.3494
364.93        90.50668
365.38        89.73792
365.83        89.20833
366.28         88.9257
366.73        88.81847
367.18        88.73045
367.63        88.40255
368.08        87.77651
368.53        86.95713
368.98        86.02567
369.43        85.10249
369.88        84.24469
370.33        83.41393
370.78        82.69872
371.23        82.24897
371.68        82.07743
372.13        82.14706
372.58        82.27792
373.03        82.15239
373.48        81.69678
373.93        81.01051
374.38         80.2562
374.83        79.68958
375.28        79.37218
375.72        79.19827
376.17         79.1126
376.62        79.00367
377.07        78.81284
377.52        78.56184
377.97        78.21895
378.42        77.73076
378.87        77.11536
379.32        76.42081
379.77         75.6951
380.22         75.0018
380.67        74.35938
381.11        73.74773
381.56        73.22081
382.01        72.86885
382.46        72.70354
382.91        72.71413
383.36         72.7415
383.81        72.53076
384.26        72.03912
384.71         71.3323
385.15        70.61375
385.60        70.25775
386.05        70.27969
386.50        70.55435
386.95        70.83208
387.40        70.69727
387.85          70.098
388.29        69.20414
388.74        68.33894
389.19        67.69193
389.64        67.29797
390.09        67.03056
390.54        66.91006
390.98        66.97716
391.43        67.19943
391.88        67.54861
392.33        67.78727
392.78        67.55711
393.23        66.86336
393.67        65.83533
394.12         64.8723
394.57        64.32862
395.02        64.28114
395.47        64.59214
395.91        65.13217
396.36        65.56856
396.81        65.78085
397.26        65.82206
397.71        65.70718
398.15        65.36363
398.60        64.89652
399.05        64.45918
399.50        64.07213
399.95         63.2999
400.39        62.58472
400.84        62.38782
401.29        62.71874
401.74        62.84318
402.18        62.70435
402.63        62.66066
403.08        62.78576
403.53        62.99102
403.97        63.26446
404.42        63.59249
404.87        63.82352
405.32        63.70024
405.76         63.1904
406.21        62.47897
406.66        61.76474
407.11        61.29662
407.55        61.20603
408.00        61.45337
408.45        61.90856
408.90        62.40563
409.34        62.66821
409.79        62.20906
410.24        61.30644
410.68        60.89247
411.13        61.06738
411.58        61.32578
412.03        61.58496
412.47        61.92119
412.92        62.23444
413.37         62.5312
413.81        62.74035
414.26        62.79164
414.71        62.66651
415.15        62.37743
415.60        62.04002
416.05         61.8641
416.49        61.90624
416.94        62.13418
417.39        62.39381
417.83        62.39979
418.28        62.11251
418.73        61.63794
419.17        61.19879
419.62        61.15091
420.07        61.52182
420.51         62.1782
420.96        62.89713
421.41        63.22984
421.85         63.0442
422.30        62.78254
422.74        62.48995
423.19        61.87635
423.64        61.18385
424.08        61.43131
424.53        62.47818
424.98        63.06919
425.42         63.0549
425.87        63.38539
426.31        63.98205
426.76         63.7779
427.21        63.06607
427.65        63.32615
428.10         64.4802
428.54        65.36593
428.99        65.90664
429.44         66.3092
429.88         66.5395
430.33        67.30331
430.77        68.02605
431.22        66.77654
431.66        64.18037
432.11        62.94225
432.56        63.33849
433.00        64.21698
433.45        65.41873
433.89        67.43805
434.34        68.81319
434.78        70.27878
435.23        65.90855
435.67         64.4469
436.12        66.89755
436.57        68.09052
437.01        68.39721
437.46         68.6124
437.90        68.91959
438.35        68.84689
438.79        69.37291
439.24        69.43546
439.68        69.35699
440.13        69.04093
440.57        68.83307
441.02         69.7382
441.46        71.35104
441.91        72.21054
442.35        72.06726
442.80        71.20245
443.24         70.0997
443.69        70.70238
444.13        72.56203
444.58        72.96719
445.02        71.11872
445.47        70.93089
445.91        72.03695
446.36        72.37914
446.80          71.893
447.24        71.66607
447.69        71.80476
448.13        72.01111
448.58        72.30093
449.02        72.69777
449.47        73.11597
449.91        73.43084
450.36         73.6055
450.80        73.65112
451.25        73.59999
451.69        73.47787
452.13        73.32878
452.58        73.15385
453.02        73.00274
453.47        72.99589
453.91        73.12556
454.36         73.3635
454.80        73.63306
455.24        73.66061
455.69        73.40855
456.13        73.18644
456.58        73.11363
457.02        72.42581
457.46        72.10094
457.91        72.37942
458.35        73.14725
458.79        73.51128
459.24        73.38156
459.68        73.21625
460.13        73.08537
460.57        72.89639
461.01        72.74406
461.46        72.48498
461.90        72.05367
462.34        72.43951
462.79        71.97232
463.23        71.92664
463.68        72.46738
464.12        72.72478
464.56        72.84396
465.01        73.01796
465.45         73.0775
465.89        72.93181
466.34        72.47307
466.78        71.29278
467.22        70.05214
467.67        69.11535
468.11        70.80745
468.55        71.64548
468.99        71.67426
469.44        71.41327
469.88        70.97661
470.32        70.99827
470.77        71.39092
471.21        71.36998
471.65        70.90656
472.10        70.63416
472.54        70.62735
472.98        70.65813
473.42        70.71015
473.87        71.03072
474.31        71.42893
474.75        71.24274
475.20        70.64516
475.64        70.55219
476.08        70.94518
476.52        70.98875
476.97        70.64495
477.41        70.52788
477.85        70.77432
478.29        70.50227
478.74        71.15278
479.18        71.54366
479.62        69.98553
480.06        70.51811
480.50        70.99477
480.95        71.48499
481.39        71.49799
481.83        70.54024
482.27        70.92165
482.72        70.43639
483.16         69.3204
483.60        69.60232
484.04        71.16425
484.48        71.57734
484.93        71.29018
485.37        73.18114
485.81         73.6886
486.25        72.40251
486.69        99.52906
487.14        80.29091
487.58        49.46358
488.02        60.92405
488.46        69.04844
488.90        68.22309
489.34        69.84541
489.79         68.8742
490.23        71.16929
490.67         72.0299
491.11        70.93131
491.55        70.80699
491.99        71.24829
492.43        71.04403
492.88        70.29971
493.32        70.30249
493.76        70.53765
494.20        70.83688
494.64        70.94077
495.08        71.14434
495.52        71.44318
495.96        71.33717
496.41        70.88409
496.85        71.28238
497.29        72.24203
497.73         71.2276
498.17         69.1838
498.61        69.30866
499.05        71.63215
499.49        72.05763
499.93        72.13302
500.37        71.90315
500.82        71.27871
501.26         71.2929
501.70        71.69621
502.14        72.01148
502.58        71.88994
503.02        71.76978
503.46        71.58998
503.90        71.17082
504.34        70.68404
504.78        70.48959
505.22         70.6342
505.66        71.04538
506.10         71.5517
506.54         71.7401
506.98        71.50031
507.42        71.42375
507.86        70.83349
508.30        70.63901
508.74        70.65822
509.18         70.8308
509.62        71.06393
510.06        71.22906
510.50        71.28837
510.94        71.28297
511.38        71.24831
511.82        71.22841
512.26        71.24007
512.70        71.26183
513.14        71.28412
513.58        71.30312
514.02        71.31078
514.46        71.30418
514.90        71.29527
515.34        71.28429
515.78        71.26172
516.22        71.29197
516.66        71.34357
517.10        71.19981
517.54        70.85704
517.98         70.9377
518.42        70.67407
518.86        70.77074
519.30        70.98575
519.74        71.35407
520.18        71.76511
520.62        72.01089
521.06        72.06149
521.50        72.01189
521.93        71.90992
522.37         71.7945
522.81        71.70374
523.25        71.64082
523.69        71.62093
524.13        71.65542
524.57        71.74282
525.01        71.88678
525.45         72.0465
525.89        72.14988
526.32        72.16981
526.76        72.11736
527.20        72.02805
527.64        71.98074
528.08        72.00986
528.52        72.03593
528.96        71.98988
529.40        71.96761
529.83        71.99803
530.27         71.3287
530.71        71.44641
531.15        71.33652
531.59        71.44131
532.03        71.67171
532.46        71.98582
532.90        72.27835
533.34        72.48689
533.78         72.6433
534.22        72.71236
534.66        72.63546
535.09        72.40788
535.53        72.13543
535.97        71.78374
536.41        71.56388
536.85        71.48705
537.28        71.53052
537.72        71.64648
538.16        71.76591
538.60        71.85769
539.04        71.87392
539.47        71.82775
539.91        71.93496
540.35        72.12013
540.79        72.07193
541.22        71.80662
541.66        71.64617
542.10        71.60211
542.54        71.49172
542.97        71.35693
543.41        71.37131
543.85        71.53423
544.29        71.82073
544.72        72.08548
545.16        72.13309
545.60        71.92284
546.04         71.5037
546.47        71.08875
546.91        71.05896
547.35        71.46099
547.79        72.13602
548.22         72.7784
548.66        73.01413
549.10        72.70927
549.53        71.82603
549.97        70.76401
550.41          70.243
550.84        70.39294
551.28        70.95871
551.72         71.7158
552.15        72.16946
552.59        72.15462
553.03        72.29733
553.46        72.10725
553.90        71.67828
554.34        71.90844
554.77        71.97089
555.21        71.87497
555.65        71.95575
556.08        72.17339
556.52        71.62465
556.96        71.97546
557.39        71.81909
557.83        71.71326
558.27        71.71113
558.70        71.82536
559.14         71.9975
559.57        72.18462
560.01        72.33438
560.45        72.42666
560.88        72.62592
561.32        72.82574
561.75        72.55645
562.19        71.96648
562.63        71.43615
563.06        71.14108
563.50        71.26337
563.93        71.67232
564.37         72.0179
564.80        72.13418
565.24         71.9896
565.68        71.68439
566.11        71.56703
566.55        71.72075
566.98        71.87992
567.42        72.01734
567.85        72.26197
568.29        72.60647
568.72         72.6599
569.16        72.62708
569.60        73.09352
570.03        73.59389
570.47        73.60073
570.90        73.34792
571.34        71.54449
571.77        72.91818
572.21        72.53612
572.64        71.83884
573.08        71.48887
573.51        68.17616
573.95        70.94088
574.38        75.29659
574.82        73.48824
575.25        73.05925
575.69        70.77982
576.12         69.7633
576.56         68.4146
576.99        70.16165
577.42        73.64333
577.86        73.36404
578.29        72.61881
578.73        76.88719
579.16        71.11597
579.60        64.58643
580.03        67.30166
580.47        72.01939
580.90        73.59194
581.33        72.26355
581.77        71.44298
582.20        78.68697
582.64        78.38136
583.07        66.99605
583.51        65.64458
583.94        64.17762
584.37        67.21814
584.81        70.14405
585.24        73.89093
585.68        75.66348
586.11        74.96041
586.54        69.58184
586.98        67.41192
587.41        67.69557
587.85        71.49725
588.28        74.13503
588.71        70.67728
589.15        68.11658
589.58        69.51302
590.01        69.94035
590.45        70.69472
590.88        71.71884
591.31        70.97975
591.75        70.53629
592.18        70.40002
592.61         71.6464
593.05        72.60857
593.48         75.9659
593.91        76.99395
594.35        70.53628
594.78        68.82462
595.21        68.44785
595.65        71.58337
596.08        74.53967
596.51        71.44358
596.94        69.47857
597.38        70.01111
597.81         72.5723
598.24        74.75814
598.68        73.10781
599.11        71.62046
599.54         74.5602
599.97        76.72477
600.41        71.10084
600.84        71.34922
601.27        72.97403
601.70        71.69424
602.14          71.588
602.57        70.58289
603.00        71.46776
603.43        72.99892
603.87         74.1617
604.30        74.25467
604.73        71.99564
605.16        70.35807
605.60        71.02834
606.03        72.14922
606.46        73.49915
606.89         73.3638
607.32        71.10993
607.76         70.8222
608.19        73.24273
608.62        72.75782
609.05        71.21548
609.48        71.78234
609.92        71.69385
610.35        71.34541
610.78        73.46981
611.21        74.13158
611.64        70.89643
612.07        71.66729
612.50        72.08637
612.94        72.54677
613.37        71.97058
613.80        71.90876
614.23        72.44707
614.66        72.22906
615.09         72.5722
615.52        72.66177
615.96        72.66618
616.39        72.84019
616.82        71.72519
617.25        71.49892
617.68        72.03572
618.11        72.62999
618.54        73.07473
618.97        72.66953
619.40        71.78886
619.84        71.69279
620.27        72.77736
620.70        73.30709
621.13        73.27478
621.56         72.5058
621.99        71.62594
622.42        72.39772
622.85        74.33394
623.28        74.15609
623.71        73.39221
624.14        73.39157
624.57        73.18377
625.00         72.9867
625.43        73.13022
625.86         72.4634
626.29        72.58553
626.72        73.02142
627.15        72.70232
627.58        72.84312
628.01        72.99537
628.44        73.12721
628.87        73.23975
629.30        73.49642
629.73        73.78603
630.16        73.89516
630.59        73.52561
631.02        73.07685
631.45        72.60477
631.88        72.27388
632.31        72.13991
632.74         72.1655
633.17        72.29082
633.60         72.3987
634.03        72.44865
634.46        72.48009
634.89        72.49596
635.32        72.49966
635.75        72.49747
636.18        72.47031
636.61        72.44749
637.04        72.48889
637.47        72.59832
637.89        72.76681
638.32        72.91271
638.75         72.9481
639.18        72.85136
639.61        72.66125
640.04        72.42842
640.47        72.23107
640.90         72.1035
641.33        72.02454
641.76        71.97439
642.18        72.02246
642.61        72.15928
643.04        72.20184
643.47        72.09084
643.90        72.66895
644.33        72.42312
644.76         72.5612
645.18        72.61707
645.61        72.58464
646.04         72.4525
646.47          72.227
646.90        72.01112
647.33        71.93578
647.75        72.05286
648.18        72.31377
648.61        72.54279
649.04        72.60425
649.47        72.39865
649.89        71.57349
650.32         70.5748
650.75        70.52048
651.18        71.37455
651.61        72.19312
652.03        72.56599
652.46        72.53444
652.89        72.48086
653.32        71.83377
653.74        70.92855
654.17        72.81799
654.60        73.33037
655.03        70.55138
655.46        71.54032
655.88        76.00221
656.31        81.17865
656.74        187.2527
657.16        122.0999
657.59        42.97292
658.02        32.02842
658.45        54.30751
658.87        69.55048
659.30         73.1107
659.73        72.12445
660.15        69.27975
660.58        72.17476
661.01        74.01729
661.44        71.71805
661.86        70.93146
662.29        70.86105
662.72        71.59071
663.14        72.85946
663.57        72.75854
664.00        71.56048
664.42        71.32034
664.85        72.11046
665.27        72.59867
665.70        72.57027
666.13        72.44438
666.55        72.19984
666.98        71.70356
667.41        71.14941
667.83        70.91862
668.26        71.09127
668.69         71.5208
669.11        71.96248
669.54         72.3776
669.96        72.01134
670.39        71.51949
670.82        70.94085
671.24        70.71168
671.67        70.93971
672.09        71.42046
672.52        71.86625
672.94        72.39339
673.37        71.74702
673.80        71.54611
674.22        71.51015
674.65        71.45541
675.07        71.38039
675.50        71.27679
675.92        71.18552
676.35         71.2131
676.77        71.36668
677.20        71.53712
677.62        71.69934
678.05        71.81834
678.47         71.8669
678.90         71.8655
679.32        71.84297
679.75        71.71281
680.17        71.77243
680.60        71.79086
681.02        71.79861
681.45        71.68724
681.87        71.46037
682.30        71.14565
682.72        70.87492
683.15        70.87457
683.57        71.19254
684.00        71.66666
684.42        72.26178
684.85        72.54922
685.27        72.49033
685.70          72.186
686.12        71.78313
686.54        71.56383
686.97        71.58395
687.39        71.77483
687.82        72.01254
688.24        72.14619
688.66        72.10865
689.09        71.96431
689.51        71.80919
689.94        71.76452
690.36        71.87199
690.78        72.06899
691.21        72.28912
691.63        72.45271
692.06        72.52511
692.48        72.51128
692.90        72.45396
693.33        72.43674
693.75        72.47297
694.17        72.52303
694.60        72.59056
695.02        72.63836
695.44        72.61283
695.87        72.81509
696.29        73.18494
696.71        72.76678
697.14        71.88192
697.56        72.44138
697.98        74.08334
698.41        74.04161
698.83        73.04403
699.25        72.37029
699.68        72.36697
700.10        72.23879
700.52        72.02654
700.94        72.14597
701.37        72.51598
701.79        72.89264
702.21        73.17709
702.64         73.4354
703.06        73.59389
703.48        73.53221
703.90        73.25799
704.33        72.80466
704.75        72.30316
705.17        72.06134
705.59        72.15876
706.01        72.39832
706.44        72.64322
706.86        73.29398
707.28        73.31037
707.70        73.49168
708.12        73.55722
708.55        73.53308
708.97        73.41375
709.39        73.20132
709.81        72.98613
710.23        72.91549
710.66         73.0252
711.08        73.30529
711.50        73.61205
711.92        73.72763
712.34        73.60323
712.76        73.29153
713.19         72.9433
713.61        72.83604
714.03        73.01774
714.45        73.40558
714.87        73.81207
715.29         73.9402
715.71        73.72834
716.13        73.27986
716.56        72.77601
716.98        72.53751
717.40        72.63823
717.82        72.97491
718.24        73.40227
718.66        73.67467
719.08        73.71662
719.50        73.60828
719.92        73.41362
720.34        73.25481
720.76        73.17843
721.19        73.01986
721.61        73.02759
722.03        73.09526
722.45        73.28376
722.87         73.5815
723.29        73.90286
723.71          74.091
724.13        74.10423
724.55        73.98222
724.97        73.83111
725.39         73.7777
725.81        73.84792
726.23        74.09415
726.65        74.45686
727.07        74.29197
727.49        74.44457
727.91        74.27532
728.33        74.09808
728.75        73.97962
729.17        73.95629
729.59        73.97508
730.01        74.04855
730.43        74.21387
730.85        74.46199
731.27        74.81647
731.69        75.14722
732.10        75.21615
732.52        74.98488
732.94        74.56372
733.36        74.18498
733.78        74.08736
734.20        74.32958
734.62        75.14813
735.04        76.22678
735.46        76.28403
735.88        75.53541
736.30        75.74281
736.72        76.87561
737.13        77.24802
737.55        76.64201
737.97        76.47937
738.39        76.80019
738.81         76.1005
739.23        74.85439
739.65        75.79801
740.06        78.34862
740.48         78.6599
740.90        76.80323
741.32        75.83799
741.74        76.09511
742.16        76.20692
742.57        76.25811
742.99        77.03136
743.41        78.24292
743.83         78.9655
744.25        79.02474
744.67        78.66209
745.08        78.14919
745.50        77.92545
745.92         78.1324
746.34        78.61472
746.75        79.18058
747.17        79.51398
747.59        79.54859
748.01        79.38788
748.42        79.23223
748.84        79.37569
749.26        79.88744
749.68        80.63426
750.09        81.40765
750.51        81.88963
750.93        81.99728
751.35        81.73408
751.76        81.27243
752.18        81.11543
752.60        81.25463
753.01        81.21258
753.43        81.02936
753.85         81.1499
754.27        81.59448
754.68        82.22041
755.10        82.90714
755.52        83.24295
755.93        83.73905
756.35        83.87222
756.77        83.93529
757.18        83.96822
757.60        83.98968
758.02        84.38844
758.43        84.87048
758.85        84.13763
759.26        82.40942
759.68        82.38543
760.10        83.76971
760.51        84.18067
760.93        83.38516
761.34        82.33642
761.76        82.08585
762.18        81.62286
762.59        81.36894
763.01        81.58556
763.42        82.30189
763.84        83.06869
764.26        83.72036
764.67        84.10014
765.09        84.11009
765.50        83.89495
765.92        83.45376
766.33        82.25443
766.75        80.79157
767.16        80.40414
767.58        81.23721
768.00        82.70718
768.41         84.4326
768.83        85.84321
769.24         86.3632
769.66         85.4551
770.07        83.74097
770.49         82.2877
770.90        81.45507
771.32        82.34267
771.73        84.27982
772.15        83.65194
772.56         80.9666
772.97        80.50182
773.39        82.14674
773.80        82.69798
774.22        81.93715
774.63        81.85077
775.05        82.39724
775.46        82.66291
775.88        82.54742
776.29        82.31727
776.70          82.081
777.12        82.03875
777.53        82.25055
777.95        82.59245
778.36        82.90544
778.77        82.91557
779.19        82.60795
779.60        82.06926
780.02        81.53045
780.43        81.43694
780.84        81.92538
781.26        82.40325
781.67        82.78951
782.09        83.90995
782.50        85.18732
782.91        84.12804
783.33        81.50739
783.74        80.65921
784.15        81.76253
784.57        82.72842
784.98        83.15275
785.39        83.18092
785.81        83.05359
786.22        82.40985
786.63        81.75136
787.04        81.68074
787.46         82.2868
787.87        83.41008
788.28        84.62466
788.70        85.17213
789.11        84.87667
789.52        84.01141
789.93        82.96217
790.35        82.26186
790.76        82.06982
791.17        82.28352
791.58        82.70618
792.00        82.94554
792.41        82.88249
792.82        82.68422
793.23        82.56909
793.65        82.44817
794.06         82.5397
794.47        83.80002
794.88        85.41167
795.29        85.21964
795.71        82.68661
796.12        80.53259
796.53        79.22479
796.94        78.86984
797.35        79.53437
797.76        80.81429
798.18        82.11127
798.59        82.97866
799.00        83.07079
799.41        82.21005
799.82        80.86544
800.23        80.07487
800.64        80.05721
801.06        80.41167
801.47        81.00577
801.88        81.51015
802.29        81.78688
802.70        81.99254
803.11        82.10742
803.52        82.05923
803.93        81.86691
804.34        81.49609
804.75        81.14435
805.17        81.18317
805.58        81.70686
805.99        82.49869
806.40        83.23218
806.81        83.62172
807.22        83.40401
807.63        82.13676
808.04        80.37794
808.45        79.52661
808.86        79.78471
809.27         80.5603
809.68         81.4848
810.09        82.06236
810.50        82.07213
810.91        81.69303
811.32        81.12557
811.73        80.68846
812.14        80.48504
812.55        80.35926
812.96        80.34651
813.37         80.5218
813.78        80.86227
814.19        81.40361
814.60        81.85449
815.01        81.75064
815.42        81.03473
815.83        79.80163
816.24        78.54778
816.65        78.15014
817.05        78.86367
817.46        80.40092
817.87        82.12438
818.28         82.8926
818.69        82.39162
819.10        80.90781
819.51        79.15625
819.92        78.34797
820.33        78.80183
820.74        80.15503
821.14        81.72189
821.55        82.28642
821.96         81.5948
822.37        80.08035
822.78         78.3979
823.19        77.50676
823.60        77.65861
824.00        78.60168
824.41        79.86198
824.82        80.72948
825.23          80.904
825.64        80.62973
826.04        80.14513
826.45        79.80155
826.86        79.69869
827.27        79.66137
827.68        79.64957
828.08        79.65862
828.49        79.60451
828.90        79.61181
829.31        79.55634
829.72        79.18829
830.12        78.53222
830.53        77.66087
830.94        76.96069
831.35        76.96602
831.75         77.7959
832.16          79.236
832.57        80.89942
832.97        81.98683
833.38        82.14897
833.79        81.60354
834.20        80.75118
834.60        80.21581
835.01        80.19466
835.42         80.4928
835.82        80.86868
836.23        80.83761
836.64        80.32647
837.04        79.54662
837.45        78.77077
837.86         78.4072
838.26        78.56573
838.67        79.06258
839.08        79.71986
839.48        80.21805
839.89        80.39702
840.29        80.36834
840.70        80.16987
841.11         79.8412
841.51        79.43508
841.92        78.91161
842.33        78.41247
842.73        78.19126
843.14        78.26308
843.54        78.61563
843.95        79.01526
844.35        79.12518
844.76        78.85128
845.17        78.31304
845.57        77.72121
845.98         77.4106
846.38        77.46154
846.79        77.74438
847.19        78.14273
847.60        78.35699
848.00        78.33733
848.41        78.15939
848.81        77.94416
849.22         77.7913
849.62        77.79535
850.03        77.92298
850.43        78.20195
850.84        78.59218
851.24         79.0984
851.65        79.52468
852.05         80.0028
852.46        80.56696
852.86         81.1967
853.27         81.9108
853.67        82.18678
854.07        81.35513
854.48        79.48046
854.88        76.82864
855.29        74.33793
855.69        73.36473
856.10        74.16621
856.50        76.56048
856.90         79.6973
857.31        81.58736
857.71        81.56577
858.12        80.13016
858.52        78.16765
858.92        76.85871
859.33        76.47642
859.73        76.69669
860.13        77.33851
860.54         78.0368
860.94         78.6855
861.34         79.3832
861.75        80.06648
862.15        80.70351
862.55        81.22987
862.96        81.56964
863.36        81.74665
863.76         81.8004
864.17         81.7658
864.57        81.72472
864.97        81.69417
865.38         81.6827
865.78        81.74702
866.18        81.79697
866.58        81.94671
866.99        82.36401
867.39        83.11721
867.79        84.20723
868.19        85.17198
868.60        85.15403
869.00        83.99458
869.40        81.93487
869.80        79.98128
870.21        79.71975
870.61        81.57303
871.01        85.06336
871.41        88.99615
871.81        91.31588
872.22        91.43749
872.62        89.96266
873.02        87.95299
873.42        87.18477
873.82        87.95151
874.22        89.50196
874.63         91.2663
875.03        92.04444
875.43        91.29652
875.83        90.15723
876.23        88.21351
876.63        87.37644
877.03        87.75487
877.44        89.50459
877.84        102.1582
878.24        96.44016
878.64        96.50854
879.04        95.61516
879.44        92.54647
879.84        91.02952
880.24        93.70853
880.64        95.52612
881.04         96.9254
881.44        97.62115
881.84        96.89005
882.24        95.11201
882.65        93.43723
883.05        93.11726
883.45        94.35674
883.85        96.97646
884.25        99.94482
884.65        101.2547
885.05        100.3576
885.45        98.00178
885.85        95.39547
886.25        94.18472
886.65        94.68761
887.05        96.31673
887.45         98.4398
887.85        99.91416
888.25        100.2934
888.65        100.0217
889.04        99.21571
889.44        98.08824
889.84        96.82178
890.24        95.31435
890.64        94.06178
891.04        93.85731
891.44        94.78367
891.84        96.67134
892.24        98.74908
892.64        99.56932
893.04        98.82989
893.44        97.08349
893.83        95.17861
894.23         94.3624
894.63        94.88476
895.03        96.27735
895.43        98.22774
895.83        100.1381
896.23        101.6431
896.63        102.9217
897.02        103.5854
897.42        103.0165
897.82        101.2623
898.22        98.55996
898.62        95.83496
899.01        94.46152
899.41        94.72839
899.81        96.21643
900.21        98.17557
900.61         99.3485
901.00        99.36471
901.40            98.6
901.80        97.52663
902.20         96.8889
902.59        96.89557
902.99        97.27506
903.39        97.72234
903.79        97.74706
904.18        97.23753
904.58        96.47573
904.98        95.76272
905.38        95.52654
905.77        95.84224
906.17        96.50359
906.57        97.33741
906.96        98.16065
907.36        98.80705
907.76        99.32445
908.15        99.58559
908.55        99.26767
908.95        98.40067
909.34        97.06065
909.74        95.61864
910.14        94.48872
910.53        93.83727
910.93        93.63184
911.33        93.82407
911.72        94.29848
912.12        94.87986
912.52        95.51469
912.91        96.14955
913.31        96.75912
913.70          97.387
914.10        98.00367
914.49        98.41727
914.89         98.1114
915.29        97.04109
915.68        95.41316
916.08        93.97475
916.47         93.3105
916.87        93.49464
917.26         94.3636
917.66        95.37897
918.05        95.70179
918.45        95.13094
918.84        93.97298
919.24        92.84741
919.64        92.64244
920.03        93.57208
920.42        95.32191
920.82        97.34865
921.21        98.85648
921.61         99.3793
922.00        99.18636
922.40        98.45774
922.79        97.43274
923.19        96.28342
923.58        94.90411
923.98        93.38277
924.37        92.21531
924.77        91.81742
925.16        90.45355
925.55        91.35272
925.95        92.08126
926.34        93.51801
926.74        95.26152
927.13        96.95738
927.52        97.75213
927.92        97.54398
928.31        96.60281
928.70        95.16788
929.10        93.69326
929.49        92.34595
929.89         91.0609
930.28          90.258
930.67        90.63228
931.07        92.13051
931.46        94.60333
931.85        97.07545
932.24        98.07712
932.64        97.31516
933.03         95.0604
933.42        92.02229
933.82        89.84254
934.21        89.04878
934.60        89.23096
934.99        89.77494
935.39        90.00214
935.78        89.79822
936.17        89.12509
936.56        87.80293
936.96        88.26868
937.35        87.09116
937.74        87.09446
938.13        87.32328
938.53        88.17927
938.92        89.68462
939.31        91.90543
939.70         94.2837
940.09        95.17889
940.49         94.0745
940.88         91.6712
941.27        89.13408
941.66        87.84713
942.05        88.00027
942.44        89.11965
942.84        90.82195
943.23        92.50646
943.62        93.75827
944.01        94.73328
944.40        95.27305
944.79        95.13203
945.18        94.26656
945.57        92.57665
945.97        90.36485
946.36        88.63844
946.75        87.96301
947.14         88.1715
947.53        88.78222
947.92        89.20739
948.31        89.35598
948.70        89.39506
949.09        89.48367
949.48        89.90462
949.87        90.69579
950.26        91.63716
950.65        92.47581
951.04        92.92377
951.43        92.90752
951.82        92.50384
952.21        91.80359
952.60        91.00321
952.99        90.19208
953.38        89.31437
953.77        88.45995
954.16        87.71607
954.55        87.11664
954.94        86.78388
955.33        86.48182
955.72        85.77888
956.11        84.64337
956.50        83.14986
956.89        82.02026
957.28        82.55477
957.66        85.03831
958.05        88.75665
958.44        92.47855
958.83         94.3933
959.22        94.08878
959.61        92.04864
960.00        89.15319
960.39        86.87962
960.78        85.73477
961.16        85.39004
961.55        85.38497
961.94         84.9267
962.33        83.84467
962.72        82.55203
963.11        81.48098
963.49        81.13433
963.88        81.56911
964.27        82.58607
964.66        83.83443
965.04        84.61163
965.43        84.52875
965.82        83.88669
966.21        83.05244
966.60        82.49785
966.98        82.36638
967.37        82.46872
967.76        82.76527
968.15        83.16237
968.53        83.54878
968.92        83.86072
969.31        84.06546
969.69        84.07661
970.08        83.89487
970.47         83.5798
970.86        83.00105
971.24        81.96967
971.63        80.49622
972.02        78.64384
972.40        76.96966
972.79        76.42188
973.17        77.36619
973.56        79.51946
973.95         82.1161
974.33        83.58746
974.72        83.35585
975.11        81.86555
975.49         80.0345
975.88        79.18475
976.26        79.53357
976.65         80.7702
977.04        82.17833
977.42        82.06409
977.81        79.92419
978.19        76.56706
978.58        73.70451
978.96        72.98518
979.35        74.63375
979.74        78.25509
980.12        83.16025
980.51        86.58414
980.89        87.58184
981.28         86.7839
981.66        85.05962
982.05        83.57595
982.43        82.64156
982.82        81.87378
983.20        81.55977
983.59        82.24203
983.97        84.06138
984.35        87.10697
984.74        90.44035
985.12        92.10192
985.51        90.94526
985.89        87.32564
986.28        82.67637
986.66        79.41177
987.04         78.4855
987.43        79.26004
987.81        80.60816
988.20        81.20421
988.58        80.70091
988.96        79.13042
989.35         77.0799
989.73        77.32297
990.12        81.00847
990.50        86.56309
990.88        90.58888
991.27        90.80242
991.65        87.69707
992.03        82.10052
992.42        75.96848
992.80        72.90589
993.18        74.00743
993.56        77.24574
993.95        80.95829
994.33        83.76139
994.71        85.20164
995.10         86.1292
995.48        86.07395
995.86        84.01752
996.24        79.81378
996.63        73.14559
997.01        65.79167
997.39        62.96746
997.77        66.92208
998.15        76.48014
998.54        86.99609
998.92        91.99203
999.30        89.69664
999.68        81.73767
1000.06        70.71374
1000.45        62.99769
1000.83        61.22522
1001.21        63.14717
1001.59        67.07001
1001.97        71.37608
1002.35        75.68245
1002.73        81.34443
1003.12        86.92021
1003.50        87.61271
1003.88        81.59436
1004.26        71.23653
1004.64        61.61832
1005.02        57.12016
1005.40        58.04793
1005.78        64.32784
1006.16         76.4977
1006.54        87.93408
1006.92        91.13627
1007.30        88.75211
1007.69        85.25263
1008.07        83.64187
1008.45        84.16577
1008.83        86.42996
1009.21        91.18941
1009.59        96.20501
1009.97        85.49539
1010.35        41.03379
1010.73        18.85453
1011.11         31.3457
1011.49        47.44935
1011.86        61.59124
1012.24        69.96421
1012.62        72.97012
1013.00        72.40666
1013.38        68.84618
1013.76        64.46844
1014.14        67.07174
1014.52        83.30882
1014.90        115.6475
1015.28        154.8989
1015.66        174.1413
1016.04        157.4254
1016.41        110.0048
1016.79        59.50937
1017.17        35.44391
1017.55        34.99812
1017.93        43.56818
1018.31        53.10569
1018.69        59.50168
1019.06        63.28555
1019.44        65.88035
1019.82        69.98619
1020.20        82.21365
1020.58        112.0782
1020.95        175.6175
1021.33        316.2904
1021.71       -1489.983
1022.09       -11.80076
1022.46        76.77409
1022.84         109.788
1023.22        129.0318
1023.60        152.7348
1023.97        332.1369
1024.35        38.07662
1024.73        76.29593
