SpectraSmart Spectrum 2.9.0.0
--------- Device Information -----------
Spectrum Name :  反射率_0
Saving Time :  2024/04/26 01:35:32
Spectro-Module Model Name : SE2030-DUVN
Spectro-Module Serial Number : OS361AC55029948
Wavelength Start : 200
Wavelength End : 1025
Wavelength Unit : Wavelength(nm)
Spectrum Unit : Reflectance(%)
-----------Spectrum Setting ------------
Integration Time : 20ms
Average : 10
Boxcar : 0
Background removal :  enabled
linearity correction :  enabled
SC :  disabled
Intensity correction :  disabled
DWT denoise :  enabled
savitzky-golay :  disabled
FFT :  disabled
Running average :  disabled
Kalman :  disabled
High pass :  disabled
---------------BEGIN--------------------
Wavelength(nm)             Reflectance(%)
200.29               0
200.75        101.7804
201.21        93.68629
201.67        84.64877
202.13        80.19254
202.58         80.8881
203.04        85.65082
203.50        91.49377
203.96        93.22814
204.42        90.14117
204.88        84.61796
205.34        79.64494
205.80         78.1627
206.26        81.14391
206.72        90.52183
207.18        110.4943
207.64        129.5472
208.10        120.2382
208.55        97.84068
209.01        83.15347
209.47        77.71127
209.93        77.57293
210.39        80.57793
210.85        84.31101
211.31        84.09091
211.77        78.66961
212.23        69.98895
212.69        62.02977
213.14        60.84352
213.60         67.2099
214.06        79.28937
214.52        92.56613
214.98        100.1736
215.44        100.3987
215.90        95.46873
216.36        88.63389
216.81        84.37723
217.27        84.02259
217.73        85.99642
218.19        88.06745
218.65        87.34644
219.11        82.90022
219.57        74.42209
220.02         63.7393
220.48        59.28743
220.94        65.12434
221.40        78.05786
221.86        89.40514
222.32        90.71957
222.77        83.25338
223.23        72.33067
223.69        62.73512
224.15        59.29128
224.61        61.63549
225.06        67.44456
225.52        73.82491
225.98        77.18172
226.44         76.8248
226.90        74.29057
227.36        71.41546
227.81        70.61561
228.27        72.61928
228.73        76.13304
229.19        79.97672
229.65        82.48121
230.10        83.22169
230.56        83.13457
231.02        82.65893
231.48        82.27225
231.93        82.11604
232.39        82.09002
232.85        82.37743
233.31        83.41129
233.77        85.21471
234.22        87.75166
234.68        90.45185
235.14        92.11874
235.60        92.35417
236.05        91.46169
236.51        90.13487
236.97         89.4267
237.43         89.6298
237.88        90.61412
238.34        92.03467
238.80        93.44761
239.26        94.42735
239.71        95.44848
240.17        95.81759
240.63           95.08
241.08        93.46711
241.54         91.0758
242.00        89.22058
242.46        89.82276
242.91         94.6891
243.37        107.9684
243.83        146.9355
244.28        254.8223
244.74        340.5067
245.20        247.0658
245.66        184.3044
246.11          169.35
246.57        181.3408
247.03        233.5166
247.48        395.9078
247.94        336.0362
248.40        167.8622
248.85        113.9646
249.31        96.90603
249.77        93.60854
250.22         97.5438
250.68        107.9989
251.14        125.1776
251.59         140.036
252.05        141.6187
252.51        132.9861
252.96        121.8185
253.42        116.8984
253.88        118.3478
254.33        122.8348
254.79        129.5533
255.25        136.7437
255.70        142.8691
256.16        148.7266
256.62        153.0296
257.07        154.2882
257.53        153.6865
257.99        151.4615
258.44         148.434
258.90        147.1197
259.35        146.3075
259.81        145.6979
260.27        144.2028
260.72        140.7505
261.18        136.3335
261.63        131.0603
262.09        125.8146
262.55        120.4642
263.00        115.1555
263.46        110.4283
263.91        106.3075
264.37        103.5421
264.83        101.6173
265.28        100.0772
265.74        98.47641
266.19        95.71107
266.65        92.21507
267.11        88.50703
267.56        85.06691
268.02        82.49642
268.47        80.58945
268.93        79.12637
269.38        77.93709
269.84        76.97993
270.30        76.18277
270.75        75.57361
271.21        74.96525
271.66        74.02874
272.12        72.73455
272.57        71.15683
273.03        69.58875
273.48        68.35661
273.94        67.60031
274.39         67.1267
274.85        66.84219
275.31        66.52131
275.76        66.04633
276.22        65.52459
276.67        64.86705
277.13        64.13761
277.58        63.27032
278.04        62.35325
278.49        61.34841
278.95        60.38399
279.40        59.40132
279.86        58.47662
280.31         57.5505
280.77        56.72902
281.22        55.95387
281.68        55.28901
282.13        54.66132
282.59        54.07945
283.04        53.49659
283.50        52.98239
283.95        52.49954
284.41        52.07313
284.86        51.67928
285.32        51.33593
285.77        51.07018
286.22        51.02736
286.68        51.18827
287.13        51.44125
287.59        51.63377
288.04        51.48013
288.50        50.99012
288.95        50.22735
289.41        49.39857
289.86        48.65075
290.32        48.13102
290.77        47.77417
291.22        47.62579
291.68        47.69878
292.13        47.97727
292.59        48.47811
293.04        49.15812
293.50        49.95735
293.95        50.82196
294.40        51.72471
294.86        52.65071
295.31        53.58749
295.77        54.54473
296.22        55.52294
296.68        56.50362
297.13         57.4285
297.58        58.30661
298.04        59.17587
298.49        60.12201
298.95        61.34302
299.40        62.84467
299.85        64.55699
300.31         66.3248
300.76        67.88916
301.21        69.16226
301.67        70.26846
302.12        71.21896
302.58        72.17587
303.03        73.14972
303.48         74.1384
303.94        75.26416
304.39        76.63455
304.84         78.2641
305.30        80.10201
305.75        81.90025
306.20        83.31972
306.66        84.32025
307.11        84.95053
307.57        85.46899
308.02        86.11053
308.47        87.01274
308.93        88.11639
309.38         89.2997
309.83         90.4373
310.29        91.47675
310.74        92.41597
311.19        93.32738
311.65        94.30989
312.10        95.36115
312.55        96.45925
313.00        97.44072
313.46        98.06155
313.91         98.2654
314.36        98.14154
314.82        97.98215
315.27        98.17181
315.72        98.83016
316.18        99.84796
316.63        100.9564
317.08        101.6625
317.53        101.8372
317.99        101.6118
318.44        101.3108
318.89        101.4609
319.35        102.1562
319.80         103.268
320.25        104.4018
320.70        104.9043
321.16         104.634
321.61        103.8203
322.06        102.8914
322.51        102.5162
322.97        102.8285
323.42        103.6473
323.87        104.6516
324.32        105.2947
324.78         105.389
325.23        105.1577
325.68         104.745
326.13        104.4147
326.59        104.2479
327.04        104.1875
327.49        104.2475
327.94        104.5004
328.39        104.9357
328.85        105.5294
329.30        106.2037
329.75        106.6144
330.20        106.7037
330.66        106.5511
331.11         106.409
331.56        106.6119
332.01        107.2663
332.46        108.2467
332.92        109.3984
333.37        110.6561
333.82        111.8213
334.27        112.9128
334.72        113.7629
335.17        114.1069
335.63        113.9286
336.08        113.3772
336.53        112.7263
336.98        112.4776
337.43        112.7733
337.88        113.4692
338.34        114.4421
338.79        115.5707
339.24        116.7083
339.69        117.9197
340.14        118.9503
340.59        119.3616
341.05         119.111
341.50        118.3133
341.95        117.4524
342.40        117.2841
342.85        117.9587
343.30        119.2639
343.75        120.7702
344.20        121.7062
344.66        121.8519
345.11        121.4297
345.56        120.7519
346.01        120.2894
346.46        120.1927
346.91        120.3136
347.36          120.54
347.81        120.7142
348.26        120.7874
348.72        120.8441
349.17        120.9138
349.62        121.0696
350.07        121.3066
350.52        121.5561
350.97        121.7422
351.42        121.7703
351.87        121.6207
352.32        121.3401
352.77        120.9561
353.22        120.5129
353.67        120.0476
354.13        119.5731
354.58        119.1263
355.03        118.8249
355.48        118.6717
355.93        118.6233
356.38        118.5639
356.83        118.3069
357.28        117.8018
357.73        117.0992
358.18        116.2719
358.63        115.4429
359.08        114.6629
359.53        113.9104
359.98         113.173
360.43        112.4285
360.88         111.663
361.33        110.8797
361.78        110.1045
362.23        109.3715
362.68        108.6922
363.13        108.0742
363.58        107.4371
364.03        106.6521
364.48        105.7046
364.93        104.6263
365.38          103.58
365.83        102.8332
366.28        102.4216
366.73         102.242
367.18        102.0762
367.63        101.5717
368.08        100.6573
368.53        99.48043
368.98        98.20919
369.43        97.08705
369.88        96.19653
370.33        95.46436
370.78        94.89157
371.23        94.48398
371.68        94.21481
372.13          94.083
372.58        93.99777
373.03         93.7941
373.48        93.43233
373.93        92.95512
374.38        92.42393
374.83        91.94406
375.28        91.54417
375.72        91.17061
376.17        90.84606
376.62        90.58775
377.07        90.37321
377.52        90.17917
377.97         89.9252
378.42        89.48001
378.87         88.8407
379.32        88.09264
379.77        87.29603
380.22        86.52802
380.67         85.8139
381.11        85.11648
381.56        84.51778
382.01        84.16003
382.46        84.05617
382.91        84.18102
383.36        84.30153
383.81        84.04177
384.26         83.3462
384.71        82.33286
385.15        81.29594
385.60        80.75343
386.05        80.74269
386.50        81.08477
386.95        81.48482
387.40         81.4453
387.85        80.88063
388.29        79.98749
388.74         79.0872
389.19        78.32378
389.64        77.74067
390.09        77.21823
390.54        76.86659
390.98        76.87037
391.43        77.21355
391.88        77.83867
392.33        78.40731
392.78        78.20019
393.23        77.37001
393.67        76.16722
394.12        75.15102
394.57        74.05037
395.02        73.99183
395.47        74.40293
395.91        75.35684
396.36         76.0173
396.81        76.20731
397.26        76.22039
397.71        76.08795
398.15        75.69758
398.60        75.18351
399.05        74.65351
399.50        74.14515
399.95        73.35174
400.39        72.70528
400.84        72.32551
401.29         72.2896
401.74        72.29511
402.18        72.29476
402.63        72.28085
403.08        72.30885
403.53        72.49985
403.97        72.82921
404.42        73.15405
404.87        73.35081
405.32        73.22192
405.76        72.73223
406.21        72.16457
406.66        71.61977
407.11        70.97957
407.55        70.48565
408.00         70.6285
408.45        71.29812
408.90         71.9837
409.34         72.2902
409.79        71.65067
410.24        70.41429
410.68         69.8035
411.13        69.93658
411.58        70.10181
412.03        70.21224
412.47        70.46056
412.92        70.74741
413.37        71.04485
413.81        71.25411
414.26        71.27018
414.71        71.06125
415.15        70.64842
415.60        70.17133
416.05        69.87708
416.49        69.83543
416.94        70.00674
417.39        70.21329
417.83        70.13093
418.28          69.714
418.73        69.08173
419.17        68.50036
419.62        68.39238
420.07        68.79236
420.51         69.5482
420.96        70.36985
421.41        70.71362
421.85        70.42745
422.30        69.95587
422.74        69.42617
423.19        68.76016
423.64        68.17212
424.08         68.4524
424.53        69.42302
424.98        69.95911
425.42        69.90382
425.87        70.11057
426.31        70.53993
426.76        70.21591
427.21        69.45764
427.65        69.76369
428.10        70.99033
428.54        71.84789
428.99        72.23947
429.44        72.38816
429.88        72.35419
430.33        73.04491
430.77        73.84795
431.22        72.66846
431.66        70.07024
432.11        68.68221
432.56        68.82827
433.00        69.64351
433.45         71.0053
433.89        73.00279
434.34        74.10764
434.78        75.49256
435.23        71.63742
435.67        69.05265
436.12        71.62798
436.57        72.72868
437.01         73.2879
437.46        74.30485
437.90        74.22617
438.35         73.1447
438.79        74.06229
439.24        73.83374
439.68        73.52583
440.13        73.09233
440.57        72.89492
441.02        73.72482
441.46        75.18372
441.91        76.16745
442.35        76.32162
442.80        75.40251
443.24        73.92902
443.69        74.43551
444.13        76.49796
444.58        76.47823
445.02        74.53803
445.47        74.15473
445.91        75.23064
446.36        75.51523
446.80        74.94756
447.24        74.69162
447.69        74.82785
448.13        75.01302
448.58        75.26243
449.02        75.59157
449.47        75.92887
449.91        76.24738
450.36        76.46952
450.80        76.40156
451.25        76.11246
451.69        75.86282
452.13        75.70797
452.58        75.51767
453.02        75.31958
453.47         75.2533
453.91        75.30801
454.36        75.46417
454.80        75.65276
455.24        75.59671
455.69        75.26743
456.13        74.96516
456.58         74.8757
457.02        74.12645
457.46        74.26963
457.91        74.47755
458.35        74.99252
458.79         75.2439
459.24        75.19099
459.68         75.0285
460.13        74.81036
460.57        74.51221
461.01        74.21887
461.46        73.85423
461.90        73.38012
462.34        73.50503
462.79        72.96155
463.23        72.98745
463.68        73.18055
464.12        73.56966
464.56        73.98869
465.01        74.15137
465.45        73.94207
465.89        73.73935
466.34        73.44657
466.78        72.37474
467.22        71.17107
467.67        70.22765
468.11        72.13174
468.55        72.75559
468.99        72.57201
469.44        72.11857
469.88        71.62971
470.32        71.61486
470.77        71.96957
471.21         71.9257
471.65        71.44368
472.10         71.1624
472.54         71.1532
472.98        71.18744
473.42         71.2693
473.87        71.59045
474.31        71.93763
474.75        71.82005
475.20        71.42265
475.64        70.87688
476.08        71.44115
476.52        71.40903
476.97        71.11752
477.41        71.16298
477.85        71.54482
478.29        71.15063
478.74        71.25922
479.18        71.20958
479.62        70.02525
480.06        70.56369
480.50        70.89129
480.95         71.4368
481.39        71.68027
481.83        70.77156
482.27        70.92875
482.72         70.5825
483.16        69.17799
483.60        69.26281
484.04        70.83878
484.48        71.12798
484.93        70.63731
485.37        72.63033
485.81        73.71253
486.25        71.96913
486.69        99.68363
487.14        80.92935
487.58        49.45533
488.02        59.99686
488.46        68.55161
488.90        67.67899
489.34        69.40995
489.79        68.57807
490.23        70.15397
490.67        70.94059
491.11        70.11348
491.55        70.12234
491.99        70.50716
492.43        70.28106
492.88        69.55715
493.32        69.52795
493.76        69.68967
494.20        69.89936
494.64        69.90352
495.08        69.99732
495.52        70.21542
495.96        70.07006
496.41        69.61576
496.85        70.16046
497.29        71.32858
497.73        70.17513
498.17        67.74674
498.61        67.86727
499.05        70.51916
499.49        70.97595
499.93        70.74663
500.37        70.33004
500.82        69.70177
501.26        69.75296
501.70        70.33328
502.14         70.6245
502.58        70.49262
503.02        70.37067
503.46        70.24944
503.90        69.83427
504.34        69.28712
504.78        69.02531
505.22        69.11227
505.66        69.41573
506.10        69.77782
506.54        69.96889
506.98        69.89536
507.42        69.57492
507.86        69.14818
508.30        68.95451
508.74        69.04723
509.18        69.29292
509.62        69.57558
510.06        69.73751
510.50        69.72783
510.94        69.60708
511.38        69.44458
511.82        69.34087
512.26        69.32858
512.70         69.3703
513.14        69.44206
513.58        69.51159
514.02        69.55901
514.46        69.59352
514.90        69.61499
515.34         69.6037
515.78        69.54899
516.22        69.51804
516.66        69.51432
517.10        69.37166
517.54        69.09524
517.98        69.32216
518.42        69.17944
518.86        69.31989
519.30        69.47081
519.74        69.69054
520.18        69.92046
520.62        70.05432
521.06         70.0779
521.50        70.02107
521.93        69.90969
522.37        69.78347
522.81        69.67276
523.25        69.57604
523.69        69.52245
524.13        69.55459
524.57        69.67227
525.01        69.85616
525.45        70.06268
525.89        70.21809
526.32        70.28886
526.76        70.29219
527.20        70.22915
527.64        70.12399
528.08        70.01138
528.52        69.83443
528.96         69.6025
529.40        69.52682
529.83        69.65464
530.27        69.21686
530.71        69.56956
531.15        69.59418
531.59        69.68955
532.03        69.81261
532.46        69.98148
532.90        70.19419
533.34        70.42129
533.78        70.65054
534.22        70.81879
534.66        70.84437
535.09        70.70651
535.53        70.46066
535.97        70.16209
536.41        69.91896
536.85        69.77172
537.28         69.7039
537.72        69.68487
538.16        69.67434
538.60        69.65748
539.04        69.59119
539.47        69.50003
539.91        69.60493
540.35        69.83167
540.79        69.87384
541.22        69.72562
541.66        69.66452
542.10        69.68961
542.54        69.62486
542.97         69.5182
543.41        69.55676
543.85        69.73934
544.29        70.02734
544.72        70.27412
545.16        70.27951
545.60        70.00716
546.04        69.53246
546.47        69.05403
546.91        68.91598
547.35        69.19219
547.79        69.73798
548.22        70.28696
548.66        70.62473
549.10        70.53888
549.53        69.64093
549.97        68.37133
550.41        67.81645
550.84         68.1172
551.28        68.79464
551.72        69.58015
552.15        70.06657
552.59        70.09148
553.03         70.1921
553.46         69.7381
553.90        69.54805
554.34        69.46861
554.77        69.37196
555.21        69.23816
555.65        69.27569
556.08        69.51899
556.52         69.0877
556.96        69.56092
557.39        69.50458
557.83        69.41963
558.27        69.42216
558.70        69.40276
559.14        69.53552
559.57         69.7513
560.01        70.02018
560.45        70.24876
560.88        70.41518
561.32          70.468
561.75        70.12473
562.19        69.58337
562.63         69.3031
563.06        69.32583
563.50          69.444
563.93        69.56873
564.37        69.68638
564.80        69.73497
565.24        69.73602
565.68        69.68779
566.11        69.61946
566.55        69.58949
566.98        69.53584
567.42        69.50959
567.85        69.66882
568.29        70.02544
568.72        70.18368
569.16        70.30529
569.60        70.83524
570.03         71.4121
570.47        71.45491
570.90        71.28121
571.34        69.48927
571.77        70.65264
572.21         70.6852
572.64        70.09457
573.08        69.31293
573.51        65.78114
573.95        68.48389
574.38        73.23293
574.82        71.52493
575.25        70.78886
575.69        68.65252
576.12        67.45963
576.56        66.28794
576.99        68.00607
577.42        71.07245
577.86         71.5225
578.29        70.96725
578.73        75.20873
579.16        69.23241
579.60        62.80525
580.03        65.44045
580.47         69.8641
580.90        71.63452
581.33        70.43541
581.77        69.48548
582.20        76.90019
582.64        76.50259
583.07        65.72471
583.51        64.12335
583.94        62.45946
584.37        64.89203
584.81        68.08009
585.24        71.98562
585.68        74.11532
586.11        72.74078
586.54        68.12524
586.98        65.44004
587.41        66.13439
587.85         69.5987
588.28        72.37138
588.71        68.89662
589.15        66.39538
589.58        67.70657
590.01        67.74994
590.45        68.88803
590.88        69.52753
591.31        68.87726
591.75        68.45677
592.18        68.35496
592.61        69.61489
593.05        70.38487
593.48        73.51834
593.91        74.79324
594.35        68.61743
594.78        67.09521
595.21        66.35932
595.65        69.31018
596.08         72.2283
596.51        69.39808
596.94        67.08109
597.38        67.57838
597.81        70.31134
598.24        72.20883
598.68        70.92745
599.11         69.3729
599.54        72.70243
599.97        74.08519
600.41        68.93849
600.84        69.03325
601.27        70.45706
601.70        69.47225
602.14        69.43605
602.57        68.28882
603.00        68.58423
603.43        70.39942
603.87        72.09055
604.30        71.64187
604.73        69.31794
605.16        67.79932
605.60        68.86613
606.03        70.03894
606.46        70.95867
606.89        71.12837
607.32        68.61031
607.76        68.32695
608.19        70.82015
608.62        69.86469
609.05        68.52415
609.48        69.09322
609.92        69.25861
610.35        68.85873
610.78        71.01743
611.21         71.5283
611.64        68.43998
612.07        69.06347
612.50        69.29897
612.94        69.64088
613.37        69.07903
613.80        69.05001
614.23        69.60149
614.66        69.52557
615.09        69.83196
615.52         69.9614
615.96        69.97886
616.39        70.14084
616.82        69.27557
617.25        68.55838
617.68        69.35229
618.11        69.74962
618.54        69.94922
618.97        69.46564
619.40        68.68147
619.84        68.58398
620.27         69.6962
620.70        70.40838
621.13         70.6552
621.56        69.85693
621.99        68.42007
622.42         69.2743
622.85        71.30194
623.28        71.18113
623.71        70.15715
624.14        70.28977
624.57        70.30086
625.00        69.73179
625.43        70.16679
625.86        69.48998
626.29        69.66884
626.72        69.90776
627.15        69.75139
627.58        69.87959
628.01        70.00481
628.44        70.11517
628.87        70.20525
629.30        70.34284
629.73        70.58643
630.16        70.58787
630.59        70.36288
631.02        70.04755
631.45         69.7334
631.88        69.46855
632.31         69.2783
632.74        69.35355
633.17          69.296
633.60        69.32337
634.03        69.30642
634.46        69.28102
634.89        69.25891
635.32        69.26331
635.75        69.30466
636.18        69.36205
636.61         69.4332
637.04        69.52392
637.47        69.62623
637.89        69.73881
638.32        69.82361
638.75        69.86718
639.18        69.86069
639.61        69.81501
640.04        69.72186
640.47        69.56889
640.90        69.37185
641.33        69.14204
641.76        68.91413
642.18        68.84186
642.61         68.9448
643.04        69.02589
643.47        68.99819
643.90        69.61738
644.33        69.41908
644.76         69.5782
645.18        69.65907
645.61        69.67413
646.04        69.60844
646.47        69.44521
646.90         69.2812
647.33        69.22495
647.75        69.32558
648.18        69.60922
648.61        69.86664
649.04        69.79302
649.47        69.35844
649.89        68.46136
650.32        67.56622
650.75        67.69258
651.18        68.73532
651.61        69.62123
652.03        69.92232
652.46        69.79726
652.89        69.63615
653.32        68.87434
653.74        67.95807
654.17        69.72624
654.60        70.25337
655.03        68.03026
655.46        69.13414
655.88        73.08071
656.31        78.63341
656.74        184.5295
657.16        120.6822
657.59         42.1139
658.02        30.71027
658.45        52.39454
658.87        66.97068
659.30        69.63527
659.73        68.87409
660.15        66.41584
660.58        69.02371
661.01        70.73577
661.44        68.33259
661.86        67.56396
662.29        67.63769
662.72           68.55
663.14        69.98161
663.57          69.895
664.00        68.58566
664.42        68.31431
664.85        69.15907
665.27        69.64883
665.70        69.56444
666.13        69.39668
666.55        69.12804
666.98        68.60494
667.41         68.0247
667.83        67.77396
668.26        67.93418
668.69         68.3648
669.11        68.81943
669.54        69.23685
669.96        68.88895
670.39        68.40798
670.82        67.84708
671.24        67.64794
671.67        67.91594
672.09        68.44943
672.52        68.94705
672.94        69.46928
673.37        68.81202
673.80         68.5733
674.22        68.49954
674.65         68.4155
675.07        68.32868
675.50        68.23708
675.92        68.17876
676.35        68.24569
676.77        68.43868
677.20        68.65614
677.62        68.85529
678.05        68.96973
678.47        68.97069
678.90        68.89242
679.32         68.7869
679.75        68.61033
680.17        68.65303
680.60        68.67804
681.02        68.71152
681.45        68.61689
681.87        68.38454
682.30        68.12868
682.72        67.94077
683.15        67.79493
683.57        67.82287
684.00        68.30099
684.42        69.17633
684.85        69.56542
685.27        69.40975
685.70        69.06336
686.12        68.69528
686.54        68.50403
686.97        68.54942
687.39        68.78529
687.82        69.06846
688.24         69.2157
688.66        69.15247
689.09        68.94263
689.51        68.71473
689.94        68.64494
690.36        68.78451
690.78        69.06586
691.21        69.36582
691.63        69.49741
692.06        69.41869
692.48        69.20071
692.90        68.96257
693.33        68.87275
693.75        68.97517
694.17        69.22107
694.60        69.51733
695.02        69.69745
695.44        69.68137
695.87        69.67711
696.29        69.73649
696.71        69.45683
697.14        69.05992
697.56        69.58885
697.98        70.70471
698.41        70.81516
698.83        69.84374
699.25        69.29981
699.68          69.272
700.10        69.16061
700.52        68.99998
700.94        69.15185
701.37        69.54173
701.79        69.92209
702.21        70.19566
702.64        70.43481
703.06        70.56923
703.48        70.47903
703.90        70.17522
704.33        69.69617
704.75        69.17567
705.17        68.92033
705.59        69.00781
706.01        69.24519
706.44        69.49758
706.86        70.13274
707.28        70.14939
707.70        70.33811
708.12        70.41879
708.55        70.34994
708.97        70.14794
709.39        69.92805
709.81        69.77324
710.23        69.71288
710.66        69.77599
711.08        70.02908
711.50        70.31851
711.92        70.37548
712.34        70.15296
712.76        69.71857
713.19        69.27081
713.61         69.1629
714.03        69.45494
714.45        70.03633
714.87        70.65041
715.29        70.89095
715.71        70.66956
716.13        70.12012
716.56        69.48294
716.98        69.17565
717.40        69.30203
717.82        69.73225
718.24         70.2807
718.66        70.63393
719.08        70.69422
719.50        70.56222
719.92        70.33514
720.34        70.18348
720.76        70.16403
721.19        70.09929
721.61        70.18902
722.03        70.27197
722.45        70.39248
722.87        70.55731
723.29        70.72955
723.71        70.83312
724.13        70.84745
724.55        70.78478
724.97        70.68879
725.39        70.63926
725.81        70.65717
726.23        70.72342
726.65        70.79947
727.07        70.82037
727.49        70.77769
727.91        70.70358
728.33        70.63816
728.75        70.64731
729.17        70.74198
729.59        70.88302
730.01         71.0556
730.43        71.22936
730.85        71.39242
731.27        71.58582
731.69        71.74057
732.10        71.72366
732.52        71.52269
732.94        71.21497
733.36        70.98367
733.78        70.99087
734.20        71.26996
734.62        72.06516
735.04        73.08078
735.46        73.12007
735.88        72.40427
736.30        72.55748
736.72        73.55824
737.13        73.96835
737.55        73.52766
737.97        73.23087
738.39        73.18831
738.81        72.48524
739.23        71.54352
739.65        72.46964
740.06        74.71513
740.48        74.98759
740.90        73.36148
741.32        72.55517
741.74        72.85435
742.16        72.97863
742.57        73.00166
742.99         73.6748
743.41        74.74945
743.83        75.37814
744.25        75.40779
744.67        75.05359
745.08        74.59061
745.50        74.45941
745.92        74.78813
746.34        75.42701
746.75        76.12039
747.17        76.44574
747.59        76.32648
748.01        75.90305
748.42        75.47964
748.84        75.52387
749.26        76.14223
749.68        77.14666
750.09        78.24126
750.51        78.94036
750.93        79.11695
751.35         78.8665
751.76        78.36313
752.18        78.07172
752.60        78.00656
753.01        77.71736
753.43        77.31309
753.85        77.36678
754.27        77.92952
754.68        78.76579
755.10        79.63375
755.52        80.28603
755.93        80.60229
756.35        80.58091
756.77        80.40646
757.18        80.33432
757.60        80.44841
758.02         80.8851
758.43        81.28382
758.85        81.06046
759.26        79.48602
759.68        79.14257
760.10        80.57907
760.51        80.96102
760.93        80.32402
761.34        79.58674
761.76        79.03199
762.18        78.68016
762.59        78.64214
763.01         78.7982
763.42         79.1597
763.84        79.60616
764.26        80.11279
764.67        80.43833
765.09        80.49106
765.50        80.61856
765.92         80.6076
766.33        79.23578
766.75        77.11323
767.16        76.41521
767.58         77.3496
768.00        78.80691
768.41        80.41998
768.83        81.92322
769.24        82.71174
769.66        82.21046
770.07        80.88512
770.49        79.35595
770.90        78.12149
771.32        78.96822
771.73        81.22249
772.15        80.70981
772.56          77.899
772.97        77.32313
773.39        78.90546
773.80        79.44902
774.22        78.73097
774.63          78.637
775.05        79.11174
775.46        79.30989
775.88        79.13498
776.29        78.80934
776.70         78.4575
777.12         78.3301
777.53        78.49709
777.95        78.82348
778.36        79.15126
778.77        79.20817
779.19        78.97279
779.60          78.531
780.02        78.09255
780.43        78.07108
780.84        78.59175
781.26        79.07622
781.67        79.46123
782.09        80.57249
782.50        81.85939
782.91        80.91036
783.33        78.42856
783.74        77.59429
784.15         78.5784
784.57        79.30849
784.98        79.46309
785.39        79.57284
785.81        79.54322
786.22        79.07241
786.63        78.48384
787.04          78.409
787.46        78.91936
787.87        79.81693
788.28        80.77212
788.70         81.2255
789.11        81.04055
789.52         80.4129
789.93        79.65498
790.35        79.19452
790.76        79.15334
791.17        79.46315
791.58         79.9219
792.00        80.11804
792.41        79.93693
792.82        79.57863
793.23          79.328
793.65        79.08984
794.06         79.1278
794.47        80.61546
794.88        82.65437
795.29        82.35822
795.71        79.92722
796.12        77.51254
796.53        75.90578
796.94        75.43169
797.35        76.18809
797.76        77.54657
798.18        78.85759
798.59        79.77409
799.00         79.9332
799.41        79.07882
799.82         77.7121
800.23        76.96571
800.64        77.06751
801.06         77.5823
801.47        78.32313
801.88        78.87762
802.29        79.08505
802.70        79.12925
803.11        79.04878
803.52         78.8663
803.93          78.632
804.34        78.29077
804.75        77.99556
805.17        78.04789
805.58        78.52137
805.99        79.20514
806.40        79.81578
806.81        80.18305
807.22        80.03931
807.63        78.81703
808.04        77.05397
808.45        76.20467
808.86        76.46738
809.27        77.21384
809.68        78.08909
810.09        78.64987
810.50        78.68597
810.91        78.35113
811.32        77.85045
811.73        77.51451
812.14        77.43855
812.55        77.46253
812.96        77.56932
813.37        77.73819
813.78        77.93481
814.19        78.24066
814.60        78.44099
815.01        78.18555
815.42        77.44508
815.83        76.27356
816.24        75.15157
816.65        74.92423
817.05         75.8139
817.46        77.54139
817.87        79.40057
818.28        80.13643
818.69        79.42403
819.10         77.5914
819.51        75.46418
819.92        74.44456
820.33        74.90833
820.74        76.43616
821.14        78.29117
821.55        79.16108
821.96        78.73634
822.37        77.46988
822.78        75.96561
823.19        75.10938
823.60        75.14713
824.00        75.82816
824.41        76.77148
824.82        77.45544
825.23         77.6399
825.64        77.52248
826.04        77.24217
826.45        76.98151
826.86        76.80669
827.27        76.61417
827.68        76.41689
828.08        76.29808
828.49        76.21244
828.90        76.23071
829.31        76.26997
829.72        76.15225
830.12        75.87769
830.53        75.48345
830.94        75.17536
831.35        75.23119
831.75        75.73326
832.16        76.52828
832.57        77.44199
832.97        78.09313
833.38        78.27689
833.79        78.10065
834.20        77.73946
834.60        77.46241
835.01        77.37909
835.42        77.40508
835.82        77.44585
836.23        77.26934
836.64        76.87024
837.04        76.35352
837.45        75.88087
837.86        75.70056
838.26         75.8733
838.67        76.28267
839.08        76.78411
839.48        77.11091
839.89        77.14402
840.29        76.97809
840.70        76.69574
841.11        76.41028
841.51        76.17434
841.92        75.92422
842.33         75.7177
842.73        75.66358
843.14        75.73753
843.54        75.96293
843.95         76.1666
844.35        76.11964
844.76        75.76852
845.17        75.20478
845.57        74.62118
845.98        74.32114
846.38        74.37395
846.79        74.66623
847.19        75.07946
847.60        75.31081
848.00         75.3012
848.41        75.11113
848.81        74.86371
849.22        74.66437
849.62         74.6096
850.03        74.68217
850.43        74.88205
850.84        75.12952
851.24        75.43292
851.65        75.62106
852.05         75.9255
852.46        76.54462
852.86        77.47132
853.27        78.64778
853.67        79.40582
854.07         78.8562
854.48        77.01208
854.88          74.212
855.29        71.47984
855.69        70.30016
856.10        70.98149
856.50        73.31198
856.90        76.44509
857.31        78.39577
857.71        78.47868
858.12        77.17681
858.52        75.37802
858.92         74.2637
859.33        74.10651
859.73        74.58879
860.13        75.42915
860.54        76.07199
860.94         76.3605
861.34        76.44304
861.75        76.49314
862.15        76.85098
862.55        77.53896
862.96        78.40512
863.36        79.20075
863.76        79.48593
864.17        79.17374
864.57        78.49861
864.97        77.76965
865.38        77.44249
865.78        77.67741
866.18        78.24052
866.58         79.0118
866.99        79.77358
867.39        80.46507
867.79        81.18864
868.19        81.66355
868.60        81.36559
869.00        80.24735
869.40        78.45754
869.80        76.82252
870.21        76.64489
870.61        78.27743
871.01        81.34428
871.41         84.8386
871.81        87.00504
872.22         87.3405
872.62        86.33439
873.02        84.85229
873.42        84.42276
873.82        85.24673
874.22        86.57329
874.63        87.98589
875.03        88.63456
875.43        88.09114
875.83        87.47585
876.23        85.78445
876.63        85.00691
877.03        85.12657
877.44        86.28693
877.84        103.4098
878.24        92.51862
878.64        92.67047
879.04        92.43498
879.44        88.65853
879.84        86.79713
880.24        90.43974
880.64        92.41684
881.04        93.38402
881.44        93.65596
881.84        92.66711
882.24        90.76311
882.65        88.99419
883.05        88.35506
883.45        89.00882
883.85        90.91919
884.25        93.37005
884.65        94.81757
885.05        94.77278
885.45        93.73351
885.85        92.44384
886.25        91.93897
886.65        92.44451
887.05         93.5927
887.45        94.96847
887.85        95.85048
888.25        95.96848
888.65        95.59546
889.04        94.93792
889.44        94.33985
889.84        93.92406
890.24        93.56973
890.64        93.31949
891.04        93.26246
891.44        93.38169
891.84        93.68283
892.24        94.02053
892.64        94.08864
893.04        93.86213
893.44        93.50645
893.83        93.17213
894.23        93.10715
894.63        93.34372
895.03        93.70787
895.43        94.30936
895.83        95.32748
896.23        96.67886
896.63        98.30131
897.02        99.51038
897.42        99.20184
897.82        97.28818
898.22        94.23286
898.62        91.12576
899.01        89.55898
899.41        89.86287
899.81        91.46358
900.21        93.62135
900.61        95.11776
901.00        95.54684
901.40        95.31507
901.80        94.63825
902.20        93.84264
902.59        93.10793
902.99        92.28774
903.39        91.58115
903.79        91.37871
904.18        91.74641
904.58        92.63697
904.98         93.7381
905.38        94.52334
905.77        94.82337
906.17        94.75322
906.57        94.46725
906.96        94.26933
907.36         94.1767
907.76        94.09995
908.15        93.93871
908.55        93.43449
908.95        92.61076
909.34        91.57318
909.74        90.57677
910.14        89.80074
910.53        89.34677
910.93        89.22336
911.33        89.43105
911.72        89.98007
912.12        90.70948
912.52        91.46988
912.91        92.22481
913.31        92.98191
913.70        93.79398
914.10        94.68913
914.49         95.3134
914.89        94.80242
915.29        93.06976
915.68        90.51775
916.08        88.32197
916.47        87.56076
916.87        88.29896
917.26        90.19942
917.66         92.3671
918.05        93.32246
918.45        92.67068
918.84        90.92093
919.24        88.97618
919.64        88.16441
920.03        88.83733
920.42        90.55336
920.82        92.68639
921.21        94.28328
921.61        94.81418
922.00        94.62661
922.40         93.9161
922.79         92.9402
923.19        91.89951
923.58        90.61926
923.98        89.15799
924.37        88.16055
924.77        88.06027
925.16        86.33617
925.55        87.63294
925.95        88.51778
926.34        90.27705
926.74        92.44776
927.13        94.52026
927.52        95.38499
927.92         94.9107
928.31         93.4699
928.70        91.52165
929.10        89.88169
929.49        88.79285
929.89        88.05657
930.28        87.89974
930.67        88.69273
931.07        90.26707
931.46        92.57419
931.85        94.69207
932.24        95.22705
932.64         93.9407
933.03        91.07349
933.42        87.45955
933.82        85.00249
934.21        84.31221
934.60        84.91173
934.99        85.96767
935.39        86.60817
935.78        86.68625
936.17        86.09095
936.56         84.6956
936.96        85.66309
937.35        84.67106
937.74        85.08413
938.13        85.51536
938.53        86.23351
938.92        87.27567
939.31        88.73546
939.70        90.24782
940.09        90.68427
940.49        89.73551
940.88         87.8943
941.27        85.99248
941.66        85.00581
942.05        85.05839
942.44         85.8246
942.84        86.99105
943.23        88.09283
943.62        88.81208
944.01        89.25231
944.40        89.36269
944.79        89.06381
945.18         88.3376
945.57         87.1074
945.97        85.48529
946.36        83.95792
946.75        82.96181
947.14        82.54099
947.53        82.55033
947.92        82.73823
948.31         83.0348
948.70        83.51669
949.09         84.2062
949.48        85.05635
949.87        85.94789
950.26        86.74764
950.65        87.38268
951.04        87.84686
951.43        88.13316
951.82         88.2156
952.21        88.01173
952.60        87.44482
952.99         86.5362
953.38        85.33382
953.77        84.08674
954.16        83.11067
954.55          82.488
954.94          82.259
955.33        82.07971
955.72        81.34135
956.11        79.96007
956.50        78.08224
956.89        76.49734
957.28        76.62914
957.66        78.84171
958.05        82.40723
958.44        86.11221
958.83        88.17171
959.22        88.15146
959.61        86.50613
960.00        84.05669
960.39        82.17558
960.78        81.33301
961.16        81.23157
961.55        81.37162
961.94        80.90414
962.33        79.66928
962.72        78.08543
963.11        76.77249
963.49        76.49488
963.88        77.36322
964.27        79.18452
964.66        81.34001
965.04        82.50639
965.43        82.11146
965.82        80.65063
966.21        79.00971
966.60        78.36129
966.98         78.9202
967.37        80.24329
967.76        81.83994
968.15        82.74592
968.53        82.60165
968.92        81.74223
969.31        80.48313
969.69        79.16899
970.08        77.94605
970.47        76.72073
970.86        75.55183
971.24        74.59126
971.63        73.92387
972.02        73.60545
972.40        73.68077
972.79        74.13083
973.17        74.98349
973.56        76.06062
973.95        77.21648
974.33        78.12909
974.72        78.52246
975.11        78.38881
975.49        77.89312
975.88        77.41074
976.26        76.99328
976.65        76.56585
977.04        75.88957
977.42        74.51636
977.81        72.54641
978.19        70.36139
978.58        68.93362
978.96        69.03493
979.35        70.72285
979.74        73.85225
980.12         78.0012
980.51         81.0378
980.89        82.26691
981.28        82.03265
981.66        80.94272
982.05        79.87054
982.43        79.07686
982.82        78.29805
983.20        77.89163
983.59        78.46484
983.97        80.17635
984.35        83.05945
984.74         86.1704
985.12        87.54961
985.51        86.07684
985.89        82.12019
986.28        77.11522
986.66         73.4433
987.04         72.0828
987.43        72.43522
987.81        73.37154
988.20        73.47073
988.58        72.28434
988.96        69.69773
989.35        66.31009
989.73        65.33566
990.12        68.68352
990.50        74.77433
990.88        79.69286
991.27        80.57344
991.65        77.94492
992.03        72.77611
992.42        67.21033
992.80        65.04419
993.18        67.30215
993.56        71.76987
993.95        76.56968
994.33        80.18192
994.71        82.14572
995.10        83.29973
995.48        83.40474
995.86        81.80453
996.24        78.44084
996.63        73.03958
997.01         66.8315
997.39        63.73195
997.77        65.52515
998.15        71.42743
998.54        78.22684
998.92        81.41563
999.30        79.62659
999.68        74.10168
1000.06        66.35754
1000.45        60.27708
1000.83        57.62684
1001.21         57.1104
1001.59        58.21901
1001.97        60.57055
1002.35         63.8876
1002.73        68.96159
1003.12        74.19328
1003.50        74.40166
1003.88        67.77216
1004.26        57.22493
1004.64        47.42086
1005.02        41.99118
1005.40        40.98367
1005.78        43.69498
1006.16        51.60018
1006.54        63.20016
1006.92        72.06546
1007.30        76.63656
1007.69        77.93113
1008.07        77.63194
1008.45        76.08693
1008.83        71.55576
1009.21        58.79625
1009.59        23.48369
1009.97       -56.05428
1010.35       -141.6683
1010.73       -99.51241
1011.11       -30.10019
1011.49        13.50544
1011.86        42.59896
1012.24        58.07124
1012.62        63.13688
1013.00        61.49255
1013.38        53.95561
1013.76         42.8725
1014.14        38.83307
1014.52        51.55563
1014.90        84.83134
1015.28        129.5144
1015.66        154.1695
1016.04        139.9045
1016.41        93.03172
1016.79        42.50562
1017.17        19.50994
1017.55        20.71833
1017.93        30.36862
1018.31        40.35403
1018.69        46.60289
1019.06        49.53419
1019.44        50.43206
1019.82        51.01005
1020.20        55.66019
1020.58        70.54751
1020.95        105.3649
1021.33        176.7861
1021.71       -552.4902
1022.09        61.28165
1022.46        103.9182
1022.84        122.1425
1023.22        135.0051
1023.60        154.8409
1023.97        323.4717
1024.35        42.88751
1024.73        76.85885
