SpectraSmart Spectrum 2.9.0.0
--------- Device Information -----------
Spectrum Name :  反射率_0
Saving Time :  2024/04/26 01:11:45
Spectro-Module Model Name : SE2030-DUVN
Spectro-Module Serial Number : OS361AC55029948
Wavelength Start : 200
Wavelength End : 1025
Wavelength Unit : Wavelength(nm)
Spectrum Unit : Reflectance(%)
-----------Spectrum Setting ------------
Integration Time : 20ms
Average : 10
Boxcar : 0
Background removal :  enabled
linearity correction :  enabled
SC :  disabled
Intensity correction :  disabled
DWT denoise :  enabled
savitzky-golay :  disabled
FFT :  disabled
Running average :  disabled
Kalman :  disabled
High pass :  disabled
---------------BEGIN--------------------
Wavelength(nm)             Reflectance(%)
200.29               0
200.75        97.24535
201.21        90.03611
201.67        81.48823
202.13        77.11001
202.58        77.61424
203.04        81.66443
203.50        86.95229
203.96        89.52014
204.42        88.52104
204.88        85.68386
205.34        83.04378
205.80        82.65589
206.26         85.3716
206.72        92.78101
207.18        107.9025
207.64        121.5467
208.10        113.2442
208.55        95.34178
209.01        84.01455
209.47        80.25272
209.93        80.86814
210.39        84.27243
210.85        88.12015
211.31        87.67422
211.77        81.69056
212.23        72.07783
212.69        62.87294
213.14        60.25568
213.60        65.05675
214.06        75.51559
214.52        87.31026
214.98        93.77016
215.44        93.23203
215.90        87.86706
216.36        80.77024
216.81        76.20702
217.27        75.43716
217.73        76.94981
218.19        78.48663
218.65         77.1038
219.11        71.71852
219.57        61.71614
220.02        48.83795
220.48        42.15357
220.94        46.40115
221.40        58.78141
221.86        69.89274
222.32        70.21669
222.77        61.19722
223.23        48.49427
223.69          37.728
224.15           34.56
224.61        38.35504
225.06         46.1861
225.52        54.24408
225.98        57.70705
226.44        55.68959
226.90        50.28547
227.36        44.01936
227.81        40.24184
228.27        40.00981
228.73        41.93903
229.19        44.82271
229.65        46.93344
230.10        47.76577
230.56        47.97999
231.02        48.02475
231.48        48.36417
231.93        49.01959
232.39        49.72459
232.85        50.26025
233.31        50.38778
233.77        50.04544
234.22         49.3944
234.68        48.48611
235.14        47.39017
235.60        46.29993
236.05        45.30943
236.51        44.71974
236.97        44.90194
237.43        45.98566
237.88        48.12109
238.34        51.12119
238.80        54.20845
239.26        56.68591
239.71        58.59068
240.17        59.77712
240.63        60.87012
241.08         62.2436
241.54        63.58037
242.00        65.15622
242.46         67.6974
242.91         72.4746
243.37        82.66886
243.83        111.3469
244.28        194.9615
244.74         272.976
245.20        208.3907
245.66        158.8034
246.11        143.4226
246.57        144.8712
247.03        164.4648
247.48         222.563
247.94        172.3052
248.40        104.4055
248.85        86.19212
249.31        82.07473
249.77        83.31367
250.22        88.01256
250.68        96.82639
251.14        109.4295
251.59        117.3206
252.05        112.3091
252.51        98.47416
252.96         83.8835
253.42        76.05791
253.88        74.45058
254.33        76.33401
254.79        80.88219
255.25         86.2858
255.70          91.094
256.16        95.63399
256.62        98.35854
257.07        97.63228
257.53        94.41475
257.99        89.24509
258.44        83.77639
258.90        80.99347
259.35        80.00831
259.81        79.85609
260.27        78.86501
260.72        75.39925
261.18        70.24721
261.63        64.15601
262.09         58.5331
262.55        54.29301
263.00          51.471
263.46         49.7331
263.91        48.43698
264.37        47.19977
264.83        45.76519
265.28        44.12797
265.74        42.57704
266.19        41.27827
266.65        40.41707
267.11        39.84946
267.56        39.27282
268.02        38.31015
268.47        36.85947
268.93        35.04153
269.38        33.15451
269.84         31.9478
270.30        31.60241
270.75        31.92261
271.21        32.41503
271.66         32.3307
272.12        31.49818
272.57        30.15163
273.03        28.75578
273.48        27.93158
273.94        27.83021
274.39        28.18094
274.85        28.61267
275.31        28.57903
275.76        27.95902
276.22        26.98299
276.67         25.9203
277.13        25.24411
277.58        24.99859
278.04        25.04559
278.49        25.11961
278.95        24.91419
279.40        24.35162
279.86        23.61162
280.31        22.83955
280.77        22.35485
281.22         22.1715
281.68        22.18546
282.13        22.26243
282.59         22.2517
283.04        22.10692
283.50        21.92759
283.95        21.69871
284.41        21.40987
284.86        21.08126
285.32        20.72679
285.77        20.47899
286.22        20.60002
286.68        21.08096
287.13         21.7958
287.59        22.48462
288.04        22.75188
288.50        22.54818
288.95        21.99248
289.41          21.319
289.86        20.77901
290.32        20.50894
290.77        20.42272
291.22         20.5083
291.68        20.70621
292.13        20.99985
292.59        21.42719
293.04        21.98675
293.50        22.66255
293.95        23.42999
294.40        24.25274
294.86        25.10949
295.31        25.98794
295.77        26.89444
296.22        27.84415
296.68        28.82326
297.13        29.77689
297.58        30.71486
298.04        31.66133
298.49        32.71082
298.95        34.05811
299.40        35.71664
299.85        37.62014
300.31        39.58365
300.76        41.31086
301.21        42.70644
301.67        43.88348
302.12        44.94034
302.58        46.12094
303.03        47.46223
303.48        48.91586
303.94        50.48907
304.39        52.13399
304.84        53.84006
305.30        55.62589
305.75        57.37825
306.20        58.94419
306.66        60.31236
307.11        61.46432
307.57        62.56491
308.02        63.75748
308.47        65.12698
308.93        66.64172
309.38        68.16454
309.83        69.52523
310.29        70.67443
310.74        71.63216
311.19        72.53622
311.65         73.6002
312.10        74.85175
312.55        76.23222
313.00         77.5327
313.46         78.4181
313.91          78.803
314.36        78.81448
314.82        78.74123
315.27        78.97755
315.72        79.65502
316.18        80.66319
316.63        81.79639
317.08        82.67008
317.53         83.1682
317.99        83.38689
318.44        83.54498
318.89        84.00012
319.35        84.80753
319.80         85.8693
320.25        86.88149
320.70        87.35141
321.16        87.17521
321.61        86.52658
322.06        85.75375
322.51        85.39696
322.97        85.57427
323.42        86.16763
323.87        86.91854
324.32        87.37877
324.78        87.40636
325.23        87.18056
325.68        86.87457
326.13        86.79256
326.59        87.00204
327.04        87.42101
327.49        87.93778
327.94        88.40775
328.39        88.77084
328.85        89.05913
329.30        89.32909
329.75        89.51484
330.20        89.63802
330.66        89.69727
331.11        89.83395
331.56        90.20451
332.01        90.85728
332.46        91.73828
332.92        92.72257
333.37        93.75227
333.82        94.67652
334.27         95.5021
334.72        96.14678
335.17        96.49929
335.63        96.56006
336.08        96.41296
336.53        96.20221
336.98        96.20799
337.43        96.51313
337.88        97.04484
338.34        97.73023
338.79        98.52948
339.24        99.34832
339.69        100.2158
340.14        100.9761
340.59        101.3593
341.05        101.3322
341.50        100.9666
341.95        100.5383
342.40        100.4828
342.85        100.8995
343.30        101.6762
343.75         102.589
344.20        103.2326
344.66        103.4874
345.11         103.448
345.56        103.2771
346.01        103.2203
346.46        103.3514
346.91        103.5948
347.36        103.8512
347.81        103.9788
348.26        103.9541
348.72        103.8533
349.17        103.7665
349.62        103.8809
350.07         104.221
350.52        104.7009
350.97        105.1789
351.42        105.4499
351.87        105.4622
352.32        105.2799
352.77        104.9782
353.22        104.6797
353.67        104.4301
354.13        104.2069
354.58        103.9746
355.03        103.7389
355.48         103.488
355.93        103.2281
356.38        102.9387
356.83        102.5774
357.28        102.1372
357.73        101.6358
358.18        101.0858
358.63        100.5088
359.08        99.92616
359.53        99.34502
359.98        98.79395
360.43        98.31414
360.88        97.90123
361.33        97.52482
361.78        97.15527
362.23        96.74686
362.68        96.28164
363.13         95.7789
363.58        95.20596
364.03        94.51043
364.48        93.70051
364.93        92.80048
365.38        91.91331
365.83        91.20695
366.28        90.71006
366.73        90.36085
367.18        90.06046
367.63        89.64359
368.08        89.06891
368.53        88.40931
368.98         87.6876
369.43        86.92975
369.88        86.16079
370.33        85.36402
370.78        84.63339
371.23        84.13305
371.68        83.88887
372.13        83.85884
372.58        83.89156
373.03        83.72111
373.48        83.28716
373.93        82.68018
374.38        82.03489
374.83        81.55814
375.28        81.29745
375.72        81.15877
376.17        81.09631
376.62         81.0166
377.07        80.86494
377.52        80.65173
377.97        80.34216
378.42        79.87969
378.87        79.28297
379.32        78.60841
379.77        77.89912
380.22        77.21034
380.67        76.56134
381.11        75.93089
381.56        75.39799
382.01        75.09273
382.46        75.03133
382.91        75.19376
383.36        75.36835
383.81        75.21543
384.26        74.67957
384.71        73.85369
385.15        73.01286
385.60        72.64256
386.05        72.77399
386.50        73.24039
386.95        73.72075
387.40        73.67599
387.85        73.02357
388.29        71.98503
388.74        70.94073
389.19        70.13639
389.64        69.62555
390.09        69.26698
390.54        69.09019
390.98        69.15336
391.43        69.42386
391.88         69.8677
392.33        70.22812
392.78        70.10773
393.23         69.4982
393.67        68.54546
394.12        67.65077
394.57          67.123
395.02        67.09324
395.47         67.4306
395.91        68.01967
396.36        68.47745
396.81        68.68926
397.26        68.75076
397.71        68.64637
398.15        68.28015
398.60         67.7717
399.05        67.17298
399.50         66.5966
399.95        65.98887
400.39        65.68542
400.84        65.51102
401.29        65.50645
401.74         65.5375
402.18        65.58389
402.63        65.64181
403.08        65.74869
403.53         65.9333
403.97        66.18166
404.42        66.44676
404.87        66.60751
405.32        66.46711
405.76        66.00181
406.21        65.35864
406.66        64.70161
407.11        64.28101
407.55        64.19457
408.00        64.29407
408.45        64.49809
408.90        64.86846
409.34        65.16535
409.79        64.76758
410.24        63.93163
410.68        63.61829
411.13        63.91348
411.58        64.29256
412.03        64.65092
412.47        65.03182
412.92        65.32212
413.37        65.53819
413.81        65.63016
414.26        65.56522
414.71        65.33867
415.15        64.95755
415.60        64.54469
416.05        64.31683
416.49        64.33151
416.94         64.5594
417.39        64.82762
417.83        64.81832
418.28        64.48312
418.73         63.9306
419.17         63.4153
419.62        63.34494
420.07        63.75951
420.51        64.51394
420.96         65.3319
421.41        65.71306
421.85        65.51194
422.30        65.08858
422.74        64.57903
423.19         64.0451
423.64        63.63969
424.08        63.85232
424.53        64.53954
424.98        64.94814
425.42        64.96927
425.87        65.18317
426.31        65.55683
426.76        65.40121
427.21        64.94704
427.65         65.2398
428.10         66.1982
428.54        67.00356
428.99         67.5808
429.44        67.94055
429.88        68.07896
430.33         68.7718
430.77        69.45723
431.22        68.35291
431.66        65.97837
432.11         64.5812
432.56        64.50926
433.00        65.25988
433.45        66.69872
433.89        68.58036
434.34        69.49966
434.78        70.71494
435.23        67.30313
435.67        65.08834
436.12        67.95079
436.57        69.02952
437.01        69.45046
437.46        69.65751
437.90        69.82935
438.35        69.59265
438.79        69.96956
439.24        69.93008
439.68        69.80437
440.13        69.58148
440.57        69.55038
441.02        70.37175
441.46        71.72043
441.91          72.755
442.35        73.09894
442.80        72.26823
443.24        70.77618
443.69        71.23992
444.13        73.26946
444.58         73.2574
445.02        71.43364
445.47        71.10761
445.91        72.21687
446.36        72.60091
446.80        72.19238
447.24        72.10025
447.69        72.36724
448.13        72.60883
448.58        72.82357
449.02        73.05457
449.47        73.28696
449.91        73.51776
450.36        73.73627
450.80        73.91425
451.25        74.01179
451.69         73.9405
452.13        73.72009
452.58        73.39528
453.02        73.07334
453.47        72.95986
453.91        73.07146
454.36        73.35096
454.80        73.69228
455.24        73.78188
455.69        73.56487
456.13        73.34293
456.58        73.23956
457.02        72.56295
457.46         72.2219
457.91        72.42153
458.35        73.13697
458.79        73.39399
459.24        73.17583
459.68        72.85419
460.13        72.47048
460.57        72.28657
461.01        72.48437
461.46        71.57058
461.90        71.21658
462.34         72.2493
462.79        71.64251
463.23        71.55054
463.68         71.9059
464.12        72.24809
464.56        72.67699
465.01        72.61136
465.45        72.05022
465.89        71.86076
466.34        71.93871
466.78        71.00696
467.22        69.54118
467.67        69.42981
468.11        70.56512
468.55        71.20957
468.99        71.06667
469.44        70.63409
469.88        70.13917
470.32        70.19975
470.77        70.71589
471.21        70.79548
471.65        70.38116
472.10        70.13664
472.54        70.13673
472.98        70.16317
473.42        70.21259
473.87          70.489
474.31        70.80923
474.75        70.63911
475.20        70.06991
475.64        69.79023
476.08        69.92004
476.52         69.8299
476.97        69.46631
477.41        70.13461
477.85        70.51304
478.29        70.09576
478.74        70.30541
479.18        70.29249
479.62        69.27871
480.06        69.82339
480.50        70.05753
480.95         70.4482
481.39         70.5202
481.83          69.754
482.27        69.88717
482.72        69.70115
483.16        68.41505
483.60         68.6674
484.04        70.06973
484.48        70.32921
484.93        69.98115
485.37         71.5574
485.81        72.36843
486.25        71.23336
486.69        96.78109
487.14        78.34624
487.58         48.8414
488.02         59.8371
488.46        67.98782
488.90        67.82185
489.34        68.65408
489.79        67.86974
490.23        70.07978
490.67        70.86819
491.11        69.60497
491.55        69.54508
491.99        70.25928
492.43        70.17471
492.88        69.36882
493.32        69.34421
493.76        69.50625
494.20        69.79935
494.64        69.94886
495.08        70.16093
495.52        70.44815
495.96        70.50027
496.41        70.28857
496.85        70.67034
497.29        71.38239
497.73         70.1642
498.17        68.03317
498.61        68.19955
499.05        70.64253
499.49        71.10859
499.93        71.10535
500.37          70.761
500.82        70.04604
501.26        70.16499
501.70        70.81487
502.14        71.06734
502.58        70.78102
503.02         70.5864
503.46        70.48971
503.90        70.11324
504.34        69.60023
504.78        69.35626
505.22        69.42987
505.66        69.72916
506.10        70.14542
506.54        70.32399
506.98        70.16087
507.42        70.13439
507.86        70.15995
508.30        69.44667
508.74        69.96402
509.18        70.05016
509.62        70.21943
510.06        70.30294
510.50        70.28558
510.94          70.197
511.38        70.07077
511.82        70.00526
512.26        70.02078
512.70        70.08365
513.14        70.18023
513.58        70.29204
514.02        70.39921
514.46        70.50256
514.90        70.58014
515.34        70.58195
515.78        70.49384
516.22        70.39188
516.66        70.30999
517.10        70.13638
517.54        69.88825
517.98        70.17031
518.42        70.10546
518.86        70.28512
519.30        70.43328
519.74        70.62161
520.18        70.80735
520.62        70.91093
521.06        70.92718
521.50        70.87463
521.93        70.78026
522.37        70.69061
522.81        70.63164
523.25        70.59433
523.69        70.59966
524.13        70.67815
524.57        70.82576
525.01        71.02785
525.45        71.23302
525.89        71.35786
526.32        71.37069
526.76        71.28969
527.20        71.14649
527.64        71.01478
528.08         70.9362
528.52        70.83573
528.96         70.6748
529.40         70.6025
529.83        70.64956
530.27        70.03888
530.71        70.20812
531.15        70.14847
531.59        70.28354
532.03        70.51862
532.46        70.82484
532.90        71.12843
533.34        71.37446
533.78        71.57809
534.22         71.6885
534.66        71.64157
535.09        71.43007
535.53        71.10349
535.97        70.74351
536.41         70.5031
536.85        70.42628
537.28        70.48201
537.72        70.59843
538.16         70.6645
538.60        70.64868
539.04        70.53139
539.47        70.36446
539.91        70.41448
540.35        70.62022
540.79        70.65475
541.22        70.51694
541.66        70.49614
542.10        70.58477
542.54        70.60141
542.97        70.56246
543.41        70.60456
543.85        70.72163
544.29        70.89712
544.72        71.01919
545.16         70.9466
545.60        70.65993
546.04        70.20633
546.47        69.77876
546.91         69.7274
547.35        70.09353
547.79        70.70846
548.22        71.30542
548.66        71.61086
549.10        71.47152
549.53        70.73042
549.97        69.74288
550.41        69.23951
550.84        69.33063
551.28        69.75644
551.72        70.33982
552.15        70.66007
552.59        70.57568
553.03        70.95786
553.46        70.52116
553.90        70.48755
554.34        70.50303
554.77        70.47553
555.21        70.38984
555.65        70.47498
556.08        70.77207
556.52        70.36349
556.96        70.85886
557.39        70.78654
557.83        70.67133
558.27        70.65136
558.70        70.74549
559.14        70.74437
559.57         70.6758
560.01        70.86681
560.45        71.22432
560.88        71.36266
561.32        71.26099
561.75        71.05216
562.19        70.83965
562.63        70.53758
563.06        70.24632
563.50        70.31201
563.93        70.64751
564.37        70.76947
564.80        70.60389
565.24        70.57791
565.68        70.73531
566.11         70.2879
566.55        70.55686
566.98        70.46207
567.42        70.42906
567.85        70.65921
568.29         71.1317
568.72        71.25756
569.16         71.1909
569.60         71.6323
570.03        72.23472
570.47        72.16696
570.90        71.73779
571.34        70.32112
571.77        70.95872
572.21         71.2839
572.64        70.67978
573.08        69.59395
573.51        66.66681
573.95        69.25455
574.38        73.68157
574.82        71.57203
575.25        71.31492
575.69        68.91055
576.12        67.89828
576.56        66.56082
576.99        68.65531
577.42        71.92078
577.86        71.44217
578.29        71.07937
578.73        74.91125
579.16        68.96812
579.60        63.04017
580.03        65.69347
580.47        70.07741
580.90        71.71993
581.33         70.5015
581.77        69.54479
582.20        76.54268
582.64        76.36423
583.07        65.42834
583.51        63.90635
583.94        62.63377
584.37        65.28476
584.81        68.64905
585.24        72.33816
585.68         73.9144
586.11        73.03944
586.54        67.64405
586.98         65.4381
587.41        66.21857
587.85        70.03695
588.28        72.39729
588.71        68.80154
589.15        66.79691
589.58        68.09531
590.01        68.58391
590.45        69.46752
590.88        70.30028
591.31         69.5521
591.75        69.09321
592.18        69.06886
592.61        70.42635
593.05        71.10541
593.48        74.33492
593.91        74.78025
594.35        68.99925
594.78        67.56252
595.21        67.06474
595.65        69.98469
596.08        72.68073
596.51        69.62028
596.94        67.92056
597.38        68.55387
597.81        71.13954
598.24        73.02935
598.68        71.63471
599.11        70.23383
599.54        73.21252
599.97        74.87858
600.41        69.50333
600.84        69.63601
601.27        71.11844
601.70        70.02515
602.14        70.20626
602.57        69.10827
603.00        69.48332
603.43        71.15099
603.87        72.90502
604.30        72.53059
604.73        70.41416
605.16        68.67556
605.60        69.64637
606.03        70.83308
606.46        72.11601
606.89        71.76904
607.32        69.15287
607.76        69.41854
608.19        71.52212
608.62        70.71611
609.05        69.46793
609.48        70.03781
609.92        70.04201
610.35        69.55653
610.78        71.56832
611.21        72.06485
611.64        68.99252
612.07        69.78344
612.50        70.26572
612.94         70.7531
613.37        70.16164
613.80        70.41796
614.23        70.83474
614.66        70.68929
615.09        70.80894
615.52        70.79929
615.96        70.78258
616.39        70.88029
616.82        69.88535
617.25        69.67821
617.68        70.38899
618.11        71.03505
618.54        71.43425
618.97        71.01881
619.40          70.172
619.84        69.74142
620.27         70.6415
620.70        71.22888
621.13        71.54216
621.56        70.99375
621.99        69.90228
622.42        70.59029
622.85        72.58796
623.28        72.33035
623.71         71.8031
624.14        71.89225
624.57        71.13808
625.00        70.78983
625.43         71.1292
625.86        70.64038
626.29         70.9046
626.72        71.18111
627.15        71.09463
627.58        71.25481
628.01        71.40063
628.44        71.45051
628.87        71.45378
629.30        71.60974
629.73        71.79993
630.16        72.19946
630.59        71.71078
631.02        71.43713
631.45        71.15039
631.88        70.92012
632.31         70.7788
632.74         70.7309
633.17        70.76128
633.60         70.8082
634.03        70.85278
634.46        70.91003
634.89        70.97168
635.32        71.02402
635.75        71.06349
636.18        71.08296
636.61        71.09178
637.04         71.1152
637.47        71.15615
637.89         71.2141
638.32        71.25696
638.75        71.27806
639.18        71.27178
639.61        71.25463
640.04        71.21771
640.47        71.12027
640.90        71.01246
641.33        70.86245
641.76        70.70566
642.18        70.68116
642.61        70.80155
643.04        70.86789
643.47         70.7865
643.90        71.32847
644.33        71.00002
644.76        71.01363
645.18        70.95435
645.61        70.88148
646.04        70.79506
646.47        70.67178
646.90        70.58047
647.33        70.58503
647.75        70.71588
648.18        70.98898
648.61        71.22039
649.04        71.16645
649.47        70.78705
649.89        69.93959
650.32        69.05878
650.75        69.08766
651.18        69.94585
651.61        70.75783
652.03        71.16472
652.46        71.02674
652.89        70.70184
653.32        70.26325
653.74        70.07393
654.17        70.99759
654.60        71.47095
655.03        69.27524
655.46        70.75774
655.88        74.65716
656.31        79.40421
656.74        179.8544
657.16        116.5608
657.59        41.09744
658.02        30.87466
658.45        53.15168
658.87        68.05647
659.30        71.79554
659.73        70.53091
660.15        67.82092
660.58        70.60551
661.01        72.33949
661.44        69.94241
661.86        69.05051
662.29        68.92909
662.72        69.74188
663.14        71.19547
663.57        71.17365
664.00        69.93533
664.42        69.71209
664.85        70.57764
665.27        71.08902
665.70        71.04079
666.13        70.92614
666.55        70.72962
666.98         70.2959
667.41        69.80487
667.83        69.61399
668.26        69.79475
668.69        70.21076
669.11        70.62196
669.54         70.9877
669.96        70.57464
670.39        70.03162
670.82        69.40406
671.24         69.1485
671.67        69.37724
672.09        69.82988
672.52        70.23341
672.94        70.83453
673.37        70.34474
673.80        70.07781
674.22        69.79627
674.65        69.62913
675.07        69.60191
675.50        69.53078
675.92        69.45164
676.35        69.53459
676.77        69.77511
677.20        70.06521
677.62         70.3492
678.05        70.48551
678.47        70.42496
678.90        70.42925
679.32        70.19545
679.75        70.02579
680.17        70.11489
680.60        70.22097
681.02        70.32868
681.45        70.26448
681.87        70.01678
682.30        69.63404
682.72        69.26946
683.15        69.18353
683.57        69.43736
684.00        69.85203
684.42        70.40714
684.85        70.68104
685.27         70.6364
685.70        70.37226
686.12         70.0116
686.54        69.79558
686.97         69.7737
687.39        69.88804
687.82        70.04241
688.24        70.13352
688.66        70.10706
689.09        70.01189
689.51        69.91985
689.94        69.91135
690.36        70.01514
690.78        70.18793
691.21        70.37357
691.63         70.4932
692.06        70.52516
692.48        70.50255
692.90        70.45993
693.33        70.43556
693.75        70.44602
694.17         70.4852
694.60        70.54359
695.02         70.5928
695.44        70.59557
695.87        70.71019
696.29        70.92495
696.71        70.73207
697.14        70.32994
697.56        70.66926
697.98        71.91866
698.41        71.71465
698.83        70.92439
699.25        70.40585
699.68        70.44553
700.10        70.34261
700.52        70.11604
700.94        70.15777
701.37        70.41982
701.79        70.71783
702.21        70.97216
702.64        71.23769
703.06        71.42534
703.48        71.38512
703.90         71.1167
704.33        70.66761
704.75        70.17585
705.17        69.95473
705.59        70.08615
706.01        70.37127
706.44        70.67017
706.86        71.36373
707.28        71.43133
707.70        71.64716
708.12         71.7376
708.55        71.72925
708.97         71.6171
709.39        71.40525
709.81        71.17118
710.23        71.04251
710.66        71.05569
711.08        71.20846
711.50        71.39421
711.92        71.45039
712.34        71.33981
712.76        71.10422
713.19        70.84811
713.61        70.76938
714.03        70.89886
714.45        71.17625
714.87        71.46907
715.29        71.56938
715.71        71.43291
716.13        71.13033
716.56        70.78635
716.98        70.63058
717.40        70.71247
717.82        70.95856
718.24        71.26317
718.66        71.44759
719.08        71.46028
719.50        71.36061
719.92        71.19855
720.34        71.07415
720.76        71.02408
721.19        70.89616
721.61        70.92579
722.03        70.99847
722.45        71.16906
722.87        71.42184
723.29        71.68276
723.71        71.81893
724.13        71.79726
724.55         71.6537
724.97        71.46352
725.39        71.35713
725.81        71.37119
726.23        71.46671
726.65        71.59919
727.07        71.69451
727.49        71.73443
727.91        71.75529
728.33        71.76858
728.75        71.79054
729.17        71.82546
729.59         71.8487
730.01        71.89328
730.43        72.00796
730.85        72.19873
731.27        72.48238
731.69        72.75037
732.10        72.80259
732.52        72.60588
732.94        72.26092
733.36        71.96636
733.78        71.90531
734.20        72.12318
734.62        72.86485
735.04        73.84191
735.46        73.84654
735.88        73.09836
736.30        73.28528
736.72         74.3781
737.13        74.75771
737.55        74.21085
737.97        74.08846
738.39        74.40035
738.81        73.71088
739.23        72.44308
739.65        73.10399
740.06        75.22662
740.48        75.40695
740.90        73.75297
741.32        73.07278
741.74        73.59624
742.16        73.88081
742.57        73.95496
742.99        74.61324
743.41        75.64437
743.83        76.25867
744.25        76.32428
744.67        76.04081
745.08        75.64272
745.50        75.51183
745.92        75.76756
746.34        76.27557
746.75        76.85775
747.17        77.21602
747.59        77.28749
748.01        77.16036
748.42        77.01825
748.84        77.14509
749.26        77.60977
749.68        78.25935
750.09        78.90158
750.51        79.32441
750.93        79.41924
751.35        79.01038
751.76         78.3289
752.18        78.11039
752.60        78.36396
753.01        78.49906
753.43        78.48164
753.85        78.70462
754.27        79.16317
754.68        79.66553
755.10        80.12407
755.52        80.52988
755.93        80.87296
756.35        81.05598
756.77        81.18011
757.18        81.27225
757.60        81.33898
758.02        81.71883
758.43          82.177
758.85        81.55268
759.26        80.24191
759.68        80.16177
760.10        81.17136
760.51        81.52314
760.93        80.96067
761.34        80.20191
761.76        79.54341
762.18        79.23119
762.59        79.35974
763.01        79.60899
763.42        79.98075
763.84        80.43975
764.26        80.95148
764.67        81.31588
765.09        81.43703
765.50        81.43781
765.92        81.23465
766.33        80.15336
766.75        78.66314
767.16        78.22413
767.58        78.96915
768.00        80.17811
768.41        81.56091
768.83         82.7611
769.24        83.25755
769.66        82.66153
770.07        81.38724
770.49        79.77131
770.90        78.34803
771.32        79.22695
771.73        81.71328
772.15        81.32486
772.56        78.50755
772.97        77.97827
773.39        79.67345
773.80        80.30016
774.22        79.64295
774.63        79.67696
775.05        80.32616
775.46        80.63914
775.88        80.50098
776.29        80.17986
776.70        79.80858
777.12        79.63224
777.53        79.73119
777.95        79.98293
778.36        80.22584
778.77          80.181
779.19        79.82854
779.60        79.25592
780.02        78.71741
780.43        78.66179
780.84        79.21549
781.26         79.8745
781.67        80.48315
782.09        81.50858
782.50        82.45879
782.91        81.40354
783.33        79.07371
783.74        78.29997
784.15        79.24997
784.57        80.12583
784.98        80.52904
785.39        80.61075
785.81        80.30853
786.22        79.68487
786.63        79.10691
787.04        79.02589
787.46        79.52414
787.87        80.52464
788.28         81.6507
788.70        82.18899
789.11        81.98103
789.52        81.27948
789.93        80.42937
790.35        79.90634
790.76        79.84497
791.17        80.14684
791.58        80.62738
792.00        80.89152
792.41        80.81427
792.82        80.64336
793.23         80.5751
793.65        80.24652
794.06        79.96561
794.47        81.23303
794.88        83.20548
795.29        82.83895
795.71        80.35562
796.12        78.04647
796.53        76.64843
796.94        76.28575
797.35         77.0285
797.76        78.34978
798.18        79.63783
798.59        80.55975
799.00        80.76711
799.41        80.00288
799.82        78.72839
800.23        78.00912
800.64        78.06113
801.06        78.47485
801.47        79.09448
801.88        79.55907
802.29        79.72633
802.70        79.76148
803.11        79.69604
803.52        79.54076
803.93        79.33893
804.34        79.04343
804.75        78.78387
805.17        78.83485
805.58        79.26808
805.99        79.83755
806.40        80.30959
806.81        80.69872
807.22         80.7099
807.63        79.53526
808.04        77.70525
808.45        76.84807
808.86        77.16152
809.27        77.90556
809.68        78.73828
810.09        79.30309
810.50        79.39938
810.91        79.15196
811.32        78.74147
811.73        78.46172
812.14        78.39854
812.55        78.40672
812.96        78.48318
813.37        78.63221
813.78        78.82783
814.19        79.13844
814.60        79.35254
815.01        79.12391
815.42        78.42324
815.83        77.31501
816.24        76.24963
816.65        76.01757
817.05        76.83513
817.46        78.43396
817.87        80.18375
818.28        80.95721
818.69        80.45292
819.10        78.95724
819.51        77.18282
819.92        76.34499
820.33        76.76595
820.74        78.07355
821.14        79.62675
821.55        80.27906
821.96         79.7726
822.37        78.51444
822.78        77.04101
823.19         76.1303
823.60        76.00164
824.00        76.44694
824.41        77.14167
824.82        77.66969
825.23        77.83272
825.64        77.79296
826.04        77.64468
826.45        77.50693
826.86          77.419
827.27        77.28687
827.68        77.12678
828.08        77.02852
828.49        76.94748
828.90        76.94918
829.31        76.93713
829.72        76.71886
830.12        76.30444
830.53        75.75224
830.94        75.31516
831.35        75.32722
831.75        75.88474
832.16        76.82902
832.57         77.9426
832.97        78.75974
833.38        79.03204
833.79        78.85831
834.20         78.4705
834.60        78.23398
835.01          78.271
835.42        78.47916
835.82        78.64089
836.23        78.31493
836.64        77.48243
837.04        76.34703
837.45        75.29164
837.86        74.90565
838.26        75.32041
838.67        76.30019
839.08        77.52396
839.48        78.40096
839.89        78.67651
840.29        78.53551
840.70        78.08102
841.11        77.46368
841.51        76.79404
841.92        76.00835
842.33        75.30804
842.73        75.04638
843.14        75.25394
843.54        75.89758
843.95        76.65993
844.35        77.04388
844.76        76.90002
845.17        76.37749
845.57        75.72686
845.98        75.35564
846.38        75.36751
846.79        75.60519
847.19        75.94599
847.60        76.09102
848.00        75.98975
848.41           75.73
848.81        75.42641
849.22        75.15828
849.62         75.0104
850.03        74.94985
850.43        75.01828
850.84        75.20969
851.24        75.55373
851.65         75.8876
852.05         76.3147
852.46        76.82227
852.86        77.38217
853.27        77.99827
853.67        78.26582
854.07         77.6944
854.48        76.33286
854.88        74.36558
855.29        72.47507
855.69        71.63404
856.10        72.02097
856.50        73.53519
856.90        75.58806
857.31        76.81408
857.71        76.80445
858.12        75.87429
858.52        74.62838
858.92        73.86009
859.33        73.74971
859.73        74.09438
860.13        74.73875
860.54        75.35849
860.94        75.87617
861.34        76.34457
861.75        76.78096
862.15        77.30528
862.55        77.88993
862.96        78.45915
863.36        78.92045
863.76        79.09504
864.17        78.96095
864.57        78.65136
864.97         78.3368
865.38        78.26613
865.78        78.53903
866.18        78.99119
866.58        79.54891
866.99        80.06705
867.39        80.53072
867.79        81.02936
868.19        81.31899
868.60        80.94685
869.00         79.8865
869.40        78.27604
869.80        76.91218
870.21        77.03696
870.61        78.96445
871.01        82.30955
871.41        86.00746
871.81        88.22253
872.22        88.43295
872.62        87.14775
873.02        85.31557
873.42        84.58245
873.82        85.19096
874.22        86.37897
874.63        87.68222
875.03        88.17274
875.43        87.43539
875.83        86.68888
876.23        84.89005
876.63        84.19154
877.03        84.60492
877.44        86.33207
877.84        103.1367
878.24        93.79122
878.64         93.9267
879.04        93.30249
879.44        89.38963
879.84        87.20227
880.24        90.44895
880.64         92.1021
881.04        92.73913
881.44        92.97086
881.84        92.37342
882.24        91.17195
882.65        90.11149
883.05         89.8528
883.45        90.52756
883.85        92.14386
884.25         94.1355
884.65        95.29662
885.05        95.25585
885.45        94.39636
885.85        93.36414
886.25        93.06857
886.65        93.68504
887.05        94.88453
887.45        96.24227
887.85        97.00016
888.25        96.90742
888.65        96.28347
889.04        95.34466
889.44        94.46279
889.84        93.77992
890.24        93.14104
890.64        92.73557
891.04        92.86623
891.44        93.52252
891.84        94.67074
892.24        95.78743
892.64          95.911
893.04        94.90702
893.44        93.16737
893.83        91.43408
894.23        90.78909
894.63        91.41433
895.03        92.92175
895.43        94.90276
895.83        96.56779
896.23        97.54227
896.63        98.06382
897.02        98.00088
897.42        97.17775
897.82        95.74091
898.22        93.78609
898.62        91.98687
899.01        91.34377
899.41        92.02717
899.81        93.70133
900.21        95.70262
900.61         96.9161
901.00        97.01519
901.40        96.32774
901.80        95.27103
902.20        94.51077
902.59         94.2649
902.99        94.33429
903.39        94.53093
903.79        94.54502
904.18        94.30299
904.58        93.99634
904.98        93.82927
905.38        94.08818
905.77        94.76634
906.17        95.66648
906.57        96.55643
906.96        97.16849
907.36        97.36086
907.76        97.24773
908.15        96.82082
908.55        95.96292
908.95        94.78609
909.34        93.32638
909.74        91.96957
910.14        91.12826
910.53        90.93125
910.93        91.34585
911.33        92.15023
911.72        92.91219
912.12        93.38248
912.52        93.60108
912.91        93.75307
913.31        94.11545
913.70        94.79321
914.10        95.71305
914.49         96.5491
914.89        96.45148
915.29        95.23198
915.68         93.2208
916.08        91.39566
916.47        90.61156
916.87        90.95084
917.26        92.15187
917.66        93.48955
918.05        93.81071
918.45        92.85355
918.84        91.06415
919.24        89.26539
919.64        88.64488
920.03        89.50126
920.42        91.43036
920.82        93.82137
921.21        95.72801
921.61        96.58464
922.00         96.6805
922.40        96.14816
922.79        95.17904
923.19          93.965
923.58        92.38418
923.98         90.5661
924.37        89.24845
924.77        88.95234
925.16        87.33412
925.55        88.65707
925.95        89.65873
926.34        91.48441
926.74        93.67709
927.13        95.78842
927.52        96.81623
927.92        96.62651
928.31        95.53825
928.70        93.83392
929.10        92.05009
929.49        90.39883
929.89        88.79661
930.28        87.72506
930.67        87.98162
931.07        89.51785
931.46        92.15456
931.85         94.7922
932.24        95.75061
932.64        94.69463
933.03        91.96063
933.42         88.3633
933.82        85.77859
934.21        84.85089
934.60        85.10261
934.99        85.85355
935.39        86.43153
935.78         86.7162
936.17        86.60116
936.56        85.86277
936.96        86.94126
937.35         85.7076
937.74        85.45834
938.13        85.27265
938.53        85.67702
938.92        86.70303
939.31        88.37887
939.70        90.22733
940.09        90.83967
940.49        89.80507
940.88        87.72474
941.27        85.64172
941.66        84.79897
942.05        85.33952
942.44        86.82589
942.84        88.75553
943.23        90.31743
943.62        91.07085
944.01        91.23374
944.40        90.90276
944.79        90.21626
945.18        89.24277
945.57         87.8603
945.97        86.20248
946.36        84.79325
946.75        84.02657
947.14        83.88648
947.53        84.17635
947.92        84.61372
948.31        85.13208
948.70        85.82887
949.09        86.62408
949.48        87.26997
949.87        87.61124
950.26        87.58879
950.65        87.40042
951.04        87.42974
951.43        87.73955
951.82        88.20931
952.21        88.50909
952.60        88.12186
952.99        86.96745
953.38        85.26305
953.77        83.45159
954.16        82.13476
954.55        81.47624
954.94        81.40944
955.33        81.55477
955.72        81.25465
956.11        80.38489
956.50        79.12115
956.89        78.14951
957.28        78.68446
957.66         81.0219
958.05        84.45614
958.44        87.93089
958.83        89.92239
959.22        90.06524
959.61        88.76142
960.00         86.6936
960.39        85.00469
960.78        84.09193
961.16        83.69318
961.55        83.46626
961.94        82.84358
962.33        81.71953
962.72        80.42721
963.11        79.30587
963.49        78.71171
963.88        78.68089
964.27        79.10023
964.66         79.7004
965.04        79.98607
965.43        79.68724
965.82        78.99753
966.21        78.30875
966.60        78.13647
966.98        78.57352
967.37        79.43285
967.76        80.34633
968.15         80.6032
968.53        80.02865
968.92        78.85813
969.31        77.62144
969.69        76.99757
970.08        77.12582
970.47        77.83608
970.86        78.72628
971.24         79.0854
971.63        78.68378
972.02        77.68971
972.40        76.62842
972.79        76.42003
973.17        77.44217
973.56        79.35052
973.95         81.4701
974.33        82.49403
974.72        81.96425
975.11        80.30964
975.49        78.44942
975.88        77.65751
976.26        78.12277
976.65        79.57462
977.04        81.17699
977.42         80.9642
977.81        78.36314
978.19        74.27503
978.58        70.67055
978.96        69.48449
979.35        70.97881
979.74         74.7354
980.12        79.88533
980.51        83.29227
980.89        83.89619
981.28        82.44237
981.66         80.1967
982.05        78.80148
982.43        78.57325
982.82        78.94763
983.20        79.73264
983.59         80.7584
983.97        81.99847
984.35        83.61402
984.74        85.20255
985.12        86.12141
985.51        85.79439
985.89        84.19874
986.28        81.77732
986.66        79.21613
987.04        77.16647
987.43        75.80866
987.81        74.77473
988.20        73.41008
988.58        71.36646
988.96        68.14964
989.35        64.61627
989.73        64.72148
990.12         70.3977
990.50        79.42805
990.88        86.46251
991.27        87.75008
991.65        83.99239
992.03        76.34669
992.42        67.80922
992.80        64.02738
993.18        66.54204
993.56         72.4421
993.95        78.79875
994.33        82.84276
994.71         84.0441
995.10        83.74756
995.48        82.37907
995.86        80.30498
996.24        77.78334
996.63        74.31071
997.01        70.72933
997.39        69.80956
997.77        72.57237
998.15        78.34851
998.54        84.30599
998.92        86.65303
999.30        84.24592
999.68        78.07534
1000.06        69.54502
1000.45        62.46033
1000.83        58.74488
1001.21        57.44891
1001.59        58.10312
1001.97        60.19453
1002.35        63.46782
1002.73         68.7842
1003.12        74.93472
1003.50        77.38853
1003.88         73.9806
1004.26        66.56308
1004.64        59.32444
1005.02        56.16396
1005.40        57.51489
1005.78        63.21965
1006.16        73.58717
1006.54        82.75248
1006.92        84.55869
1007.30        81.74544
1007.69        78.11159
1008.07        75.95562
1008.45        75.08055
1008.83        74.37585
1009.21        72.50776
1009.59        63.71995
1009.97        33.08994
1010.35       -14.57893
1010.73       -13.06536
1011.11        10.96524
1011.49        29.13107
1011.86        43.13758
1012.24        51.26205
1012.62        55.21488
1013.00        56.86561
1013.38         56.8966
1013.76        57.24836
1014.14        63.30568
1014.52         79.2556
1014.90        106.6755
1015.28        138.5346
1015.66        155.6973
1016.04        146.4431
1016.41        112.9121
1016.79        74.85986
1017.17         54.3486
1017.55        50.79823
1017.93        54.21493
1018.31        59.12696
1018.69        62.56581
1019.06        64.57523
1019.44        65.89079
1019.82        67.27908
1020.20        69.65904
1020.58        73.96735
1020.95        81.05143
1021.33        85.90744
1021.71         178.685
1022.09        115.2631
1022.46        116.1446
1022.84        118.4706
1023.22        123.0654
1023.60         134.742
1023.97        247.9238
1024.35        59.01038
1024.73        85.41624
