SpectraSmart Spectrum 2.9.0.0
--------- Device Information -----------
Spectrum Name :  反射率_0
Saving Time :  2024/04/26 01:31:22
Spectro-Module Model Name : SE2030-DUVN
Spectro-Module Serial Number : OS361AC55029948
Wavelength Start : 200
Wavelength End : 1025
Wavelength Unit : Wavelength(nm)
Spectrum Unit : Reflectance(%)
-----------Spectrum Setting ------------
Integration Time : 20ms
Average : 10
Boxcar : 0
Background removal :  enabled
linearity correction :  enabled
SC :  disabled
Intensity correction :  disabled
DWT denoise :  enabled
savitzky-golay :  disabled
FFT :  disabled
Running average :  disabled
Kalman :  disabled
High pass :  disabled
---------------BEGIN--------------------
Wavelength(nm)             Reflectance(%)
200.29               0
200.75        90.60176
201.21        84.05838
201.67        75.98331
202.13        71.03139
202.58        69.91182
203.04        71.49607
203.50        74.50188
203.96        76.78743
204.42        77.53722
204.88         77.4393
205.34        77.28501
205.80        77.97796
206.26        80.05795
206.72        84.54757
207.18        92.39013
207.64        96.19402
208.10         86.3403
208.55        73.90693
209.01        67.49773
209.47        66.55969
209.93        68.98667
210.39        74.11716
210.85        80.36043
211.31        83.79118
211.77        82.84181
212.23        78.71542
212.69        74.27986
213.14        74.17485
213.60        78.91419
214.06        87.05904
214.52        95.24822
214.98        98.48521
215.44        95.80976
215.90        89.19128
216.36        81.54198
216.81        76.82071
217.27        76.08315
217.73        77.77242
218.19        79.65999
218.65        78.85019
219.11        74.22612
219.57        65.20763
220.02         52.7697
220.48        44.09059
220.94        43.65019
221.40        50.19507
221.86        56.86579
222.32        56.19444
222.77        48.96074
223.23        39.23918
223.69        31.49508
224.15        30.29929
224.61        34.92516
225.06        42.95375
225.52        50.56371
225.98        52.85455
226.44        49.14901
226.90        41.70234
227.36        33.61109
227.81        29.06888
228.27        29.23093
228.73         32.3883
229.19        36.92628
229.65        40.44323
230.10        42.15154
230.56        42.85577
231.02        42.98909
231.48        42.96753
231.93        42.94039
232.39        42.74028
232.85        42.38105
233.31        42.00886
233.77         41.6529
234.22        41.31216
234.68        41.07275
235.14        40.96481
235.60        41.01258
236.05        41.27229
236.51        41.57398
236.97        41.62098
237.43        41.39652
237.88        40.98847
238.34        40.75892
238.80        41.71619
239.26         44.2305
239.71        48.07988
240.17        52.30303
240.63         55.6755
241.08        57.82509
241.54        58.90512
242.00        59.46328
242.46        60.50242
242.91        62.97089
243.37        68.16177
243.83        83.73204
244.28        135.7042
244.74        197.8413
245.20        168.0578
245.66        138.1178
246.11        128.4307
246.57        129.4748
247.03        141.2767
247.48        173.0542
247.94        133.8175
248.40        93.79856
248.85        84.44716
249.31        83.02204
249.77        84.29939
250.22        87.50952
250.68        93.36755
251.14        101.9189
251.59        108.0856
252.05        106.5524
252.51        99.29428
252.96        91.18928
253.42        87.63222
253.88        88.16103
254.33        90.68875
254.79        94.32747
255.25        97.28024
255.70        98.78571
256.16        99.78821
256.62        99.61183
257.07        97.41767
257.53        93.94749
257.99        89.25191
258.44        84.41493
258.90        81.76903
259.35        80.42986
259.81        79.75883
260.27        78.26854
260.72        74.49118
261.18         69.1927
261.63        62.99513
262.09        57.31374
262.55        53.09457
263.00         50.3449
263.46        48.72049
263.91        47.47445
264.37        46.08848
264.83        44.33402
265.28        42.27062
265.74        40.34388
266.19        38.97988
266.65        38.35766
267.11        38.18154
267.56        37.99284
268.02        37.24049
268.47        35.80925
268.93        33.89549
269.38        31.81898
269.84        30.37075
270.30        29.77833
270.75        29.84031
271.21        30.15128
271.66        30.09701
272.12        29.50632
272.57        28.56002
273.03         27.5866
273.48         26.9952
273.94         26.8909
274.39        27.07727
274.85        27.26262
275.31        27.02585
275.76        26.28952
276.22        25.24089
276.67        24.15851
277.13         23.5265
277.58         23.3758
278.04        23.56028
278.49         23.7596
278.95        23.58052
279.40         22.9388
279.86        22.04211
280.31        21.09629
280.77        20.50951
281.22        20.32257
281.68        20.40806
282.13        20.59439
282.59        20.67227
283.04        20.58532
283.50        20.44592
283.95        20.27765
284.41        20.12436
284.86         20.0062
285.32        19.90515
285.77        19.88995
286.22        20.13052
286.68        20.60482
287.13        21.22387
287.59        21.78959
288.04        22.00025
288.50        21.82903
288.95        21.36599
289.41        20.81267
289.86        20.37193
290.32        20.16695
290.77        20.13307
291.22        20.26979
291.68        20.53084
292.13        20.90891
292.59        21.44056
293.04        22.12653
293.50        22.95623
293.95        23.90254
294.40         24.9204
294.86        25.99226
295.31        27.11317
295.77        28.28419
296.22        29.51435
296.68          30.754
297.13        31.89073
297.58         32.9261
298.04         33.9052
298.49        34.97409
298.95         36.4119
299.40        38.25141
299.85        40.40177
300.31        42.64293
300.76        44.61369
301.21        46.20319
301.67         47.5585
302.12        48.78382
302.58        50.14006
303.03        51.67043
303.48        53.31011
303.94        55.10404
304.39        57.06274
304.84        59.16757
305.30        61.40811
305.75        63.57126
306.20        65.35127
306.66         66.7208
307.11        67.72425
307.57        68.63412
308.02        69.74536
308.47        71.18639
308.93         72.8736
309.38         74.6377
309.83        76.25829
310.29        77.65578
310.74         78.8631
311.19         79.9741
311.65        81.13245
312.10        82.35801
312.55        83.60612
313.00        84.74253
313.46        85.56538
313.91        86.01868
314.36        86.19065
314.82        86.29362
315.27        86.59534
315.72        87.20269
316.18        88.04874
316.63         88.9883
317.08        89.73264
317.53        90.19778
317.99        90.45173
318.44        90.68234
318.89            91.2
319.35        92.04332
319.80        93.13445
320.25        94.18213
320.70        94.71156
321.16        94.62137
321.61        94.06961
322.06        93.39092
322.51        93.11269
322.97        93.34633
323.42        93.97991
323.87        94.75611
324.32        95.22884
324.78        95.25754
325.23        95.02532
325.68        94.70789
326.13        94.61544
326.59        94.81791
327.04        95.24001
327.49        95.76848
327.94        96.25793
328.39        96.64546
328.85        96.95456
329.30        97.25355
329.75        97.48171
330.20        97.66221
330.66        97.79915
331.11        98.00555
331.56        98.38866
332.01         98.9921
332.46         99.7668
332.92        100.6589
333.37        101.7578
333.82        102.9367
334.27        104.1635
334.72          105.22
335.17        105.7624
335.63        105.7318
336.08        105.2859
336.53        104.7105
336.98        104.5191
337.43        104.8603
337.88        105.5932
338.34        106.5587
338.79        107.5768
339.24        108.5057
339.69        109.4322
340.14        110.2269
340.59        110.6579
341.05        110.7126
341.50        110.4291
341.95        110.1075
342.40        110.2373
342.85        110.9154
343.30        112.0082
343.75        113.2174
344.20        114.0025
344.66        114.2143
345.11        113.9992
345.56        113.5852
346.01        113.3192
346.46        113.3132
346.91        113.4629
347.36        113.6853
347.81        113.8612
348.26        113.9557
348.72         114.038
349.17         114.127
349.62        114.2844
350.07        114.5114
350.52        114.7618
350.97        114.9752
351.42        115.0775
351.87        115.0493
352.32        114.9126
352.77        114.7021
353.22        114.4747
353.67        114.2514
354.13        114.0342
354.58        113.7824
355.03        113.4918
355.48        113.1565
355.93        112.7819
356.38        112.3758
356.83        111.9474
357.28        111.4954
357.73        111.0153
358.18        110.4893
358.63        109.8893
359.08        109.2212
359.53        108.5113
359.98         107.788
360.43        107.0924
360.88        106.4314
361.33        105.7792
361.78        105.1497
362.23        104.5661
362.68        104.0282
363.13        103.5442
363.58        103.0305
364.03        102.3496
364.48        101.4873
364.93        100.4833
365.38        99.49141
365.83        98.76522
366.28        98.34672
366.73        98.14107
367.18        97.97654
367.63        97.57217
368.08        96.86554
368.53        95.97621
368.98        95.00335
369.43        94.08834
369.88        93.28442
370.33        92.53452
370.78         91.8922
371.23        91.45383
371.68        91.21769
372.13        91.16431
372.58         91.1347
373.03        90.85192
373.48        90.26195
373.93        89.45379
374.38        88.60427
374.83        87.98701
375.28        87.65956
375.72        87.51472
376.17        87.45434
376.62        87.29494
377.07         86.9687
377.52         86.5239
377.97        85.98626
378.42        85.39748
378.87        84.79501
379.32         84.1868
379.77        83.58169
380.22          82.987
380.67         82.4012
381.11        81.82475
381.56        81.29978
382.01        80.89508
382.46        80.63142
382.91        80.51003
383.36        80.41915
383.81        80.18338
384.26         79.7705
384.71        79.20783
385.15        78.65466
385.60        78.43124
386.05        78.52351
386.50        78.81786
386.95           79.04
387.40        78.73951
387.85        77.88947
388.29        76.69841
388.74        75.56422
389.19        74.73711
389.64        74.26169
390.09        73.98798
390.54        73.93762
390.98        74.14637
391.43        74.55777
391.88        75.12828
392.33        75.55595
392.78        75.39181
393.23        74.63555
393.67         73.4474
394.12        72.30424
394.57        71.64919
395.02        71.57987
395.47        71.93012
395.91        72.54994
396.36        73.05673
396.81        73.31232
397.26        73.38419
397.71         73.2801
398.15        72.91579
398.60        72.40987
399.05        71.89896
399.50        71.43013
399.95         70.6337
400.39        69.97221
400.84        69.76589
401.29        70.03419
401.74        70.17277
402.18        70.10947
402.63        70.04312
403.08        70.08031
403.53        70.29581
403.97        70.68401
404.42        71.15123
404.87        71.48875
405.32        71.36054
405.76         70.7162
406.21        69.80965
406.66        68.90077
407.11        68.25433
407.55        68.04594
408.00        68.37648
408.45        69.07237
408.90        69.64152
409.34        69.81122
409.79        69.44223
410.24        68.74764
410.68        68.32782
411.13        68.27693
411.58        68.24271
412.03        68.23158
412.47        68.42396
412.92        68.75952
413.37        69.21545
413.81        69.62821
414.26        69.78586
414.71        69.62912
415.15        69.20671
415.60        68.68801
416.05        68.37124
416.49        68.34095
416.94        68.53619
417.39        68.76731
417.83        68.69463
418.28        68.27029
418.73        67.62965
419.17        67.04395
419.62        66.93765
420.07        67.34923
420.51        68.12149
420.96        68.97987
421.41        69.40562
421.85        69.24033
422.30        68.91044
422.74        68.50715
423.19        67.90202
423.64        67.30906
424.08        67.53931
424.53         68.4395
424.98        68.94846
425.42        68.92985
425.87        69.15382
426.31        69.57914
426.76        69.38483
427.21        68.81825
427.65        69.02612
428.10        69.91272
428.54        70.65765
428.99        71.11658
429.44         71.3154
429.88         71.2943
430.33        72.14459
430.77          73.197
431.22        72.14083
431.66        69.53621
432.11        68.17218
432.56        68.39823
433.00        69.14705
433.45        70.25994
433.89        72.28799
434.34        73.84297
434.78         74.6401
435.23        71.09939
435.67         69.2197
436.12        71.28928
436.57        72.48912
437.01        73.28061
437.46        73.59798
437.90        73.57674
438.35        73.21769
438.79        73.63743
439.24        73.55269
439.68        73.33182
440.13        72.87944
440.57        72.58989
441.02        73.58741
441.46        75.40521
441.91        76.45506
442.35        76.42143
442.80        75.37807
443.24        73.91895
443.69        74.64966
444.13        77.08569
444.58         77.2661
445.02        75.39334
445.47        75.07436
445.91        76.25421
446.36        76.60927
446.80        76.08121
447.24         75.8586
447.69        76.02004
448.13        76.21127
448.58        76.44262
449.02        76.75195
449.47        77.08143
449.91        77.35469
450.36        77.54366
450.80        77.63861
451.25        77.64394
451.69        77.54032
452.13        77.36168
452.58        77.12739
453.02        76.89762
453.47        76.81264
453.91        76.86785
454.36        77.01887
454.80        77.19232
455.24        77.14903
455.69        76.86358
456.13          76.615
456.58          76.454
457.02        75.83594
457.46        75.07217
457.91        75.25179
458.35        76.16061
458.79        76.53996
459.24        76.32456
459.68        76.16652
460.13        76.10461
460.57        75.80104
461.01        75.31741
461.46        74.73699
461.90        74.18729
462.34        73.95877
462.79        74.00338
463.23         74.3102
463.68        74.69726
464.12        75.00837
464.56        75.14946
465.01        75.08017
465.45        74.77643
465.89        74.71609
466.34        74.73214
466.78        73.84514
467.22         72.5623
467.67        71.81507
468.11        72.97225
468.55        73.55899
468.99        73.65772
469.44        73.27719
469.88        72.63975
470.32        72.64696
470.77        73.20014
471.21        73.28657
471.65        72.84349
472.10        72.58773
472.54        72.58467
472.98        72.57178
473.42        72.54623
473.87         72.7654
474.31        73.05696
474.75        72.81441
475.20        72.23418
475.64        72.07338
476.08        72.74564
476.52        72.82434
476.97        72.36648
477.41        72.58595
477.85        72.68625
478.29        72.30267
478.74        72.63934
479.18        72.65572
479.62        71.61185
480.06        72.17497
480.50        72.42754
480.95        72.88406
481.39        73.09498
481.83        71.85178
482.27        72.12064
482.72        71.94283
483.16        70.42607
483.60        70.69235
484.04        72.23318
484.48        72.66407
484.93        72.42221
485.37        74.10831
485.81        75.07232
486.25        73.43478
486.69        99.92784
487.14        81.06096
487.58        50.50197
488.02        61.77147
488.46        70.35791
488.90        69.28287
489.34        71.00812
489.79        69.83849
490.23        72.00331
490.67        72.77206
491.11        71.66428
491.55        71.70972
491.99        72.42602
492.43        72.26581
492.88        71.26197
493.32        71.40968
493.76        71.20972
494.20        71.45308
494.64        71.59346
495.08        71.92224
495.52        72.36179
495.96        72.29185
496.41        71.76117
496.85        72.06424
497.29        72.94567
497.73         71.8189
498.17        69.68045
498.61        69.86621
499.05        72.38363
499.49        72.91963
499.93        72.98773
500.37        72.78474
500.82        72.23574
501.26        72.17194
501.70        72.30487
502.14        72.99026
502.58        72.48827
503.02        72.39198
503.46        72.22716
503.90        71.84226
504.34        71.38332
504.78        71.19704
505.22        71.34466
505.66        71.72408
506.10        72.16982
506.54        72.30671
506.98        72.03854
507.42         71.6479
507.86        71.37382
508.30        70.69532
508.74        71.09888
509.18         71.3527
509.62        71.72526
510.06        71.93787
510.50        71.92964
510.94        71.76798
511.38        71.54445
511.82        71.43425
512.26        71.48047
512.70        71.62519
513.14        71.79973
513.58        71.90028
514.02         71.8922
514.46        71.80857
514.90        71.70644
515.34        71.65461
515.78        71.66252
516.22        71.76693
516.66         71.9129
517.10        71.85155
517.54        71.56435
517.98        71.67017
518.42        71.42152
518.86        71.50495
519.30        71.68649
519.74        72.00252
520.18        72.35503
520.62        72.54323
521.06        72.55129
521.50        72.51027
521.93        72.44444
522.37         72.3195
522.81        72.16882
523.25          72.031
523.69        71.95773
524.13        72.00933
524.57        72.18809
525.01        72.46761
525.45        72.76948
525.89        72.96297
526.32        73.00251
526.76        72.92081
527.20        72.74998
527.64        72.57808
528.08        72.45741
528.52        72.27458
528.96        72.02234
529.40        71.98237
529.83        72.15289
530.27        71.55171
530.71        71.65016
531.15         71.5675
531.59        71.73905
532.03        71.98013
532.46        72.26012
532.90        72.54979
533.34        72.79726
533.78         73.0009
534.22        73.12413
534.66        73.12532
535.09        72.99532
535.53        72.77764
535.97        72.51549
536.41         72.3008
536.85        72.16665
537.28         72.0993
537.72        72.07619
538.16        72.06738
538.60        72.06104
539.04        72.01411
539.47        71.92826
539.91        71.99789
540.35        72.14362
540.79        72.05582
541.22        71.78378
541.66        71.69933
542.10        71.81177
542.54        71.91326
542.97        71.96954
543.41        72.03888
543.85        72.10228
544.29        72.17569
544.72        72.19588
545.16        72.09701
545.60        71.86793
546.04          71.517
546.47         71.2084
546.91        71.22226
547.35        71.57832
547.79        72.21615
548.22        72.83741
548.66        72.93518
549.10        72.45621
549.53        71.66467
549.97        70.90553
550.41        70.54478
550.84        70.67574
551.28        71.26035
551.72        72.07612
552.15        72.50536
552.59        72.37985
553.03         72.6466
553.46        72.04803
553.90        71.91467
554.34        71.89856
554.77        71.93665
555.21        71.86256
555.65        71.93814
556.08        72.16346
556.52        71.64486
556.96        72.03865
557.39        71.88184
557.83        71.72407
558.27        71.64301
558.70        71.69385
559.14        71.82613
559.57        72.00747
560.01        72.31274
560.45        72.61266
560.88        72.67012
561.32         72.4951
561.75        72.12543
562.19        71.73634
562.63        71.49508
563.06        71.43954
563.50        71.54391
563.93        71.70571
564.37        71.80812
564.80        71.78538
565.24        71.68504
565.68        71.55121
566.11        71.48495
566.55        71.55023
566.98        71.66152
567.42        71.81134
567.85        72.02696
568.29         72.3091
568.72        72.39851
569.16        72.47002
569.60        72.85448
570.03        73.17815
570.47        73.22924
570.90        72.79011
571.34        71.04777
571.77        71.93171
572.21        72.35973
572.64        71.60302
573.08        70.86637
573.51        67.66859
573.95        70.49344
574.38        75.21767
574.82        72.98145
575.25        72.43751
575.69        70.06142
576.12        68.88921
576.56        68.18411
576.99        69.49886
577.42        72.73547
577.86        72.74157
578.29        72.36391
578.73        76.00597
579.16        70.29937
579.60        63.90096
580.03        66.83256
580.47         71.4069
580.90        72.92368
581.33        72.00522
581.77        70.93615
582.20        77.96814
582.64        77.71518
583.07         66.4406
583.51        64.94992
583.94        63.58927
584.37        66.59402
584.81        69.70222
585.24        73.48756
585.68        75.26713
586.11        74.15446
586.54        69.22958
586.98        66.82214
587.41        67.23171
587.85         71.2031
588.28         73.6031
588.71        70.28188
589.15        67.73689
589.58        69.17577
590.01         69.7002
590.45        70.27602
590.88        71.16805
591.31        70.45346
591.75        70.22649
592.18        70.19565
592.61        71.32565
593.05        72.34177
593.48         75.1162
593.91        76.22461
594.35        70.07455
594.78        68.59081
595.21        67.89904
595.65        70.94202
596.08        74.01178
596.51        70.97493
596.94        69.04709
597.38        69.66983
597.81        72.52622
598.24        73.96298
598.68        72.34972
599.11         71.2609
599.54         73.8956
599.97        75.61353
600.41        70.41341
600.84        70.60097
601.27         71.9602
601.70        71.17007
602.14        71.04351
602.57        69.88932
603.00        70.18003
603.43        71.99691
603.87        73.83305
604.30         73.4255
604.73        71.12358
605.16         69.3867
605.60        70.39764
606.03        71.59071
606.46        72.79202
606.89        72.37984
607.32        70.19255
607.76        70.03456
608.19        72.33828
608.62        71.69387
609.05        70.19034
609.48        70.78309
609.92        70.92099
610.35          70.027
610.78        72.43639
611.21        73.09157
611.64        69.83547
612.07        70.61058
612.50        71.06816
612.94        71.55785
613.37        70.98488
613.80         70.9715
614.23        71.61602
614.66        71.17462
615.09        71.64981
615.52        71.59753
615.96        71.44726
616.39        71.52556
616.82        70.43992
617.25        70.40795
617.68        70.91985
618.11        71.62942
618.54        72.16206
618.97        71.73752
619.40        70.74758
619.84        70.46619
620.27        71.42738
620.70        72.07634
621.13        72.36322
621.56        71.79935
621.99        70.70039
622.42        71.48064
622.85        73.65075
623.28        72.86954
623.71        72.57673
624.14        72.10978
624.57        72.05232
625.00        71.75778
625.43        71.97396
625.86        71.43911
626.29        71.70736
626.72        72.13078
627.15        71.89507
627.58        71.90305
628.01        71.79583
628.44        72.13048
628.87        72.08555
629.30        72.38105
629.73         72.6318
630.16        72.90271
630.59        72.49809
631.02        72.11314
631.45        71.68983
631.88        71.39098
632.31        71.26771
632.74        71.28195
633.17         71.3887
633.60        71.48371
634.03        71.53161
634.46        71.58441
634.89        71.62585
635.32        71.59485
635.75        71.50845
636.18        71.43011
636.61        71.40385
637.04        71.44688
637.47        71.56549
637.89        71.78599
638.32        72.00063
638.75        72.05578
639.18        71.92025
639.61        71.65283
640.04        71.34312
640.47        71.13087
640.90        71.06168
641.33        71.09071
641.76        71.15974
642.18        71.27483
642.61        71.40717
643.04        71.39558
643.47        71.20508
643.90        71.70301
644.33        71.41355
644.76        71.52592
645.18        71.57492
645.61        71.54552
646.04        71.41952
646.47        71.20111
646.90        71.01144
647.33         70.9878
647.75        71.17475
648.18        71.57679
648.61        71.95307
649.04        71.92099
649.47        71.43303
649.89         70.4942
650.32        69.56293
650.75        69.45744
651.18        70.14088
651.61        70.98156
652.03        71.56206
652.46        71.42066
652.89        70.98632
653.32        70.50175
653.74        70.29412
654.17         71.6167
654.60        72.45966
655.03        69.49654
655.46        70.49903
655.88        74.52066
656.31          80.246
656.74        183.1687
657.16        118.7564
657.59        41.75401
658.02        31.06034
658.45        53.78759
658.87        68.67086
659.30        71.65984
659.73          70.836
660.15        68.31762
660.58        70.81812
661.01        72.63575
661.44        70.40343
661.86        69.73367
662.29        69.80231
662.72        70.65706
663.14        72.01537
663.57        71.93027
664.00         70.6745
664.42        70.35143
664.85        71.04298
665.27        71.39355
665.70        71.23316
666.13        71.06089
666.55        70.86807
666.98        70.50072
667.41        70.10281
667.83         69.9696
668.26        70.15717
668.69        70.54354
669.11        70.91433
669.54        71.27673
669.96        70.90226
670.39        70.41994
670.82        69.85983
671.24        69.63943
671.67        69.85857
672.09        70.32734
672.52        70.75904
672.94        71.24577
673.37        70.56054
673.80        70.33276
674.22        70.28361
674.65        70.20333
675.07        70.09226
675.50        69.95824
675.92        69.86089
676.35        69.92628
676.77        70.16209
677.20        70.45261
677.62        70.73155
678.05        70.89684
678.47          70.906
678.90        70.79793
679.32        70.64803
679.75        70.44667
680.17        70.50519
680.60        70.57683
681.02        70.65279
681.45        70.56413
681.87        70.30173
682.30         69.9073
682.72        69.53094
683.15        69.50393
683.57        69.89936
684.00        70.38294
684.42        70.85501
684.85        71.52614
685.27        71.15264
685.70        70.81859
686.12        70.33643
686.54        70.04371
686.97        70.00152
687.39        70.14453
687.82        70.37486
688.24         70.5518
688.66        70.60761
689.09        70.59667
689.51        70.57791
689.94        70.61017
690.36        70.71964
690.78        70.86869
691.21        71.01199
691.63        71.09243
692.06        71.09599
692.48        71.04942
692.90         70.9972
693.33        70.98238
693.75        71.01591
694.17        71.11574
694.60        71.24005
695.02        71.23322
695.44        71.07063
695.87        71.11064
696.29        71.34877
696.71        71.06963
697.14        70.49745
697.56        70.98836
697.98        72.22308
698.41        72.24699
698.83        71.31672
699.25        70.77549
699.68         70.7929
700.10        70.68369
700.52        70.47677
700.94        70.55999
701.37        70.87408
701.79        71.20309
702.21        71.46146
702.64        71.71558
703.06        71.88783
703.48        71.84674
703.90        71.59779
704.33        71.17955
704.75        70.72932
705.17        70.56207
705.59        70.75417
706.01         71.1008
706.44        71.44592
706.86        72.15032
707.28         72.1793
707.70        72.32858
708.12        72.33363
708.55        72.23911
708.97        72.04732
709.39        71.75669
709.81        71.46458
710.23        71.32887
710.66        71.39265
711.08         71.6538
711.50        71.95685
711.92        72.06167
712.34        71.91335
712.76        71.56078
713.19        71.18497
713.61        71.11401
714.03        71.39819
714.45        71.93629
714.87        72.47063
715.29         72.5938
715.71        72.22926
716.13        71.52185
716.56         70.7454
716.98        70.36975
717.40        70.50954
717.82        71.01773
718.24        71.68102
718.66        72.13756
719.08        72.27059
719.50        72.17675
719.92        71.94182
720.34        71.76494
720.76        71.71919
721.19        71.45566
721.61        71.51013
722.03        71.52882
722.45        71.65929
722.87        71.88311
723.29        72.14792
723.71        72.34055
724.13        72.42151
724.55        72.41875
724.97        72.35164
725.39        72.26408
725.81         72.1769
726.23        72.07642
726.65        71.98792
727.07        71.94875
727.49        71.97034
727.91        72.06313
728.33        72.18163
728.75        72.24299
729.17        72.22465
729.59        72.13306
730.01        72.05802
730.43        72.13626
730.85        72.39345
731.27        72.81508
731.69        73.23444
732.10        73.36148
732.52         73.1395
732.94        72.69556
733.36        72.28185
733.78        72.16895
734.20          72.423
734.62        73.26006
735.04        74.34287
735.46        74.37906
735.88        73.57677
736.30        73.66953
736.72        74.66041
737.13        74.99603
737.55        74.48891
737.97        74.42424
738.39         74.8107
738.81        74.30998
739.23        73.28358
739.65        74.01409
740.06        76.03934
740.48        76.16319
740.90        74.51043
741.32        73.77203
741.74          74.183
742.16        74.36874
742.57         74.3717
742.99        74.97784
743.41        75.97057
743.83        76.54554
744.25        76.56606
744.67        76.23615
745.08        75.79723
745.50        75.64059
745.92        75.88468
746.34        76.39002
746.75         76.9624
747.17        77.27748
747.59        77.27644
748.01         77.0682
748.42        76.85767
748.84        76.97655
749.26        77.50627
749.68        78.22875
750.09        78.96558
750.51        79.62576
750.93        80.03497
751.35         79.7794
751.76        79.06882
752.18        78.80138
752.60        78.99232
753.01        78.94464
753.43        78.68358
753.85        78.76929
754.27        79.23137
754.68        79.83064
755.10        80.43503
755.52        80.97985
755.93        81.38508
756.35        81.61037
756.77        81.74068
757.18        81.79124
757.60         81.7717
758.02        82.04394
758.43        82.39314
758.85        81.69323
759.26        80.20341
759.68         80.2784
760.10        81.62063
760.51        81.99365
760.93        81.20853
761.34        80.15123
761.76        79.97649
762.18        79.61988
762.59        79.47377
763.01        79.68145
763.42        80.25957
763.84        80.81109
764.26        81.27051
764.67        81.64822
765.09        81.82481
765.50        81.80062
765.92        81.49363
766.33        80.28576
766.75        78.71404
767.16        78.25803
767.58        79.05642
768.00        80.56531
768.41        82.34852
768.83        83.35323
769.24        83.19913
769.66        82.45327
770.07        81.51963
770.49        80.13734
770.90         78.7488
771.32        79.50508
771.73        81.77834
772.15        81.35879
772.56        78.71086
772.97        78.34129
773.39        80.13456
773.80        80.79913
774.22         80.0963
774.63        80.00336
775.05        80.48335
775.46        80.65974
775.88        80.44673
776.29        80.09633
776.70        79.73558
777.12        79.59809
777.53        79.75162
777.95        80.07286
778.36         80.3878
778.77        80.39276
779.19        80.06742
779.60        79.51101
780.02        78.96815
780.43        78.90999
780.84        79.47579
781.26        80.05157
781.67        80.54418
782.09        81.77879
782.50        83.15082
782.91        82.12833
783.33         79.4791
783.74        78.55825
784.15        79.54906
784.57        80.38553
784.98        80.66743
785.39        80.59573
785.81        80.17268
786.22        79.66385
786.63        79.36128
787.04        79.39455
787.46        79.82145
787.87        80.73262
788.28        81.79276
788.70        82.29089
789.11        82.08443
789.52        81.41575
789.93        80.61536
790.35        80.13927
790.76        80.11843
791.17         80.4662
791.58        80.97984
792.00        81.26001
792.41        81.19027
792.82        80.92728
793.23        80.68181
793.65        80.49007
794.06        80.62567
794.47        81.80184
794.88        83.10098
795.29        83.61307
795.71        80.52074
796.12        78.33685
796.53        76.91602
796.94        76.61173
797.35        77.46741
797.76        78.87677
798.18         80.2336
798.59        81.18799
799.00        81.38523
799.41        80.55566
799.82        79.16323
800.23        78.29459
800.64        78.18083
801.06        78.41222
801.47         78.8885
801.88        79.34164
802.29        79.64559
802.70        79.93774
803.11        80.16725
803.52        80.20338
803.93         80.0461
804.34         79.6816
804.75        79.29377
805.17        79.25137
805.58        79.65907
805.99        80.24965
806.40        80.77012
806.81        81.18536
807.22        81.19556
807.63        80.04697
808.04        78.26328
808.45        77.42383
808.86        77.72195
809.27        78.43619
809.68        79.22945
810.09        79.74745
810.50        79.79659
810.91        79.50912
811.32        79.06175
811.73        78.73836
812.14        78.62525
812.55        78.58012
812.96        78.62472
813.37        78.80462
813.78        79.09716
814.19        79.55072
814.60        79.90443
815.01        79.74276
815.42        79.01826
815.83        77.80704
816.24        76.59818
816.65        76.25277
817.05        77.01146
817.46        78.59531
817.87        80.33152
818.28        81.01909
818.69        80.34392
819.10        78.62032
819.51        76.63696
819.92        75.72827
820.33        76.24441
820.74        77.77918
821.14        79.60026
821.55        80.40896
821.96         79.9069
822.37        78.54235
822.78        76.93887
823.19        76.01278
823.60        76.01536
824.00        76.69463
824.41        77.64922
824.82        78.31679
825.23        78.44865
825.64        78.26012
826.04        77.91381
826.45        77.62689
826.86        77.47431
827.27        77.33956
827.68        77.22623
828.08        77.20354
828.49        77.21439
828.90        77.32854
829.31        77.44923
829.72         77.3763
830.12        77.09949
830.53        76.65598
830.94        76.26812
831.35        76.23515
831.75        76.65357
832.16        77.38555
832.57        78.24892
832.97        78.84692
833.38        78.97986
833.79        78.75335
834.20        78.40785
834.60        78.31402
835.01         78.5778
835.42        79.06929
835.82        79.54823
836.23        79.53011
836.64        78.95766
837.04        78.03146
837.45        77.06299
837.86        76.54121
838.26        76.59779
838.67        77.03267
839.08        77.68201
839.48        78.23326
839.89        78.51501
840.29        78.64367
840.70        78.56792
841.11        78.18931
841.51         77.5492
841.92        76.64919
842.33        75.77362
842.73        75.41663
843.14         75.6452
843.54        76.36552
843.95        77.20004
844.35        77.56288
844.76        77.28635
845.17        76.57296
845.57        75.71358
845.98        75.16413
846.38        75.04713
846.79        75.18484
847.19        75.48058
847.60        75.67992
848.00        75.73122
848.41        75.71373
848.81        75.66068
849.22        75.52718
849.62        75.38197
850.03         75.2226
850.43         75.1921
850.84        75.47486
851.24        76.14275
851.65        76.95167
852.05        77.88573
852.46        78.73367
852.86        79.40492
853.27        79.98019
853.67        80.07609
854.07        79.23837
854.48        77.56241
854.88        75.22634
855.29        73.02968
855.69        72.12336
856.10        72.71658
856.50        74.69239
856.90        77.29668
857.31        78.77369
857.71        78.58101
858.12        77.15544
858.52        75.33989
858.92        74.24757
859.33        74.11741
859.73        74.64848
860.13        75.58251
860.54        76.38238
860.94        76.87812
861.34        77.19998
861.75        77.41165
862.15        77.69479
862.55        78.06111
862.96        78.41407
863.36        78.70583
863.76        78.84715
864.17        78.81991
864.57        78.71413
864.97        78.64136
865.38         78.7507
865.78        79.11357
866.18        79.61064
866.58        80.12952
866.99        80.46714
867.39        80.61517
867.79        80.65447
868.19         80.5273
868.60        80.12355
869.00        79.48971
869.40        78.67651
869.80        78.14105
870.21        78.56876
870.61        80.14476
871.01        82.63816
871.41        85.32906
871.81        86.97856
872.22        87.24238
872.62        86.44868
873.02        85.26499
873.42         84.9204
873.82        85.55219
874.22        86.53316
874.63          87.539
875.03        87.94688
875.43        87.43668
875.83        87.04204
876.23        85.59286
876.63        85.06173
877.03        85.42959
877.44        86.91727
877.84        103.1043
878.24        93.45594
878.64        93.40075
879.04        92.78595
879.44        88.78305
879.84        86.74859
880.24        90.38158
880.64        92.44627
881.04        93.55083
881.44         93.8555
881.84        92.71998
882.24        90.55169
882.65         88.5922
883.05        88.06836
883.45        89.18538
883.85        91.86729
884.25        95.15408
884.65         97.0543
885.05        96.93541
885.45        95.42149
885.85        93.56625
886.25        92.83717
886.65        93.54122
887.05        95.19269
887.45        97.11909
887.85        98.13847
888.25         97.8651
888.65        96.74532
889.04        95.28905
889.44        94.30176
889.84        94.00822
890.24        94.11591
890.64        94.43603
891.04        94.71752
891.44        94.84589
891.84        94.93807
892.24        94.94063
892.64         94.7075
893.04        94.29436
893.44        93.82096
893.83        93.43108
894.23        93.37275
894.63         93.6644
895.03        94.13509
895.43        94.89654
895.83        96.10491
896.23        97.66671
896.63        99.53983
897.02        100.9617
897.42        100.7148
897.82        98.69693
898.22        95.37331
898.62        92.04024
899.01        90.60071
899.41        91.41412
899.81        93.82035
900.21        96.73415
900.61        98.38346
901.00        98.27054
901.40        96.98221
901.80        95.18079
902.20        93.88765
902.59        93.43339
902.99        93.47173
903.39        93.77084
903.79         93.9687
904.18        93.93264
904.58        93.88323
904.98        93.91359
905.38        94.11707
905.77        94.48329
906.17        94.89827
906.57        95.29044
906.96        95.64243
907.36        95.87017
907.76        96.00172
908.15        95.97433
908.55        95.57229
908.95        94.84198
909.34        93.83456
909.74        92.84609
910.14        92.15269
910.53        91.86417
910.93        91.96844
911.33        92.36288
911.72        92.86208
912.12        93.28685
912.52        93.59641
912.91        93.87872
913.31        94.27306
913.70        94.84734
914.10        95.57957
914.49        96.13061
914.89        95.66537
915.29        94.08191
915.68        91.74978
916.08        89.74619
916.47        89.03825
916.87        89.68018
917.26        91.34941
917.66        93.20736
918.05        93.88796
918.45        93.04656
918.84        91.18888
919.24        89.16882
919.64        88.22441
920.03         88.7015
920.42        90.19998
920.82        92.21374
921.21        93.98809
921.61        95.00235
922.00        95.47499
922.40        95.43018
922.79        94.92143
923.19        94.09629
923.58        92.86605
923.98        91.32246
924.37        90.08041
924.77         89.6366
925.16        87.79214
925.55         88.7419
925.95        89.53681
926.34        91.34212
926.74        93.66057
927.13        95.97284
927.52        97.15386
927.92         97.0294
928.31        95.95059
928.70        94.21799
929.10        92.39228
929.49        90.70217
929.89        89.06146
930.28        87.94135
930.67        88.13387
931.07        89.59033
931.46         92.1221
931.85        94.69025
932.24        95.70321
932.64        94.83652
933.03        92.42374
933.42         89.1276
933.82         86.5317
934.21        85.24057
934.60        84.90711
934.99         85.1187
935.39        85.53061
935.78        86.07725
936.17        86.58714
936.56        86.75167
936.96        88.25528
937.35        87.04291
937.74        86.34167
938.13        85.66024
938.53        85.76298
938.92        86.68321
939.31        88.32513
939.70        90.20675
940.09        90.92384
940.49        90.01816
940.88        88.09862
941.27        86.06633
941.66        84.95943
942.05        84.92797
942.44        85.61685
942.84        86.72867
943.23        87.84278
943.62        88.66406
944.01        89.30637
944.40        89.71381
944.79        89.80625
945.18         89.5678
945.57        88.90443
945.97        87.89373
946.36        86.89745
946.75         86.2116
947.14         85.8827
947.53        85.77393
947.92         85.6343
948.31        85.42075
948.70        85.21863
949.09        85.14481
949.48        85.43792
949.87        86.12158
950.26        86.97509
950.65         87.8494
951.04        88.59084
951.43        89.11095
951.82        89.44379
952.21        89.32349
952.60        88.37356
952.99        86.63908
953.38        84.30996
953.77        82.03732
954.16        80.74667
954.55        80.61909
954.94        81.48544
955.33         82.6684
955.72         82.9907
956.11        82.15744
956.50        80.44913
956.89        78.72171
957.28        78.55009
957.66        80.41632
958.05         83.5667
958.44        86.88869
958.83         88.7649
959.22        88.78266
959.61        87.34574
960.00        85.24683
960.39         83.7789
960.78        83.34348
961.16        83.65833
961.55        84.01458
961.94        83.22598
962.33        81.13208
962.72        78.32374
963.11        75.80923
963.49        74.85612
963.88        75.66724
964.27        77.93594
964.66         80.8505
965.04        82.61742
965.43        82.42393
965.82        80.86781
966.21        78.97611
966.60        78.11399
966.98        78.55535
967.37        79.81184
967.76        81.32063
968.15        82.02171
968.53        81.57323
968.92        80.37671
969.31        78.94918
969.69        77.90381
970.08        77.40007
970.47        77.24884
970.86        77.22318
971.24        76.95948
971.63        76.35455
972.02        75.55858
972.40         74.8738
972.79        74.77854
973.17        75.50747
973.56        76.79952
973.95        78.31811
974.33        79.37663
974.72        79.59598
975.11        79.09513
975.49        78.29969
975.88        77.90273
976.26        78.01187
976.65        78.51928
977.04        78.85861
977.42        77.78914
977.81        75.14206
978.19        71.60932
978.58        68.87185
978.96        68.55048
979.35        70.83784
979.74        75.41358
980.12        81.39899
980.51        85.49309
980.89        86.50813
981.28        85.21262
981.66        82.81462
982.05        80.93371
982.43        79.97663
982.82        79.43491
983.20        79.45986
983.59        80.39642
983.97        82.32602
984.35        85.37177
984.74        88.71071
985.12        90.59734
985.51        89.91992
985.89        86.91003
986.28        82.62738
986.66         78.9344
987.04        76.80383
987.43        75.95763
987.81        75.69581
988.20        75.02831
988.58        73.56886
988.96        71.14869
989.35        68.45275
989.73        68.56553
990.12        72.98492
990.50        79.95763
990.88        85.47541
991.27        86.88955
991.65        84.79648
992.03        80.01394
992.42        74.64773
992.80        72.48243
993.18         74.4992
993.56        78.59089
993.95        82.77946
994.33        85.28971
994.71         85.7416
995.10        85.16068
995.48        83.57552
995.86        80.74355
996.24        76.73501
996.63        71.16011
997.01        65.33145
997.39        63.24588
997.77         66.5629
998.15        74.36917
998.54        82.87158
998.92        86.86529
999.30        84.84763
999.68        78.09229
1000.06        68.53086
1000.45        61.13063
1000.83        58.16795
1001.21        58.14634
1001.59        60.03893
1001.97        62.81791
1002.35        66.10207
1002.73        70.80437
1003.12        75.75385
1003.50        76.81326
1003.88        72.28718
1004.26        64.26493
1004.64         56.4169
1005.02        51.70155
1005.40        50.18433
1005.78        51.24361
1006.16         56.1874
1006.54        64.94836
1006.92        72.97045
1007.30         78.0917
1007.69        80.63067
1008.07        82.09969
1008.45        83.32793
1008.83        84.19392
1009.21        83.31918
1009.59        72.82755
1009.97        29.56176
1010.35       -48.79298
1010.73       -53.90924
1011.11       -14.28221
1011.49        18.43853
1011.86         43.5386
1012.24         58.1706
1012.62        64.13228
1013.00        64.70124
1013.38        61.15644
1013.76        56.16475
1014.14        59.02938
1014.52        77.52697
1014.90        113.9382
1015.28        158.3313
1015.66        181.4047
1016.04        165.4955
1016.41        116.5538
1016.79        61.94265
1017.17        32.00029
1017.55        26.22717
1017.93        30.38592
1018.31        37.42502
1018.69        44.18842
1019.06        50.90619
1019.44        59.48687
1019.82        72.43022
1020.20        90.82064
1020.58        115.0128
1020.95        146.5106
1021.33        190.4717
1021.71       -332.0635
1022.09        93.67542
1022.46        120.3575
1022.84        132.6037
1023.22        145.9657
1023.60        175.3828
1023.97        449.4924
1024.35       -10.69369
1024.73         44.8576
