SpectraSmart Spectrum 2.9.0.0
--------- Device Information -----------
Spectrum Name :  反射率_0
Saving Time :  2024/04/26 01:37:20
Spectro-Module Model Name : SE2030-DUVN
Spectro-Module Serial Number : OS361AC55029948
Wavelength Start : 200
Wavelength End : 1025
Wavelength Unit : Wavelength(nm)
Spectrum Unit : Reflectance(%)
-----------Spectrum Setting ------------
Integration Time : 20ms
Average : 10
Boxcar : 0
Background removal :  enabled
linearity correction :  enabled
SC :  disabled
Intensity correction :  disabled
DWT denoise :  enabled
savitzky-golay :  disabled
FFT :  disabled
Running average :  disabled
Kalman :  disabled
High pass :  disabled
---------------BEGIN--------------------
Wavelength(nm)             Reflectance(%)
200.29               0
200.75        92.78139
201.21        83.59662
201.67        73.33311
202.13        66.90342
202.58        64.89081
203.04        66.33906
203.50        69.52468
203.96        71.43259
204.42        71.23014
204.88        69.94209
205.34        68.86987
205.80        69.50291
206.26        72.67374
206.72        80.10004
207.18        94.47639
207.64         106.526
208.10        97.20353
208.55        79.24908
209.01        68.20102
209.47        64.93388
209.93        66.23179
210.39        70.67845
210.85        75.64635
211.31        75.59997
211.77        69.07347
212.23        58.27953
212.69        47.97786
213.14        45.45576
213.60        51.79868
214.06         64.8893
214.52        79.66509
214.98        88.31118
215.44        88.82384
215.90        83.69833
216.36        76.37521
216.81        71.65288
217.27        70.84986
217.73        72.15454
218.19        73.25429
218.65        71.06848
219.11        64.37379
219.57         52.6266
220.02        37.02508
220.48        26.19818
220.94        25.75617
221.40        34.02166
221.86        43.46915
222.32        45.82034
222.77        41.38991
223.23        34.21059
223.69         28.1516
224.15          27.163
224.61        30.78732
225.06        36.97663
225.52        42.87261
225.98        45.02475
226.44        42.88822
226.90        38.14319
227.36        32.76406
227.81        29.33236
228.27        28.76046
228.73        29.97903
229.19        32.29276
229.65        34.66211
230.10        36.54433
230.56        38.11304
231.02        39.30222
231.48        39.98996
231.93        40.23515
232.39        40.09351
232.85        39.65451
233.31        39.13387
233.77        38.59717
234.22        37.96639
234.68        37.38862
235.14        37.05493
235.60        37.03849
236.05        37.39163
236.51        37.81363
236.97        37.77869
237.43        37.20843
237.88        36.20614
238.34         35.2947
238.80        35.90002
239.26        38.66965
239.71        43.35256
240.17        48.76645
240.63        53.22036
241.08        56.11087
241.54         57.5378
242.00         58.3718
242.46        60.26154
242.91        64.73969
243.37        74.75756
243.83        102.2409
244.28        176.3304
244.74        233.2697
245.20        168.9854
245.66        126.1189
246.11        114.9904
246.57        120.8991
247.03        150.6779
247.48        248.3653
247.94        226.1077
248.40        127.8301
248.85        94.65774
249.31        83.77013
249.77        81.54131
250.22        83.80195
250.68         89.7482
251.14        98.72195
251.59        103.7361
252.05        98.69763
252.51        87.52444
252.96        76.20786
253.42        70.13751
253.88        68.72253
254.33        69.76041
254.79        73.18964
255.25        78.28036
255.70        83.67476
256.16        89.18429
256.62        92.62428
257.07        91.78872
257.53        87.74227
257.99        81.38401
258.44         75.0645
258.90        72.42884
259.35         72.4626
259.81        73.71048
260.27         73.8546
260.72        70.67834
261.18         65.0995
261.63        58.22849
262.09        51.98452
262.55        47.89175
263.00        45.88002
263.46         45.2183
263.91        44.84081
264.37        43.89692
264.83        42.18589
265.28        39.95119
265.74        37.77794
266.19        36.30206
266.65        35.74432
267.11        35.70994
267.56        35.71948
268.02        35.20859
268.47        34.05681
268.93        32.47814
269.38        30.71428
269.84        29.40258
270.30        28.72618
270.75        28.51006
271.21         28.4864
271.66          28.256
272.12        27.69525
272.57          26.947
273.03        26.18297
273.48        25.56992
273.94        25.18816
274.39        24.93876
274.85        24.75042
275.31        24.52477
275.76        24.21723
276.22        23.87037
276.67        23.51477
277.13         23.2762
277.58        23.11922
278.04        23.02678
278.49        22.86021
278.95         22.4774
279.40        21.84708
279.86        21.08498
280.31        20.29912
280.77        19.75488
281.22        19.46535
281.68        19.36863
282.13        19.35792
282.59        19.30157
283.04        19.16311
283.50        19.02211
283.95        18.87236
284.41        18.71503
284.86        18.56013
285.32        18.40559
285.77        18.33987
286.22        18.55684
286.68        19.03928
287.13         19.6888
287.59         20.2887
288.04        20.51582
288.50        20.33493
288.95        19.84017
289.41        19.24981
289.86        18.79299
290.32        18.59586
290.77        18.59034
291.22        18.74034
291.68        18.94903
292.13        19.19901
292.59        19.52992
293.04        20.00134
293.50        20.69534
293.95        21.59791
294.40         22.6378
294.86        23.69124
295.31         24.5909
295.77        25.30889
296.22        25.90033
296.68        26.46147
297.13        27.11842
297.58        27.93047
298.04        28.88007
298.49        29.94833
298.95        31.14712
299.40        32.46017
299.85        33.88808
300.31        35.38975
300.76        36.89503
301.21        38.34774
301.67        39.76505
302.12        41.09511
302.58        42.35897
303.03        43.54602
303.48        44.67791
303.94        45.85386
304.39        47.17103
304.84        48.65739
305.30        50.28275
305.75        51.89538
306.20        53.28059
306.66          54.417
307.11        55.33305
307.57        56.21004
308.02        57.21698
308.47        58.43974
308.93        59.82009
309.38        61.23972
309.83         62.5583
310.29        63.71748
310.74        64.73014
311.19        65.65617
311.65        66.58878
312.10        67.54606
312.55        68.51241
313.00        69.39546
313.46         70.0542
313.91          70.451
314.36        70.64868
314.82        70.83149
315.27        71.23833
315.72        71.94904
316.18        72.89539
316.63          73.907
317.08        74.66179
317.53        75.06787
317.99        75.19843
318.44        75.26382
318.89         75.6113
319.35         76.2999
319.80        77.24884
320.25        78.17287
320.70        78.60032
321.16        78.43389
321.61        77.83727
322.06        77.14993
322.51        76.90057
322.97        77.19708
323.42        77.90984
323.87        78.76341
324.32         79.2833
324.78        79.31842
325.23        79.05062
325.68        78.66003
326.13         78.4614
326.59        78.53879
327.04        78.81711
327.49        79.20984
327.94        79.60733
328.39        79.95865
328.85        80.28738
329.30        80.63593
329.75        80.92372
330.20        81.15432
330.66        81.32497
331.11        81.53563
331.56        81.88602
332.01         82.4151
332.46        83.08109
332.92        83.82767
333.37        84.70413
333.82        85.60987
334.27        86.53627
334.72        87.34246
335.17        87.80729
335.63        87.89294
336.08        87.69718
336.53        87.42397
336.98        87.44801
337.43        87.86746
337.88        88.57859
338.34        89.41531
338.79        90.18099
339.24        90.75791
339.69        91.23289
340.14        91.58925
340.59        91.79613
341.05         91.8784
341.50        91.82028
341.95        91.77268
342.40         91.9901
342.85        92.51708
343.30        93.29634
343.75        94.12233
344.20        94.62173
344.66        94.70696
345.11        94.47086
345.56        94.12437
346.01        93.99122
346.46        94.15378
346.91         94.5101
347.36        94.92368
347.81        95.18424
348.26        95.24416
348.72        95.20366
349.17        95.12415
349.62        95.15562
350.07        95.32684
350.52        95.55479
350.97         95.7954
351.42        95.99377
351.87        96.12206
352.32        96.21447
352.77        96.20526
353.22        95.98604
353.67        95.56581
354.13        94.99859
354.58        94.43331
355.03        94.16525
355.48        94.23741
355.93        94.54607
356.38        94.88734
356.83        94.93176
357.28        94.59251
357.73          93.978
358.18        93.20707
358.63        92.47101
359.08        91.84778
359.53        91.28661
359.98        90.78748
360.43        90.35345
360.88        89.96246
361.33        89.60858
361.78        89.25726
362.23        88.84045
362.68        88.34475
363.13         87.8035
363.58        87.19763
364.03        86.50073
364.48        85.73019
364.93        84.89562
365.38        84.12319
365.83        83.61684
366.28        83.39771
366.73        83.38754
367.18        83.40207
367.63        83.13767
368.08        82.52705
368.53        81.68565
368.98        80.74387
369.43        79.89734
369.88        79.21464
370.33        78.63561
370.78        78.17428
371.23        77.85732
371.68         77.6689
372.13        77.60688
372.58        77.58077
373.03         77.4251
373.48        77.10387
373.93        76.66556
374.38        76.18568
374.83         75.7888
375.28        75.50425
375.72        75.26916
376.17        75.08774
376.62        74.94119
377.07        74.80068
377.52        74.66041
377.97        74.44855
378.42        74.05103
378.87        73.46839
379.32        72.76609
379.77        72.03194
380.22        71.38541
380.67        70.85361
381.11        70.39975
381.56        70.02285
382.01        69.72417
382.46        69.50046
382.91        69.37333
383.36        69.26092
383.81        69.03082
384.26        68.66407
384.71        68.17973
385.15         67.7082
385.60        67.51584
386.05        67.59378
386.50        67.85164
386.95        68.07251
387.40        67.89706
387.85        67.29379
388.29        66.41293
388.74        65.56968
389.19        64.95514
389.64         64.6032
390.09        64.39765
390.54        64.34502
390.98        64.45557
391.43          64.694
391.88        65.04241
392.33        65.29346
392.78        65.13551
393.23        64.57368
393.67        63.70952
394.12        62.90989
394.57        62.49743
395.02        62.53963
395.47        62.90829
395.91        63.47169
396.36        63.89688
396.81        64.07289
397.26        64.05869
397.71        63.88786
398.15        63.54342
398.60        63.14344
399.05        62.75415
399.50        62.39828
399.95        61.83621
400.39         61.4214
400.84        61.16822
401.29        61.15526
401.74        61.30482
402.18        61.52269
402.63        61.49632
403.08        61.31483
403.53        61.39353
403.97        61.74213
404.42        62.08925
404.87        62.28316
405.32        62.18843
405.76        61.77015
406.21        61.14881
406.66        60.50647
407.11        60.11764
407.55        60.07794
408.00        60.25471
408.45        60.54388
408.90        60.89444
409.34        61.09341
409.79        60.70763
410.24        59.96765
410.68        59.64923
411.13        59.83487
411.58         60.1062
412.03          60.387
412.47        60.72141
412.92        61.01164
413.37        61.27058
413.81        61.43209
414.26        61.43486
414.71        61.26374
415.15        60.93058
415.60        60.55078
416.05        60.33204
416.49        60.33045
416.94        60.51562
417.39        60.73173
417.83        60.69293
418.28        60.35851
418.73        59.83076
419.17         59.3393
419.62        59.24779
420.07        59.58782
420.51        60.22825
420.96        60.92633
421.41        61.21863
421.85         60.9724
422.30        60.58837
422.74          60.168
423.19        59.58362
423.64        59.05016
424.08        59.37463
424.53        60.37049
424.98        60.93521
425.42        60.92009
425.87        61.02631
426.31        61.29678
426.76        61.22453
427.21        60.99669
427.65        61.33079
428.10        62.10865
428.54        62.76074
428.99         63.2356
429.44        63.35542
429.88        63.21964
430.33        63.95296
430.77        64.92967
431.22        64.00237
431.66        61.70698
432.11        60.43061
432.56        60.52607
433.00        61.65976
433.45        63.48706
433.89        65.02114
434.34        65.12845
434.78        65.93881
435.23        62.61705
435.67        61.51478
436.12        63.58472
436.57        64.70837
437.01        65.14259
437.46        65.38783
437.90         65.6088
438.35        65.03542
438.79        65.34933
439.24        65.16379
439.68        65.02004
440.13        64.71619
440.57        64.56967
441.02        65.55675
441.46        67.23757
441.91        68.14568
442.35        68.00669
442.80        67.09628
443.24        65.92848
443.69        66.42787
444.13        68.15804
444.58        68.75128
445.02        66.84312
445.47        66.76559
445.91        67.99454
446.36        68.40971
446.80        67.90996
447.24        67.77022
447.69        68.14104
448.13        67.83385
448.58        68.40108
449.02        68.63814
449.47        68.93896
449.91         69.1848
450.36         69.3577
450.80        69.44339
451.25        69.43013
451.69        69.31601
452.13        69.13017
452.58        68.88383
453.02        68.65269
453.47        68.59324
453.91        68.71445
454.36        68.97778
454.80          69.272
455.24        69.34341
455.69        69.15952
456.13        68.86537
456.58        68.60084
457.02        68.26835
457.46        68.03536
457.91        68.28655
458.35        68.84195
458.79        69.06541
459.24        68.91918
459.68        68.68692
460.13        68.44132
460.57        68.14198
461.01        67.87316
461.46        67.43475
461.90        67.11034
462.34        67.20869
462.79        67.15662
463.23        67.41639
463.68        67.69813
464.12        67.92149
464.56        68.01949
465.01        68.02361
465.45        67.87484
465.89        67.75625
466.34        67.57339
466.78        66.81324
467.22        65.98658
467.67        65.21465
468.11        66.90451
468.55        67.33781
468.99        67.03205
469.44        66.52305
469.88        66.06064
470.32        66.12823
470.77        66.59153
471.21        66.65612
471.65        66.25735
472.10        66.01185
472.54        66.01109
472.98        66.05872
473.42        66.14558
473.87        66.52345
474.31        66.97449
474.75        66.75757
475.20         66.0385
475.64        65.85834
476.08         66.2548
476.52        66.26153
476.97        65.83022
477.41        66.21702
477.85        66.37017
478.29        66.12326
478.74        66.44296
479.18         66.2618
479.62        65.31976
480.06        65.78117
480.50        66.04437
480.95        66.51913
481.39        66.78922
481.83        65.76351
482.27        66.25922
482.72        65.85522
483.16        64.96609
483.60        64.81228
484.04        66.49776
484.48        66.72094
484.93         66.2552
485.37        67.82053
485.81        68.60552
486.25        66.78053
486.69        90.43948
487.14        73.41742
487.58        45.94656
488.02         56.2894
488.46        63.88017
488.90        63.66967
489.34         65.4954
489.79         64.4965
490.23        66.43908
490.67        67.07634
491.11        66.14294
491.55        66.12357
491.99        66.61932
492.43        66.49631
492.88        65.83157
493.32        65.84941
493.76        66.06361
494.20        66.32959
494.64        66.42226
495.08        66.53236
495.52        66.68758
495.96        66.72143
496.41        66.60091
496.85        66.83971
497.29        67.28601
497.73        66.41718
498.17        65.03818
498.61        65.33885
499.05        67.32185
499.49        67.70603
499.93        67.96352
500.37        67.73129
500.82        66.96762
501.26        67.03316
501.70        67.64573
502.14        67.86729
502.58         67.5655
503.02        67.34838
503.46        67.22352
503.90        66.83602
504.34        66.33752
504.78        66.13373
505.22        66.27757
505.66        66.65771
506.10        67.10275
506.54        67.32032
506.98        67.23051
507.42        66.93034
507.86         66.5799
508.30        66.42007
508.74         66.5133
509.18          66.773
509.62        67.08295
510.06        67.25752
510.50        67.24493
510.94        67.11477
511.38        66.94142
511.82         66.8399
512.26         66.8579
512.70        66.91787
513.14        66.97871
513.58        67.10857
514.02         67.3126
514.46         67.0842
514.90        67.32327
515.34        67.30655
515.78        67.28803
516.22        67.30939
516.66        67.37095
517.10        67.27194
517.54         67.0028
517.98        67.25764
518.42        67.10027
518.86         67.2231
519.30        67.33965
519.74        67.51704
520.18        67.70847
520.62        67.82648
521.06        67.86189
521.50        67.83665
521.93        67.76891
522.37        67.68898
522.81        67.61871
523.25        67.55151
523.69        67.51883
524.13         67.5686
524.57         67.7027
525.01        67.90516
525.45        68.11768
525.89        68.24442
526.32        68.25208
526.76        68.16278
527.20        68.02152
527.64         67.9201
528.08        67.89907
528.52        67.87966
528.96        67.80162
529.40        67.76135
529.83        67.78662
530.27         67.1701
530.71        67.30019
531.15        67.20181
531.59        67.28765
532.03         67.4772
532.46        67.74774
532.90        68.02967
533.34        68.27074
533.78        68.48776
534.22        68.62091
534.66        68.58991
535.09        68.38493
535.53        68.05795
535.97        67.70036
536.41        67.48079
536.85        67.44482
537.28          67.553
537.72         67.7215
538.16        67.82098
538.60        67.81272
539.04         67.6822
539.47        67.48759
539.91         67.4976
540.35        67.65755
540.79        67.65369
541.22         67.4809
541.66        67.40572
542.10        67.42727
542.54        67.38934
542.97        67.32013
543.41        67.36501
543.85        67.51706
544.29        67.74622
544.72        67.95238
545.16        67.98721
545.60        67.81116
546.04        67.53547
546.47        67.28594
546.91        67.10844
547.35        67.12115
547.79        67.66103
548.22        68.42627
548.66        68.61417
549.10        68.12995
549.53        67.31673
549.97        66.52581
550.41        66.15317
550.84        66.30032
551.28        66.85583
551.72        67.58537
552.15        67.98421
552.59        67.91113
553.03        67.94388
553.46        67.44901
553.90        67.33053
554.34        67.42448
554.77         67.5619
555.21        67.65366
555.65        67.84211
556.08        68.11645
556.52        67.52929
556.96        67.71554
557.39        67.55162
557.83        67.55025
558.27        67.57031
558.70        67.63754
559.14        67.79951
559.57        68.01015
560.01        68.27725
560.45          68.498
560.88        68.48647
561.32        68.25969
561.75        67.91238
562.19        67.58231
562.63        67.23586
563.06         66.9781
563.50        67.13148
563.93        67.56226
564.37         67.7917
564.80        67.74581
565.24         67.7021
565.68        67.67036
566.11        67.61592
566.55        67.60516
566.98         67.5137
567.42        67.41974
567.85        67.69796
568.29        68.26495
568.72          68.328
569.16        68.09851
569.60        68.37858
570.03        68.83902
570.47        68.79337
570.90        68.57896
571.34        66.57647
571.77        67.61847
572.21        67.52982
572.64        67.22141
573.08        65.81451
573.51         63.4812
573.95        65.93312
574.38        69.95642
574.82        68.04041
575.25        67.43781
575.69        65.46494
576.12        64.13205
576.56        63.76688
576.99        65.09837
577.42        68.12061
577.86        68.16781
578.29        67.38481
578.73        70.98041
579.16        65.44825
579.60        60.06583
580.03        62.74394
580.47         66.7595
580.90        68.04908
581.33        66.78472
581.77        65.89276
582.20        72.57577
582.64        72.11174
583.07        61.64408
583.51        60.50391
583.94        59.62356
584.37        62.34983
584.81        65.38823
585.24        68.82326
585.68        70.58722
586.11        68.96647
586.54        64.43011
586.98        62.66539
587.41        62.95473
587.85        66.50916
588.28         68.9221
588.71        65.69322
589.15        63.42373
589.58        64.90659
590.01        64.92587
590.45        66.15553
590.88        66.79675
591.31        66.25524
591.75         65.9651
592.18        66.07594
592.61        67.39441
593.05        68.14142
593.48        70.44732
593.91        70.97005
594.35        65.45864
594.78        64.05574
595.21        63.64342
595.65        66.52692
596.08        69.27174
596.51        66.62891
596.94        64.90372
597.38        65.54316
597.81        68.04542
598.24        69.94624
598.68        68.15562
599.11        67.18146
599.54        69.52702
599.97        71.01601
600.41        65.97679
600.84        66.15912
601.27         67.6694
601.70        66.57507
602.14        66.89458
602.57        65.80888
603.00        66.04735
603.43        67.45358
603.87        69.06346
604.30        68.70019
604.73        66.72305
605.16          65.552
605.60        66.42684
606.03         67.5272
606.46        68.62012
606.89        67.70135
607.32        66.53505
607.76        65.99038
608.19        68.39828
608.62        67.39333
609.05        66.18551
609.48        66.77417
609.92         66.8922
610.35        66.41891
610.78        68.44352
611.21        69.00092
611.64         66.0382
612.07        66.75411
612.50        67.11792
612.94        67.56227
613.37        67.08102
613.80        67.15717
614.23        67.64269
614.66        67.60415
615.09        67.93517
615.52        67.97396
615.96        67.81231
616.39        68.02625
616.82        66.83794
617.25        66.71035
617.68        67.08505
618.11        67.74837
618.54        68.30623
618.97        67.91982
619.40        67.03987
619.84        66.44473
620.27        67.87275
620.70        68.57735
621.13        68.82134
621.56         68.2428
621.99        67.18449
622.42        67.83652
622.85        69.68077
623.28        69.44227
623.71        68.56364
624.14        68.61064
624.57        68.19787
625.00        68.27441
625.43         68.3929
625.86        67.81002
626.29         67.7578
626.72        68.77464
627.15        68.12339
627.58        68.35493
628.01        68.52605
628.44        68.66144
628.87        68.81026
629.30        69.07603
629.73        69.34247
630.16         70.0037
630.59        69.23818
631.02        68.80566
631.45        68.35305
631.88        67.98246
632.31        67.72494
632.74         68.0563
633.17        68.04977
633.60        68.24468
634.03        68.33318
634.46        68.38175
634.89        68.38757
635.32        68.36488
635.75        68.33117
636.18        68.25729
636.61        68.17625
637.04        68.15261
637.47        68.19543
637.89          68.301
638.32         68.3997
638.75        68.41727
639.18        68.33523
639.61        68.18535
640.04        68.01235
640.47        67.88548
640.90        67.83064
641.33        67.82409
641.76        67.83223
642.18        67.89803
642.61        68.00848
643.04         67.9987
643.47        67.83089
643.90        68.32574
644.33        68.07227
644.76        68.20365
645.18        68.27293
645.61        68.26163
646.04        68.14622
646.47        67.92427
646.90        67.70852
647.33        67.63118
647.75        67.74754
648.18        68.06699
648.61        68.35921
649.04        68.31546
649.47        67.89024
649.89        66.92481
650.32        65.92802
650.75        66.06216
651.18        67.20242
651.61        68.16673
652.03        68.52534
652.46        68.34119
652.89         68.0553
653.32        67.45926
653.74        66.84999
654.17        68.18443
654.60        69.25259
655.03        65.97922
655.46        67.37055
655.88        71.15988
656.31        75.19771
656.74        166.5925
657.16        108.1522
657.59        38.23881
658.02        29.25965
658.45        50.89717
658.87         64.9791
659.30        68.57874
659.73        67.50912
660.15        65.40333
660.58        67.79607
661.01         69.4349
661.44        67.10175
661.86        66.35022
662.29        66.43061
662.72         67.2326
663.14        68.48601
663.57        68.40646
664.00        67.25981
664.42        67.02708
664.85        67.78252
665.27        68.23474
665.70        68.18279
666.13        68.04611
666.55        67.80806
666.98        67.34104
667.41        66.82619
667.83        66.61488
668.26        66.78193
668.69         67.1959
669.11        67.62178
669.54        68.01309
669.96        67.65844
670.39        67.17217
670.82        66.60715
671.24        66.39875
671.67        66.64994
672.09        67.16554
672.52        67.63912
672.94        68.11251
673.37        67.40357
673.80        67.08318
674.22        66.92574
674.65        66.79948
675.07        66.72215
675.50        66.68437
675.92        66.69015
676.35         66.7746
676.77        66.92466
677.20        67.06205
677.62        67.19059
678.05        67.29287
678.47        67.34615
678.90        67.47439
679.32        67.46651
679.75        67.35814
680.17        67.35806
680.60        67.27032
681.02        67.16528
681.45        66.99998
681.87        66.79502
682.30        66.58641
682.72        66.44718
683.15        66.44666
683.57        66.64222
684.00        67.03302
684.42        67.63853
684.85        67.93475
685.27        67.89503
685.70        67.68154
686.12        67.38597
686.54        67.16403
686.97        67.05907
687.39        67.04543
687.82        67.06549
688.24        67.07677
688.66        67.04307
689.09        66.98996
689.51        66.96384
689.94        67.00518
690.36        67.12767
690.78        67.30454
691.21        67.47488
691.63        67.55284
692.06        67.52181
692.48        67.41265
692.90        67.29704
693.33        67.27533
693.75        67.37412
694.17        67.56878
694.60        67.79137
695.02         67.9295
695.44        67.91987
695.87        67.90673
696.29        67.94701
696.71        67.72649
697.14        67.39471
697.56        67.81475
697.98        68.74547
698.41        68.52235
698.83        67.85619
699.25        67.42717
699.68        67.50746
700.10        67.49661
700.52        67.40945
700.94        67.58998
701.37         67.9579
701.79        68.28259
702.21         68.4763
702.64        68.61393
703.06        68.65115
703.48        68.50658
703.90        68.20229
704.33        67.77291
704.75        67.33159
705.17        67.14429
705.59         67.2703
706.01        67.52364
706.44        67.78155
706.86        68.39279
707.28        68.37617
707.70        68.58081
708.12        68.70464
708.55        68.47693
708.97        68.00333
709.39          67.839
709.81        68.00845
710.23        68.05137
710.66        67.95854
711.08         68.0648
711.50        68.28812
711.92        68.35296
712.34        68.22906
712.76        67.98053
713.19        67.73003
713.61        67.70638
714.03        67.94106
714.45        68.35829
714.87        68.77631
715.29        68.91228
715.71        68.70749
716.13        68.25396
716.56        67.73416
716.98        67.47246
717.40        67.54514
717.82        67.85442
718.24        68.24863
718.66        68.46983
719.08        68.44274
719.50         68.2516
719.92        67.98572
720.34        67.80271
720.76        67.75433
721.19        67.67702
721.61        67.76088
722.03        67.84235
722.45        67.96235
722.87        68.12546
723.29        68.30312
723.71        68.43579
724.13        68.50394
724.55         68.5127
724.97        68.48692
725.39        68.47694
725.81        68.49648
726.23        68.53343
726.65        68.56786
727.07        68.56542
727.49        68.52441
727.91        68.46714
728.33        68.41793
728.75        68.41477
729.17        68.46439
729.59        68.54386
730.01        68.65025
730.43        68.77105
730.85        68.90028
731.27        69.06733
731.69        69.21444
732.10        69.22705
732.52        69.09043
732.94        68.87656
733.36        68.72181
733.78        68.71654
734.20        68.88033
734.62        69.46786
735.04        70.25813
735.46        70.19066
735.88        69.50252
736.30        69.77881
736.72         70.9347
737.13        71.35608
737.55        70.82374
737.97        70.55692
738.39        70.66004
738.81        70.15688
739.23        69.36512
739.65        70.08029
740.06        71.87538
740.48        72.03362
740.90        70.67257
741.32          70.164
741.74        70.68619
742.16        70.93295
742.57        70.92789
742.99        71.41277
743.41        72.24403
743.83        72.76653
744.25         72.8762
744.67        72.73972
745.08        72.51961
745.50        72.47181
745.92        72.68185
746.34        73.05956
746.75        73.47586
747.17        73.70902
747.59        73.72385
748.01        73.58891
748.42        73.47514
748.84        73.63605
749.26        74.12547
749.68        74.83492
750.09        75.57111
750.51        76.01781
750.93        76.10409
751.35        75.86833
751.76        75.45737
752.18        75.28397
752.60        75.33311
753.01        75.21293
753.43        74.98399
753.85        75.03574
754.27        75.38314
754.68        76.16045
755.10        76.63037
755.52        77.18942
755.93        77.57466
756.35        77.75936
756.77        77.83829
757.18        77.85075
757.60        77.82273
758.02        78.11497
758.43        78.49433
758.85        77.76688
759.26        76.38997
759.68        76.29613
760.10        77.31625
760.51        77.85217
760.93         77.6585
761.34          76.309
761.76        76.19446
762.18        75.63619
762.59        75.47397
763.01        75.94728
763.42        76.98606
763.84        77.68232
764.26        77.87668
764.67        78.04272
765.09        78.10245
765.50        77.67358
765.92        76.86306
766.33        75.77444
766.75        74.82145
767.16        74.68605
767.58        75.44528
768.00        76.98787
768.41         78.8965
768.83        79.98684
769.24        79.86813
769.66        79.00829
770.07         77.8955
770.49        76.61588
770.90        75.54375
771.32        76.35977
771.73        78.43301
772.15        77.97427
772.56        75.43055
772.97        74.96366
773.39        76.49594
773.80        77.03357
774.22         76.3802
774.63        76.37515
775.05        76.94836
775.46        77.20153
775.88        77.03058
776.29        76.70102
776.70        76.34598
777.12        76.20454
777.53        76.34898
777.95        76.64922
778.36        76.94679
778.77        76.96801
779.19        76.68782
779.60        76.19631
780.02        75.69846
780.43         75.5781
780.84        75.95601
781.26        76.32896
781.67        76.64389
782.09        77.59101
782.50        78.70125
782.91        77.91055
783.33        75.82103
783.74        75.15458
784.15        76.04494
784.57        76.67149
784.98        76.75949
785.39        76.79184
785.81        76.70675
786.22        76.25505
786.63        75.73446
787.04        75.70412
787.46        76.22627
787.87        77.13058
788.28        78.11158
788.70        78.63619
789.11        78.57023
789.52        78.09721
789.93        77.47915
790.35        77.07485
790.76        76.98931
791.17        77.16021
791.58        77.45522
792.00         77.5749
792.41        77.42973
792.82         77.2299
793.23        77.14441
793.65        76.81494
794.06         76.5202
794.47        77.66786
794.88        79.47729
795.29        79.11987
795.71        76.81508
796.12        74.69477
796.53        73.45347
796.94        73.23459
797.35        74.07799
797.76        75.40516
798.18        76.62207
798.59        77.46518
799.00        77.60529
799.41        76.77129
799.82        75.40485
800.23        74.53905
800.64        74.39411
801.06        74.58717
801.47        75.02593
801.88        75.45611
802.29        75.75742
802.70        76.05423
803.11        76.30158
803.52        76.38456
803.93        76.29895
804.34        76.02099
804.75        75.70245
805.17        75.66858
805.58        76.01778
805.99        76.48093
806.40        76.83703
806.81        77.17544
807.22        77.18697
807.63        75.94896
808.04        74.03686
808.45        73.23247
808.86        73.73647
809.27        74.73689
809.68        75.78729
810.09         76.3763
810.50        76.26139
810.91        75.60974
811.32        74.75937
811.73        74.25679
812.14        74.25381
812.55        74.54932
812.96        74.99966
813.37        75.34438
813.78        75.47585
814.19        75.54399
814.60        75.47322
815.01        75.12183
815.42        74.50661
815.83        73.61889
816.24        72.80673
816.65        72.69186
817.05        73.43502
817.46        74.82697
817.87        76.31377
818.28        76.89209
818.69        76.30812
819.10        74.82001
819.51        73.09983
819.92        72.29518
820.33        72.70836
820.74        73.98976
821.14        75.54079
821.55        76.28112
821.96        75.95463
822.37        74.92904
822.78        73.67313
823.19        72.87083
823.60        72.72125
824.00        73.04315
824.41        73.56103
824.82         73.9476
825.23        74.04461
825.64        73.98821
826.04        73.86688
826.45        73.78417
826.86         73.7699
827.27        73.74744
827.68        73.69295
828.08        73.62074
828.49        73.47524
828.90        73.32784
829.31        73.16541
829.72        72.95145
830.12        72.72723
830.53        72.49459
830.94        72.37904
831.35        72.53662
831.75        73.02243
832.16        73.72046
832.57        74.51029
832.97        75.11082
833.38        75.34863
833.79        75.28577
834.20         75.0462
834.60        74.82808
835.01        74.72026
835.42        74.66608
835.82        74.58648
836.23        74.27566
836.64         73.7499
837.04        73.11633
837.45        72.55428
837.86        72.33909
838.26        72.53289
838.67        73.00842
839.08        73.61214
839.48        74.05709
839.89        74.20391
840.29        74.14229
840.70         73.9152
841.11         73.5799
841.51        73.19427
841.92        72.72852
842.33        72.30382
842.73        72.13428
843.14        72.22682
843.54        72.56423
843.95        72.96148
844.35        73.15903
844.76        73.06671
845.17        72.77195
845.57          72.384
845.98         72.0853
846.38        71.92866
846.79        71.82542
847.19        71.77622
847.60        71.70712
848.00         71.6329
848.41        71.56947
848.81        71.51174
849.22        71.35789
849.62        71.15204
850.03        70.92876
850.43        70.80973
850.84        70.94614
851.24        71.40598
851.65        71.95222
852.05        72.63455
852.46        73.36536
852.86        74.07043
853.27        74.78619
853.67        75.04263
854.07        74.24225
854.48        72.45927
854.88        69.94501
855.29        67.54714
855.69         66.4912
856.10        67.01729
856.50        68.95802
856.90        71.63588
857.31        73.42357
857.71        73.75285
858.12        72.99718
858.52        71.76851
858.92        70.88902
859.33        70.57624
859.73        70.58616
860.13        70.89186
860.54        71.45592
860.94        72.27009
861.34        73.32309
861.75        74.39395
862.15        75.19891
862.55        75.61595
862.96         75.6951
863.36        75.51949
863.76        75.23936
864.17          74.947
864.57        74.65269
864.97        74.50013
865.38        74.69634
865.78        75.29758
866.18        76.18428
866.58        77.11343
866.99        77.64279
867.39        77.69273
867.79         77.3806
868.19        76.78296
868.60        76.06719
869.00        75.36957
869.40         74.6774
869.80        74.32295
870.21        74.77736
870.61        76.17358
871.01         78.3716
871.41        80.75808
871.81        82.26243
872.22        82.59656
872.62        82.00854
873.02        81.09855
873.42         81.0519
873.82        81.92867
874.22        83.02855
874.63         84.0506
875.03         84.4038
875.43        83.78764
875.83         83.4248
876.23        81.64713
876.63         80.7734
877.03        80.65965
877.44        81.48618
877.84         104.984
878.24         88.1188
878.64        88.45615
879.04        88.83895
879.44        84.09048
879.84        81.78663
880.24         86.7038
880.64        89.11065
881.04        90.03726
881.44        90.49622
881.84        89.93368
882.24         88.5302
882.65        87.16017
883.05        86.61144
883.45        87.03133
883.85        88.44849
884.25        90.28697
884.65        91.25865
885.05         90.9938
885.45        89.94803
885.85        88.75816
886.25        88.29292
886.65        88.73244
887.05        89.75217
887.45        91.00269
887.85        91.87461
888.25        92.11716
888.65         91.9449
889.04         91.4606
889.44        90.85931
889.84        90.24055
890.24        89.54756
890.64        88.92642
891.04        88.61469
891.44        88.63755
891.84        88.95937
892.24        89.39239
892.64        89.55505
893.04        89.38282
893.44        89.05307
893.83          88.728
894.23        88.66163
894.63        88.89722
895.03        89.27039
895.43        89.85839
895.83        90.79209
896.23        91.98971
896.63        93.39651
897.02          94.455
897.42        94.27139
897.82        92.76744
898.22        90.31534
898.62        87.78218
899.01        86.42822
899.41        86.54538
899.81        87.71369
900.21        89.37122
900.61        90.58775
901.00        91.04508
901.40        91.02076
901.80        90.73053
902.20        90.51302
902.59        90.48291
902.99        90.47536
903.39        90.43294
903.79        90.29826
904.18        90.07333
904.58        89.90118
904.98        89.81153
905.38        89.82047
905.77        89.91899
906.17        90.04565
906.57        90.27265
906.96        90.77161
907.36        91.44812
907.76        92.23503
908.15        92.82074
908.55        92.58324
908.95         91.4875
909.34        89.74274
909.74        87.88271
910.14        86.56498
910.53        86.02661
910.93        86.14148
911.33        86.81052
911.72        87.82287
912.12        88.88865
912.52        89.92878
912.91        90.81973
913.31        91.43906
913.70        91.83431
914.10        92.01241
914.49        91.80283
914.89        90.89429
915.29        89.41422
915.68        87.57578
916.08        86.17849
916.47        85.87775
916.87        86.67492
917.26         88.3564
917.66        90.16132
918.05        90.84171
918.45         90.0837
918.84        88.32664
919.24        86.37554
919.64         85.4107
920.03        85.75919
920.42        87.05129
920.82         88.8015
921.21        90.29073
921.61        91.03384
922.00         91.2548
922.40        90.99663
922.79        90.34028
923.19         89.4511
923.58        88.19149
923.98        86.58864
924.37        85.36012
924.77        85.03062
925.16        82.42378
925.55        83.59272
925.95        84.36162
926.34        86.46267
926.74        89.32346
927.13        92.15182
927.52        93.37435
927.92          92.756
928.31        90.79304
928.70        88.22537
929.10        86.33314
929.49        85.47677
929.89        85.33211
930.28        85.83775
930.67        86.88614
931.07        88.19602
931.46        89.87796
931.85        91.33651
932.24        91.67298
932.64        90.76708
933.03        88.70827
933.42        86.03423
933.82        84.05378
934.21        83.18379
934.60        83.17207
934.99        83.49142
935.39        83.64384
935.78        83.56165
936.17        82.93111
936.56        81.50433
936.96        82.80886
937.35        81.49973
937.74        81.80446
938.13        82.14621
938.53        82.89075
938.92        84.07696
939.31        85.76978
939.70        87.53699
940.09        88.05759
940.49        86.96082
940.88        84.83827
941.27        82.65289
941.66        81.52711
942.05        81.60643
942.44        82.50763
942.84         83.8995
943.23        85.27462
943.62        86.26589
944.01        86.96717
944.40        87.26323
944.79        86.97256
945.18        86.06061
945.57        84.48131
945.97        82.39347
946.36         80.4458
946.75        79.21198
947.14        78.69694
947.53         78.7876
947.92        79.27499
948.31        80.06588
948.70        81.24224
949.09        82.64133
949.48        83.76354
949.87         84.3102
950.26        84.26825
950.65        83.87983
951.04         83.6206
951.43        83.62096
951.82        83.76008
952.21        83.80626
952.60        83.40785
952.99        82.50351
953.38        81.23302
953.77        79.95328
954.16        79.13373
954.55        78.87386
954.94        79.12649
955.33        79.42538
955.72        78.97794
956.11        77.64759
956.50        75.64241
956.89        73.82751
957.28        73.77586
957.66        75.91403
958.05        79.46036
958.44        83.21528
958.83        85.40978
959.22        85.59843
959.61        84.25912
960.00        82.08403
960.39        80.22919
960.78        79.11922
961.16        78.47776
961.55        78.05092
961.94        77.42484
962.33        76.53352
962.72        75.67053
963.11        75.06657
963.49        74.94896
963.88         75.3191
964.27        76.05827
964.66        76.95352
965.04        77.58884
965.43         77.6735
965.82        77.36965
966.21        76.86517
966.60        76.41458
966.98        76.11578
967.37        75.85535
967.76        75.66342
968.15        75.59317
968.53        75.63422
968.92        75.70876
969.31        75.79034
969.69        75.78867
970.08        75.69631
970.47        75.60008
970.86        75.36922
971.24        74.78515
971.63        73.85361
972.02        72.61246
972.40        71.59404
972.79        71.74535
973.17         73.3733
973.56        76.12689
973.95        79.13897
974.33        80.70683
974.72        80.23785
975.11        78.28308
975.49        75.83415
975.88        74.23421
976.26        73.69418
976.65        73.85943
977.04        74.17225
977.42        73.41889
977.81        71.32139
978.19         68.5376
978.58        66.35677
978.96        65.88052
979.35         67.2535
979.74        70.26127
980.12        74.38577
980.51        77.36569
980.89        78.48528
981.28        78.12872
981.66        77.18759
982.05        76.89806
982.43        77.44254
982.82        78.30888
983.20        79.38182
983.59        80.57458
983.97        81.88581
984.35        83.50748
984.74        84.74319
985.12        84.40556
985.51        81.88392
985.89        77.39273
986.28        72.47412
986.66        69.50622
987.04        69.22871
987.43        70.95927
987.81        73.01907
988.20        73.30559
988.58        71.22227
988.96        66.44854
989.35          59.692
989.73        56.12717
990.12        59.64536
990.50        68.10361
990.88        75.87081
991.27         78.5759
991.65        76.73752
992.03         71.7698
992.42        66.04046
992.80        63.69066
993.18        65.87951
993.56        70.24594
993.95        74.82985
994.33        78.04164
994.71        79.44244
995.10        79.97515
995.48        79.53114
995.86         77.6225
996.24        74.24271
996.63        69.08559
997.01        63.33999
997.39        60.79346
997.77        63.10426
998.15        69.47261
998.54        76.56521
998.92        79.77488
999.30        77.70972
999.68        71.53514
1000.06        62.96197
1000.45        56.34886
1000.83        53.65113
1001.21        53.53666
1001.59        55.04899
1001.97        57.20599
1002.35        59.63157
1002.73        63.10785
1003.12         66.6223
1003.50        66.73761
1003.88        62.27613
1004.26        55.11393
1004.64        48.37828
1005.02        44.53749
1005.40        43.62822
1005.78        45.17784
1006.16        50.37093
1006.54        58.72205
1006.92        65.76633
1007.30        69.81577
1007.69        71.35748
1008.07        71.76595
1008.45         71.3971
1008.83        69.28642
1009.21        61.91168
1009.59        37.24234
1009.97       -28.59076
1010.35       -114.9977
1010.73        -95.1867
1011.11       -38.84264
1011.49      0.03665372
1011.86        27.34137
1012.24        42.79674
1012.62        49.78685
1013.00        51.82566
1013.38        50.37172
1013.76        47.18237
1014.14        48.05536
1014.52        57.70143
1014.90        77.13085
1015.28         100.437
1015.66        110.5503
1016.04        97.67987
1016.41        66.32421
1016.79        34.45716
1017.17        19.64142
1017.55        19.67404
1017.93        25.10147
1018.31        31.03688
1018.69        35.16618
1019.06        37.62667
1019.44        38.83035
1019.82        39.31852
1020.20        39.51661
1020.58         39.2388
1020.95        37.85799
1021.33        16.67869
1021.71        634.9599
1022.09        159.1898
1022.46        142.1873
1022.84        141.7974
1023.22        150.2494
1023.60        177.4366
1023.97        451.1107
1024.35       -15.55141
1024.73         32.1157
