SpectraSmart Spectrum 2.9.0.0
--------- Device Information -----------
Spectrum Name :  反射率_0
Saving Time :  2024/04/26 01:11:16
Spectro-Module Model Name : SE2030-DUVN
Spectro-Module Serial Number : OS361AC55029948
Wavelength Start : 200
Wavelength End : 1025
Wavelength Unit : Wavelength(nm)
Spectrum Unit : Reflectance(%)
-----------Spectrum Setting ------------
Integration Time : 20ms
Average : 10
Boxcar : 0
Background removal :  enabled
linearity correction :  enabled
SC :  disabled
Intensity correction :  disabled
DWT denoise :  enabled
savitzky-golay :  disabled
FFT :  disabled
Running average :  disabled
Kalman :  disabled
High pass :  disabled
---------------BEGIN--------------------
Wavelength(nm)             Reflectance(%)
200.29               0
200.75        90.51418
201.21          80.545
201.67        69.59512
202.13        63.57289
202.58        63.06239
203.04        66.50645
203.50         71.7024
203.96        74.74996
204.42        74.55679
204.88        72.72748
205.34        70.58646
205.80        69.25198
206.26        68.99416
206.72        69.72852
207.18        71.84261
207.64         74.3198
208.10        73.73287
208.55        71.01945
209.01        69.58011
209.47        70.35258
209.93        72.70445
210.39        76.57648
210.85        79.79935
211.31         77.6972
211.77         69.4439
212.23        57.09941
212.69        45.56512
213.14        42.33445
213.60        48.52855
214.06        62.13436
214.52        78.03959
214.98        88.17636
215.44        90.25832
215.90        86.61044
216.36        80.31424
216.81        75.68285
217.27        74.13553
217.73        74.23836
218.19        73.97837
218.65        70.58614
219.11        62.86649
219.57        50.02981
220.02        33.76278
220.48         23.9845
220.94        26.57821
221.40        39.08242
221.86        51.81382
222.32        54.59642
222.77        48.31386
223.23        38.20926
223.69        29.61997
224.15        27.97668
224.61        32.72122
225.06         41.1214
225.52        49.43949
225.98        52.93477
226.44        50.81081
226.90        45.19735
227.36         38.7677
227.81        35.09793
228.27        35.23985
228.73        37.68113
229.19        41.09371
229.65        43.54729
230.10        44.48491
230.56        44.68194
231.02        44.52485
231.48        44.36782
231.93        44.30804
232.39        44.14804
232.85        43.95304
233.31        43.94276
233.77        44.12023
234.22        44.46814
234.68        44.77618
235.14        44.53134
235.60        43.68605
236.05        42.53889
236.51        41.44058
236.97        40.81224
237.43        40.82786
237.88        41.48523
238.34        43.01766
238.80        45.79367
239.26        49.65708
239.71        54.44057
240.17        59.02009
240.63         62.1075
241.08        63.42735
241.54        63.07955
242.00        62.05037
242.46        61.88135
242.91        63.55783
243.37        68.39429
243.83        83.88447
244.28         133.297
244.74        186.8898
245.20        155.0598
245.66        126.7888
246.11         118.377
246.57        120.7433
247.03        135.6554
247.48        177.7946
247.94        141.6917
248.40        92.75781
248.85        79.67679
249.31        76.71194
249.77        77.51516
250.22        80.75381
250.68          86.863
251.14        95.88918
251.59        102.4833
252.05        100.9956
252.51         93.6095
252.96        84.93903
253.42         79.9721
253.88        78.41065
254.33        78.46575
254.79        80.28352
255.25        83.44907
255.70         87.0553
256.16        91.09163
256.62        93.78593
257.07        93.30982
257.53        90.49097
257.99        85.85226
258.44        81.13909
258.90        79.34268
259.35         79.4457
259.81        80.37634
260.27        80.14889
260.72        76.86356
261.18        71.44173
261.63        64.78995
262.09        58.71218
262.55        54.56312
263.00         52.2804
263.46        51.27426
263.91        50.52515
264.37        49.26333
264.83        47.26479
265.28        44.72342
265.74        42.24287
266.19        40.48471
266.65        39.70625
267.11         39.5335
267.56        39.41153
268.02        38.68376
268.47        37.21585
268.93        35.24101
269.38        33.14039
269.84        31.80433
270.30        31.46541
270.75         31.8566
271.21        32.47131
271.66         32.5548
272.12        31.90996
272.57        30.77228
273.03        29.53216
273.48        28.69094
273.94        28.39617
274.39        28.43003
274.85        28.52661
275.31        28.29589
275.76        27.65346
276.22        26.77955
276.67         25.8847
277.13        25.35333
277.58        25.19607
278.04        25.29236
278.49        25.38598
278.95        25.18506
279.40        24.61368
279.86        23.84347
280.31        23.00908
280.77        22.41792
281.22         22.0975
281.68         21.9707
282.13         21.9324
282.59        21.86802
283.04        21.73763
283.50        21.62009
283.95        21.49942
284.41        21.36258
284.86        21.21218
285.32        21.05216
285.77        20.96386
286.22        21.13553
286.68        21.55351
287.13        22.12168
287.59        22.64548
288.04        22.82818
288.50        22.64486
288.95        22.18582
289.41        21.64734
289.86        21.22217
290.32        21.02825
290.77         20.9944
291.22        21.12456
291.68        21.38117
292.13        21.75355
292.59         22.2743
293.04         22.9217
293.50        23.65103
293.95         24.4364
294.40        25.25298
294.86        26.12044
295.31        27.08984
295.77        28.17368
296.22         29.3597
296.68         30.5814
297.13        31.69623
297.58        32.69395
298.04         33.6357
298.49        34.64784
298.95        35.97725
299.40        37.65933
299.85        39.60956
300.31        41.66784
300.76        43.57383
301.21         45.2237
301.67        46.71674
302.12          48.075
302.58        49.43564
303.03        50.81998
303.48        52.21497
303.94        53.71062
304.39        55.38628
304.84        57.25598
305.30        59.29306
305.75        61.31027
306.20        63.04112
306.66        64.44984
307.11        65.56004
307.57        66.58551
308.02        67.73406
308.47        69.11162
308.93        70.65916
309.38        72.23055
309.83         73.6474
310.29         74.8508
310.74        75.86464
311.19        76.80379
311.65        77.84219
312.10        79.00372
312.55        80.24396
313.00        81.39275
313.46         82.1819
313.91        82.54577
314.36        82.59489
314.82        82.58775
315.27        82.86826
315.72         83.5519
316.18        84.53512
316.63         85.6307
317.08         86.4837
317.53        86.98383
317.99        87.21869
318.44        87.37337
318.89        87.75501
319.35         88.4127
319.80        89.26856
320.25        90.08009
320.70        90.45636
321.16        90.31982
321.61        89.81685
322.06        89.22375
322.51        88.96873
322.97        89.14091
323.42         89.6508
323.87        90.30074
324.32        90.74841
324.78         90.8774
325.23         90.8307
325.68        90.71143
326.13        90.71526
326.59        90.88011
327.04        91.15861
327.49        91.49969
327.94        91.86102
328.39        92.21237
328.85        92.55453
329.30        92.90063
329.75        93.10182
330.20        93.16138
330.66         93.1194
331.11        93.15104
331.56        93.46061
332.01        94.11366
332.46        95.02812
332.92        96.09605
333.37        97.29868
333.82         98.4738
334.27        99.61784
334.72        100.5445
335.17        100.9679
335.63        100.8556
336.08         100.345
336.53        99.72811
336.98         99.5279
337.43        99.88818
337.88         100.669
338.34        101.6846
338.79        102.7018
339.24        103.5682
339.69        104.3831
340.14        105.0441
340.59         105.374
341.05        105.3745
341.50        105.0628
341.95        104.7293
342.40        104.8457
342.85        105.5011
343.30        106.5792
343.75         107.755
344.20        108.4426
344.66        108.4942
345.11        108.0702
345.56        107.4814
346.01        107.1995
346.46        107.3493
346.91        107.7847
347.36        108.3077
347.81        108.6189
348.26         108.645
348.72        108.5098
349.17        108.3394
349.62        108.3774
350.07         108.671
350.52          109.11
350.97        109.5475
351.42        109.7783
351.87        109.7487
352.32        109.5298
352.77        109.1999
353.22        108.8805
353.67         108.617
354.13        108.3888
354.58         108.151
355.03        107.8945
355.48        107.6088
355.93        107.3068
356.38        106.9876
356.83        106.6406
357.28        106.2606
357.73        105.8457
358.18        105.3869
358.63         104.874
359.08        104.3133
359.53        103.7173
359.98        103.1067
360.43        102.5126
360.88        101.9361
361.33        101.3568
361.78        100.7752
362.23        100.1928
362.68        99.61177
363.13        99.05071
363.58        98.46114
364.03        97.76101
364.48        96.94587
364.93        96.03704
365.38        95.15454
365.83        94.49511
366.28        94.08485
366.73         93.8484
367.18        93.62895
367.63        93.17117
368.08         92.4255
368.53        91.50356
368.98         90.5178
369.43        89.62929
369.88        88.89462
370.33         88.2584
370.78        87.74482
371.23        87.40024
371.68        87.20695
372.13         87.1453
372.58        87.10096
373.03        86.87366
373.48        86.42268
373.93        85.81881
374.38        85.15333
374.83        84.57025
375.28        84.11208
375.72        83.71355
376.17        83.40411
376.62        83.20784
377.07        83.09521
377.52        83.03976
377.97        82.92261
378.42        82.54985
378.87        81.91019
379.32        81.10991
379.77        80.25815
380.22        79.50749
380.67        78.89842
381.11        78.36802
381.56        77.96667
382.01        77.78068
382.46        77.80257
382.91        78.02439
383.36        78.21329
383.81        77.99793
384.26        77.32165
384.71        76.28386
385.15        75.20901
385.60        74.65456
386.05        74.67047
386.50        75.09112
386.95        75.55009
387.40        75.42903
387.85        74.64239
388.29         73.4441
388.74        72.30454
389.19        71.57803
389.64        71.32534
390.09        71.36901
390.54        71.61591
390.98         71.9116
391.43        72.15552
391.88        72.37028
392.33        72.44614
392.78        72.14454
393.23        71.48694
393.67         70.7408
394.12        70.14513
394.57        69.38927
395.02        68.73884
395.47        69.11414
395.91        70.33076
396.36        71.02151
396.81        70.99192
397.26        70.88552
397.71        70.78373
398.15        70.41735
398.60        69.91138
399.05        69.54464
399.50        69.25496
399.95        68.34513
400.39        67.34969
400.84        67.00496
401.29        67.37519
401.74        67.66743
402.18        67.74432
402.63        67.74368
403.08        67.73278
403.53        67.86127
403.97        68.12456
404.42        68.33022
404.87        68.37804
405.32        68.18935
405.76        67.74053
406.21        67.19741
406.66        66.69742
407.11        66.25162
407.55        66.01423
408.00        66.37254
408.45        67.13301
408.90        67.42072
409.34         67.0874
409.79        66.58067
410.24        66.10123
410.68        65.78602
411.13        65.71487
411.58        65.81057
412.03        66.03274
412.47        66.33031
412.92        66.60983
413.37        66.90845
413.81        67.13344
414.26        67.18719
414.71        67.03931
415.15        66.69831
415.60        66.28762
416.05         66.0347
416.49        66.00352
416.94        66.16159
417.39          66.343
417.83        66.24615
418.28        65.83482
418.73        65.22223
419.17        64.67587
419.62        64.61795
420.07        65.08033
420.51        65.90707
420.96         66.7987
421.41        67.19205
421.85        66.92936
422.30        66.46256
422.74        65.92587
423.19        65.23573
423.64        64.62343
424.08        64.90173
424.53        65.89851
424.98        66.50105
425.42        66.55235
425.87        66.82084
426.31        67.27332
426.76        67.13638
427.21        66.64405
427.65        66.85586
428.10         67.6824
428.54        68.36468
428.99        68.85219
429.44        69.00101
429.88        68.90946
430.33         69.8166
430.77        71.00732
431.22        69.98436
431.66        67.30197
432.11         65.8271
432.56        65.92399
433.00        66.60019
433.45        67.74771
433.89        69.76039
434.34        71.14375
434.78        72.34357
435.23        68.34221
435.67         66.3292
436.12         69.1368
436.57        70.31218
437.01        70.63405
437.46        71.06467
437.90        70.99133
438.35        71.00277
438.79        71.25919
439.24        71.24312
439.68        71.08741
440.13        70.85007
440.57        70.80306
441.02        71.50273
441.46        72.66545
441.91        73.61156
442.35        73.96838
442.80        73.16813
443.24        71.71626
443.69        72.19374
444.13           74.19
444.58        74.38366
445.02        72.44305
445.47        72.17209
445.91         73.3479
446.36        73.61913
446.80         72.8822
447.24        73.03175
447.69        72.91832
448.13        73.09438
448.58        73.25293
449.02        73.65897
449.47        74.21078
449.91        74.60129
450.36        74.79069
450.80        74.88843
451.25        74.90208
451.69        74.75864
452.13        74.50209
452.58        74.17852
453.02        73.87335
453.47        73.75962
453.91        73.83965
454.36        74.06102
454.80        74.35805
455.24        74.43896
455.69         74.2473
456.13          74.201
456.58        74.32124
457.02        73.51015
457.46        72.70915
457.91        72.98978
458.35        74.21087
458.79        74.64899
459.24        74.26086
459.68        73.82612
460.13        73.43014
460.57        73.19194
461.01        73.28883
461.46        72.17337
461.90        72.12366
462.34        72.55782
462.79        72.02209
463.23        72.12466
463.68        72.22154
464.12        72.59149
464.56        73.04872
465.01        73.07882
465.45        72.67024
465.89        72.59619
466.34        72.66827
466.78        71.75767
467.22        70.46246
467.67        69.45035
468.11        71.07853
468.55        71.76635
468.99        71.84931
469.44        71.46906
469.88        70.83678
470.32        70.71187
470.77        71.03529
471.21        70.98006
471.65        70.51977
472.10        70.31359
472.54        70.38914
472.98        70.45525
473.42        70.48956
473.87        70.69711
474.31        70.95398
474.75        70.85213
475.20         70.4966
475.64        70.43345
476.08        70.68333
476.52        70.67216
476.97        70.36501
477.41        70.37091
477.85        70.76981
478.29        70.05649
478.74        70.60867
479.18         70.6349
479.62         69.6509
480.06        70.27416
480.50        70.61157
480.95        71.21402
481.39        71.59259
481.83        70.27898
482.27        70.59731
482.72        70.18279
483.16        68.60052
483.60        68.79273
484.04          70.339
484.48        70.96368
484.93        71.00307
485.37        72.65044
485.81        73.01714
486.25        71.68678
486.69        98.64396
487.14        79.49991
487.58        49.14343
488.02        60.18076
488.46        68.34086
488.90        68.19432
489.34        69.10223
489.79        68.45589
490.23        70.35492
490.67        71.19168
491.11        70.12686
491.55          70.118
491.99        70.72591
492.43        70.60543
492.88        69.85341
493.32        69.81344
493.76        69.97919
494.20        70.17715
494.64        70.15642
495.08        70.18093
495.52        70.32903
495.96        70.23472
496.41        69.93523
496.85        70.63195
497.29        71.89267
497.73         70.7168
498.17        68.18635
498.61         68.2344
499.05         70.8904
499.49        71.42509
499.93        71.29572
500.37        70.97071
500.82         70.3792
501.26        70.22256
501.70        70.30475
502.14        70.86181
502.58        70.82801
503.02        70.86066
503.46        70.67279
503.90        70.27826
504.34        69.84821
504.78        69.67217
505.22        69.80199
505.66        70.18923
506.10        70.68906
506.54          70.833
506.98        70.49641
507.42        70.46998
507.86        70.08936
508.30        69.46785
508.74        69.87499
509.18        70.06384
509.62        70.33465
510.06         70.4519
510.50        70.38021
510.94        70.17843
511.38        69.92175
511.82        69.75726
512.26        69.72511
512.70        69.77515
513.14        69.88643
513.58        70.03062
514.02        70.17913
514.46        70.33388
514.90          70.465
515.34        70.50869
515.78        70.44588
516.22        70.35341
516.66        70.26329
517.10         70.0631
517.54        69.77518
517.98         70.0126
518.42        69.90772
518.86         70.0752
519.30        70.23998
519.74        70.46359
520.18        70.69715
520.62        70.85017
521.06        70.90932
521.50        70.89596
521.93          70.816
522.37        70.68349
522.81        70.52486
523.25        70.34518
523.69        70.21053
524.13        70.21958
524.57        70.38307
525.01        70.66906
525.45         70.9858
525.89        71.18147
526.32        71.20481
526.76        71.09186
527.20        70.90479
527.64        70.76562
528.08        70.72437
528.52        70.68851
528.96        70.59153
529.40         70.5288
529.83        70.52965
530.27        69.86855
530.71        69.98914
531.15        69.87222
531.59        69.94999
532.03        70.13991
532.46        70.43422
532.90        70.78683
533.34        71.13998
533.78        71.49043
534.22        71.74669
534.66        71.78383
535.09        71.58128
535.53        71.20877
535.97         70.7658
536.41         70.4369
536.85        70.28094
537.28        70.25744
537.72        70.31271
538.16        70.36438
538.60        70.38157
539.04        70.33847
539.47        70.24606
539.91        70.30613
540.35         70.4462
540.79        70.35897
541.22        70.08911
541.66         69.9963
542.10        70.09256
542.54        70.18113
542.97        70.23838
543.41        70.33537
543.85        70.44893
544.29        70.58092
544.72        70.66196
545.16        70.60001
545.60         70.3775
546.04        70.06407
546.47        69.79531
546.91        69.70138
547.35        69.86506
547.79        70.46124
548.22        71.19384
548.66        71.42414
549.10        71.03982
549.53        70.22966
549.97         69.3687
550.41        68.95742
550.84        69.10759
551.28        69.69581
551.72        70.49569
552.15        70.71896
552.59        70.92359
553.03        70.70055
553.46        70.37508
553.90        70.19443
554.34        70.22492
554.77        70.27197
555.21        70.28671
555.65        70.48605
556.08        70.85365
556.52        70.39607
556.96        70.74343
557.39         70.5695
557.83         70.4175
558.27        70.28722
558.70        70.22733
559.14        70.25932
559.57        70.35496
560.01        70.50071
560.45        70.66042
560.88         70.7998
561.32        70.87408
561.75        70.82039
562.19        70.67101
562.63        70.21954
563.06        69.67155
563.50        69.71394
563.93        70.23882
564.37        70.58819
564.80        70.61559
565.24        70.49934
565.68        70.29695
566.11        70.18857
566.55        70.24849
566.98        70.24737
567.42        70.21787
567.85        70.43863
568.29        70.87753
568.72         70.9643
569.16        70.91297
569.60        71.34459
570.03        71.90511
570.47        71.99386
570.90        71.92068
571.34          69.972
571.77        71.17248
572.21        71.20553
572.64        70.63866
573.08        69.75599
573.51        66.65391
573.95        69.28537
574.38        73.61237
574.82        72.07968
575.25        71.38903
575.69        68.96201
576.12        67.75219
576.56        66.81325
576.99        68.44411
577.42        71.83717
577.86        71.52832
578.29        71.39893
578.73        75.15291
579.16        69.33185
579.60        63.38914
580.03        65.67378
580.47         70.0864
580.90        72.00549
581.33         70.2512
581.77        69.48686
582.20        77.21527
582.64          76.797
583.07        65.44161
583.51        63.97186
583.94        62.68965
584.37        65.41855
584.81        68.81182
585.24        72.53071
585.68        74.09447
586.11         73.3378
586.54        67.80621
586.98        65.32314
587.41        66.26236
587.85        69.92513
588.28        72.83186
588.71        68.78078
589.15        66.73059
589.58        68.03466
590.01        67.95539
590.45        68.90606
590.88        69.99226
591.31        69.32866
591.75        68.67152
592.18        68.65675
592.61        70.31858
593.05         70.6579
593.48        73.92263
593.91        74.69668
594.35        68.94003
594.78        67.26521
595.21        66.70415
595.65        69.73523
596.08        72.80187
596.51        69.89144
596.94        67.64017
597.38        68.20055
597.81        71.13436
598.24        72.74274
598.68         71.3861
599.11        70.15038
599.54        73.01233
599.97        74.35342
600.41        69.22681
600.84           69.31
601.27        70.92634
601.70         69.7889
602.14        70.00954
602.57        68.95253
603.00        69.38034
603.43        70.96335
603.87        72.40712
604.30        72.06332
604.73        70.19178
605.16        68.62477
605.60        69.41897
606.03        70.54688
606.46        71.79493
606.89        71.57405
607.32        69.07203
607.76        68.86969
608.19        71.23123
608.62        70.37477
609.05        69.13898
609.48         69.6272
609.92        69.54691
610.35        69.14424
610.78        71.22973
611.21        72.20706
611.64        68.82809
612.07        69.58485
612.50          69.997
612.94        70.45227
613.37        69.89774
613.80        69.98904
614.23        70.46478
614.66        70.39918
615.09        70.67637
615.52        70.68823
615.96        70.57903
616.39        70.59354
616.82        69.51812
617.25        69.49308
617.68        70.04622
618.11        70.59818
618.54        70.86105
618.97        70.46957
619.40        69.77158
619.84        69.62573
620.27        70.45813
620.70        71.03716
621.13        71.31173
621.56        70.51762
621.99        69.34025
622.42         70.1603
622.85        72.22984
623.28        72.12408
623.71        71.20548
624.14         71.4305
624.57        70.95427
625.00        71.02909
625.43         71.0586
625.86        70.49519
626.29        70.68481
626.72         70.8938
627.15        70.73251
627.58        70.82575
628.01        70.79851
628.44         71.5088
628.87        71.28751
629.30        70.99744
629.73        71.42069
630.16        71.35046
630.59        71.05424
631.02        70.75807
631.45        70.52895
631.88        70.32314
632.31        70.13783
632.74        70.31786
633.17        70.24601
633.60        70.34302
634.03        70.41209
634.46        70.48198
634.89        70.53455
635.32        70.55482
635.75        70.54734
636.18        70.50122
636.61        70.45056
637.04        70.45686
637.47        70.52837
637.89        70.65582
638.32        70.77048
638.75        70.80481
639.18        70.74067
639.61         70.6096
640.04        70.44534
640.47        70.30033
640.90        70.19869
641.33        70.12018
641.76        70.05299
642.18        70.07932
642.61        70.19346
643.04        70.21574
643.47        70.07569
643.90        70.56961
644.33        70.23154
644.76        70.25246
645.18        70.20886
645.61        70.14178
646.04        70.04599
646.47        69.90099
646.90        69.79607
647.33        69.83118
647.75        70.04409
648.18        70.42802
648.61        70.75679
649.04        70.76899
649.47        70.40151
649.89        69.40784
650.32        68.30849
650.75        68.35906
651.18        69.45783
651.61        70.37096
652.03        70.70161
652.46        70.60152
652.89        70.42552
653.32        69.85875
653.74        69.33335
654.17        70.32696
654.60        71.39264
655.03        68.73784
655.46        69.60617
655.88        73.80932
656.31        79.82478
656.74        182.1257
657.16        118.5828
657.59        41.61616
658.02        30.88561
658.45        52.68083
658.87        67.67637
659.30        70.63463
659.73        69.87776
660.15        67.52168
660.58        69.80235
661.01        71.64948
661.44        69.56953
661.86        68.85425
662.29        68.71477
662.72        69.40869
663.14        70.71001
663.57        70.69785
664.00        69.59904
664.42        69.36602
664.85        70.06234
665.27        70.41411
665.70        70.26755
666.13        70.10735
666.55        69.92778
666.98         69.5768
667.41        69.18001
667.83        69.00398
668.26         69.1052
668.69        69.37919
669.11        69.64497
669.54        69.95506
669.96        69.60615
670.39        69.19956
670.82        68.74711
671.24        68.62968
671.67        68.92988
672.09         69.4638
672.52        69.93849
672.94         70.4321
673.37        69.73267
673.80         69.4551
674.22        69.33998
674.65        69.21024
675.07        69.07816
675.50        68.94733
675.92        68.87092
676.35        68.96213
676.77        69.22106
677.20        69.53249
677.62        69.82916
678.05        70.00484
678.47        70.01802
678.90        69.91546
679.32        69.75759
679.75        69.51439
680.17        69.49107
680.60        69.44562
681.02        69.42345
681.45        69.32095
681.87        69.13338
682.30        68.95301
682.72        68.84359
683.15        68.76727
683.57        68.82478
684.00        69.22322
684.42        69.94741
684.85        70.26075
685.27        70.12518
685.70        69.83363
686.12        69.50764
686.54        69.29749
686.97        69.25264
687.39        69.33593
687.82        69.46466
688.24        69.57539
688.66        69.60587
689.09        69.54325
689.51        69.45297
689.94        69.44941
690.36        69.55948
690.78        69.72269
691.21        69.87058
691.63        69.91779
692.06        69.84651
692.48        69.69377
692.90        69.54232
693.33        69.49654
693.75        69.58109
694.17         69.7952
694.60        70.05997
695.02         70.1657
695.44        70.07343
695.87        70.12671
696.29        70.33732
696.71        70.12175
697.14        69.67809
697.56        70.11664
697.98        71.14786
698.41        71.26157
698.83        70.36002
699.25         69.9523
699.68        70.06187
700.10        69.99892
700.52        69.77546
700.94        69.78561
701.37        70.01167
701.79        70.30019
702.21        70.58188
702.64         70.9004
703.06          71.146
703.48        71.13483
703.90        70.85893
704.33        70.37935
704.75        69.84593
705.17        69.59004
705.59        69.69586
706.01        69.95402
706.44        70.22835
706.86        70.88789
707.28        70.91602
707.70         71.1353
708.12        71.24452
708.55        71.12318
708.97        70.81071
709.39        70.54584
709.81        70.41486
710.23        70.35172
710.66        70.38361
711.08        70.63442
711.50        70.95555
711.92        71.05403
712.34        70.87754
712.76        70.49979
713.19        70.09014
713.61        69.95557
714.03        70.15108
714.45        70.58048
714.87        71.03557
715.29        71.18862
715.71        70.96893
716.13        70.48839
716.56        69.94265
716.98        69.67422
717.40        69.76656
717.82        70.11345
718.24        70.56118
718.66        70.85128
719.08        70.90204
719.50        70.79134
719.92        70.60093
720.34        70.47826
720.76         70.4729
721.19        70.42262
721.61        70.51955
722.03        70.58527
722.45        70.66604
722.87        70.76845
723.29        70.89573
723.71        71.03967
724.13        71.18761
724.55        71.32832
724.97        71.43563
725.39        71.47639
725.81        71.44528
726.23        71.35676
726.65        71.24098
727.07        71.14217
727.49        71.08445
727.91        71.07456
728.33        71.10653
728.75        71.16631
729.17        71.24307
729.59        71.32384
730.01        71.44007
730.43        71.63226
730.85        71.90024
731.27        72.25063
731.69        72.55472
732.10        72.60821
732.52        72.40776
732.94        71.95594
733.36        71.44687
733.78        71.40477
734.20        71.96307
734.62        71.95965
735.04        73.49274
735.46          73.395
735.88         72.6003
736.30        72.70688
736.72        73.72449
737.13        74.16518
737.55        73.76387
737.97        73.63696
738.39        73.82853
738.81        73.22333
739.23        72.21716
739.65        73.00971
740.06        75.10257
740.48        75.25313
740.90        73.57056
741.32        72.77268
741.74        73.11667
742.16        73.26878
742.57        73.28484
742.99        73.92445
743.41        74.98076
743.83        75.67064
744.25        75.84901
744.67        75.71279
745.08         75.4398
745.50        75.31884
745.92        75.45205
746.34        75.73027
746.75          76.051
747.17        76.24185
747.59        76.28087
748.01        76.23314
748.42        76.22275
748.84        76.44859
749.26        76.95557
749.68        77.56133
750.09        78.13914
750.51         78.7105
750.93        79.11665
751.35        78.84943
751.76        78.12325
752.18        77.89953
752.60        78.18691
753.01        78.25505
753.43         78.0904
753.85        78.19806
754.27        78.59376
754.68        79.05636
755.10        79.48761
755.52        79.88165
755.93        80.17463
756.35        80.30924
756.77         80.3853
757.18        80.40463
757.60        80.37859
758.02        80.76392
758.43        81.28699
758.85        80.51733
759.26        78.97311
759.68        78.98474
760.10        80.37737
760.51        81.08476
760.93        80.76856
761.34        79.69499
761.76        79.30916
762.18        78.64775
762.59        78.28436
763.01        78.41868
763.42        79.06117
763.84        79.64634
764.26        80.09533
764.67        80.50373
765.09        80.75852
765.50        80.94215
765.92        80.88145
766.33        79.61095
766.75        77.70242
767.16        77.07935
767.58        77.93272
768.00        79.28935
768.41        80.78342
768.83        82.11669
769.24        82.70699
769.66        81.95221
770.07        80.39309
770.49        78.84049
770.90        77.75798
771.32         78.7139
771.73        81.00629
772.15        80.56876
772.56        77.84876
772.97        77.30521
773.39        78.87492
773.80        79.40389
774.22        78.69619
774.63         78.6762
775.05        79.28119
775.46        79.59229
775.88        79.49773
776.29        79.26169
776.70        78.98814
777.12        78.87298
777.53        78.98061
777.95        79.19277
778.36        79.37848
778.77        79.31288
779.19        78.99441
779.60        78.50343
780.02        78.04285
780.43        78.00739
780.84        78.51859
781.26        79.01633
781.67        79.43805
782.09        80.59169
782.50        81.92768
782.91        81.05379
783.33        78.66821
783.74        77.91948
784.15        78.97116
784.57        79.77027
784.98        79.95364
785.39        79.97352
785.81        79.74081
786.22        79.00254
786.63        78.16883
787.04        77.99238
787.46        78.56377
787.87        79.63572
788.28        80.83927
788.70        81.52879
789.11        81.52217
789.52        81.07359
789.93        80.43944
790.35        79.87534
790.76        79.54257
791.17        79.59332
791.58        79.89755
792.00         79.9735
792.41         79.7402
792.82        79.52122
793.23        79.48795
793.65        79.28136
794.06         79.1246
794.47        80.27437
794.88        82.00409
795.29        81.66463
795.71        79.40427
796.12        77.54121
796.53        76.60599
796.94        76.05767
797.35        76.07672
797.76        77.20258
798.18        78.86433
798.59        79.81848
799.00        79.69402
799.41        78.82653
799.82         77.6718
800.23        76.97849
800.64        76.94798
801.06        77.26669
801.47        77.81129
801.88        78.27475
802.29        78.52718
802.70        78.69016
803.11        78.77071
803.52        78.75439
803.93        78.67225
804.34        78.48652
804.75         78.2966
805.17        78.36699
805.58        78.77808
805.99         79.1797
806.40        79.42619
806.81        79.95069
807.22        80.35651
807.63        79.19368
808.04         77.0309
808.45        76.05991
808.86         76.4951
809.27        77.27317
809.68        78.01115
810.09        78.45473
810.50         78.4094
810.91        77.97713
811.32        77.40345
811.73        77.08408
812.14        77.12293
812.55        77.35152
812.96        77.69361
813.37        78.00957
813.78        78.22479
814.19        78.44794
814.60        78.51648
815.01        78.16294
815.42        77.38136
815.83        76.20534
816.24        75.08624
816.65         74.8168
817.05        75.61432
817.46        77.23497
817.87        79.01042
818.28         79.7428
818.69        79.11971
819.10        77.43231
819.51        75.49503
819.92        74.69508
820.33        75.38094
820.74        77.12848
821.14        79.11849
821.55        79.91045
821.96        79.18535
822.37        77.44611
822.78        75.43642
823.19        74.24876
823.60        74.18303
824.00        74.95367
824.41        76.08722
824.82        76.86868
825.23        76.99764
825.64        76.73138
826.04        76.31383
826.45        76.08762
826.86        76.14789
827.27        76.32253
827.68        76.52106
828.08        76.66115
828.49        76.63979
828.90        76.57294
829.31        76.43456
829.72        76.15707
830.12        75.78822
830.53        75.33305
830.94        74.98768
831.35        75.01096
831.75        75.47895
832.16        76.26514
832.57        77.17907
832.97        77.80086
833.38        77.92259
833.79        77.65276
834.20        77.22572
834.60        77.00633
835.01        77.11115
835.42        77.42166
835.82         77.7427
836.23        77.66952
836.64        77.15562
837.04        76.36357
837.45        75.56039
837.86        75.16097
838.26        75.27392
838.67        75.73602
839.08          76.353
839.48        76.76683
839.89        76.82256
840.29        76.64919
840.70        76.33695
841.11         76.0052
841.51        75.71673
841.92        75.40228
842.33        75.14149
842.73         75.0849
843.14        75.21758
843.54        75.55264
843.95        75.89476
844.35        75.97353
844.76        75.71542
845.17          75.213
845.57         74.6637
845.98         74.3831
846.38        74.44395
846.79        74.73027
847.19        75.11241
847.60        75.27039
848.00        75.15338
848.41        74.84193
848.81        74.49084
849.22        74.24957
849.62        74.21857
850.03        74.35656
850.43        74.64922
850.84        74.98753
851.24        75.36059
851.65        75.61352
852.05        75.92966
852.46        76.43048
852.86        77.11977
853.27        77.97735
853.67        78.46302
854.07        77.88321
854.48        76.26691
854.88         73.8633
855.29          71.566
855.69        70.66771
856.10        71.41643
856.50        73.65125
856.90        76.52822
857.31        78.10413
857.71        77.77576
858.12        76.06018
858.52          73.938
858.92        72.69241
859.33         72.5931
859.73        73.28452
860.13        74.44841
860.54        75.41502
860.94        75.95384
861.34        76.24893
861.75        76.37126
862.15        76.51814
862.55        76.71391
862.96        76.82632
863.36        76.90538
863.76        77.03356
864.17        77.22219
864.57         77.5435
864.97         77.8836
865.38        78.03644
865.78         78.0213
866.18        77.80364
866.58        77.61114
866.99        77.82816
867.39        78.58047
867.79        79.79105
868.19        80.95914
868.60        81.14715
869.00        80.14162
869.40        78.23695
869.80        76.33925
870.21        75.86709
870.61        77.24055
871.01        80.02622
871.41        83.29156
871.81        85.43251
872.22        85.95375
872.62        85.28819
873.02         84.1591
873.42        83.87421
873.82        84.58217
874.22        85.58477
874.63        86.50307
875.03        86.65746
875.43        85.76466
875.83        85.05099
876.23        83.18752
876.63        82.41669
877.03        82.68529
877.44        84.25771
877.84         103.812
878.24        91.89201
878.64         92.0645
879.04        91.64121
879.44        87.25216
879.84         85.0323
880.24        89.12437
880.64        91.35846
881.04        92.50109
881.44        92.98984
881.84        92.16892
882.24        90.37846
882.65        88.67812
883.05        88.08173
883.45         88.7673
883.85        90.68482
884.25        93.10339
884.65        94.46935
885.05        94.30048
885.45        93.10874
885.85        91.67008
886.25        91.05731
886.65        91.48705
887.05        92.56676
887.45        93.84942
887.85        94.55299
888.25        94.41727
888.65        93.79047
889.04         92.8813
889.44        92.03162
889.84        91.38518
890.24        90.79312
890.64         90.4633
891.04        90.74163
891.44        91.61179
891.84        92.99516
892.24        94.35686
892.64        94.70447
893.04        93.88242
893.44        92.31953
893.83        90.66985
894.23        89.88499
894.63        90.15639
895.03        91.12058
895.43        92.62029
895.83         94.3271
896.23        95.95545
896.63        97.58071
897.02        98.66103
897.42        98.33148
897.82        96.57223
898.22         93.7296
898.62        90.79617
899.01        89.24901
899.41        89.40956
899.81        90.78947
900.21         92.7291
900.61        94.11955
901.00         94.5841
901.40        94.46979
901.80        93.97916
902.20        93.42527
902.59        92.95543
902.99        92.42162
903.39        91.91419
903.79        91.63742
904.18        91.64252
904.58        91.96922
904.98        92.48072
905.38        92.92665
905.77        93.20383
906.17        93.32558
906.57        93.37541
906.96        93.54453
907.36        93.79208
907.76        94.06879
908.15        94.17766
908.55         93.6964
908.95        92.63686
909.34        91.14552
909.74        89.67933
910.14        88.75758
910.53        88.55243
910.93        88.97223
911.33        89.82462
911.72        90.74214
912.12        91.45666
912.52        91.97913
912.91        92.39188
913.31        92.83772
913.70        93.40136
914.10        94.02182
914.49        94.44658
914.89        94.06138
915.29        92.79474
915.68        90.92698
916.08        89.28333
916.47        88.53571
916.87        88.73421
917.26        89.66492
917.66         90.7195
918.05        90.94315
918.45         90.1179
918.84        88.62547
919.24        87.11315
919.64        86.50146
920.03        87.03813
920.42        88.40092
920.82        90.20274
921.21        91.89905
921.61        93.03047
922.00        93.73649
922.40        93.90386
922.79        93.41772
923.19        92.40848
923.58        90.81865
923.98        88.86815
924.37        87.54827
924.77        87.44109
925.16        85.80034
925.55        87.32795
925.95        88.23714
926.34        89.80063
926.74        91.64309
927.13        93.33734
927.52        93.87344
927.92        93.15425
928.31        91.52995
928.70        89.43845
929.10        87.67089
929.49        86.46501
929.89        85.63705
930.28        85.44814
930.67        86.31684
931.07        88.07611
931.46        90.65099
931.85        93.04592
932.24        93.76456
932.64        92.54379
933.03        89.63606
933.42        85.93395
933.82        83.46223
934.21        82.85377
934.60        83.57531
934.99         84.7209
935.39        85.34366
935.78        85.28857
936.17        84.43578
936.56        82.62323
936.96        83.51011
937.35        82.21347
937.74        82.61151
938.13        83.11922
938.53        84.06116
938.92        85.46535
939.31        87.44401
939.70        89.47605
940.09        90.00944
940.49         88.6161
940.88        85.99274
941.27        83.30163
941.66          81.895
942.05        81.94183
942.44        82.99072
942.84        84.63811
943.23        86.23212
943.62        87.35324
944.01        88.15491
944.40        88.53541
944.79         88.3383
945.18        87.54925
945.57        86.08452
945.97         84.1568
946.36        82.52424
946.75        81.69658
947.14        81.57478
947.53        81.91184
947.92        82.36865
948.31        82.86681
948.70        83.54698
949.09        84.30865
949.48        84.85556
949.87        85.02578
950.26        84.75345
950.65        84.32989
951.04           84.28
951.43        84.68805
951.82        85.42058
952.21        85.98465
952.60        85.58311
952.99         84.1045
953.38        81.87233
953.77        79.58344
954.16        78.22469
954.55        78.01102
954.94        78.71858
955.33        79.72695
955.72        79.97865
956.11        79.21478
956.50        77.72863
956.89        76.27853
957.28         76.2413
957.66        78.03397
958.05        80.92358
958.44        83.98343
958.83         85.8783
959.22         86.2449
959.61        85.43647
960.00         83.9397
960.39        82.54723
960.78        81.56661
961.16        80.84165
961.55        80.16223
961.94        79.21269
962.33        78.00027
962.72        76.77974
963.11        75.89593
963.49        75.73757
963.88        76.32805
964.27        77.56375
964.66        79.05585
965.04        79.96729
965.43        79.87692
965.82        79.07897
966.21        78.09068
966.60        77.61823
966.98        77.81471
967.37        78.40562
967.76        79.15108
968.15        79.57404
968.53         79.4887
968.92        79.03763
969.31        78.38515
969.69        77.68369
970.08        77.00822
970.47        76.34341
970.86        75.64557
971.24        74.87531
971.63        74.05381
972.02         73.1965
972.40        72.57471
972.79        72.62453
973.17        73.51289
973.56        75.03291
973.95        76.64431
974.33        77.28663
974.72        76.61411
975.11        74.98846
975.49        73.19627
975.88        72.34649
976.26        72.59783
976.65        73.69936
977.04        75.05746
977.42        75.20616
977.81        73.66741
978.19        71.07582
978.58        68.82177
978.96         68.2195
979.35        69.46007
979.74         72.2171
980.12        76.02973
980.51        78.78017
980.89        79.79183
981.28        79.47556
981.66        78.44077
982.05        77.49264
982.43        76.86639
982.82        76.30141
983.20         76.0587
983.59        76.60901
983.97        78.08174
984.35        80.48875
984.74         83.0843
985.12        84.36981
985.51        83.42025
985.89        80.50196
986.28        76.61241
986.66        73.36446
987.04        71.61856
987.43        71.10114
987.81        71.14778
988.20        70.86134
988.58        69.91505
988.96         68.1612
989.35         66.2561
989.73        66.81976
990.12        70.90769
990.50         76.9011
990.88        81.23154
991.27        81.47213
991.65         78.1895
992.03        72.18122
992.42        65.60564
992.80        62.44152
993.18        63.90653
993.56        67.87925
993.95        72.39269
994.33        75.77739
994.71        77.56373
995.10        78.65952
995.48        78.95269
995.86        78.01744
996.24        75.84655
996.63        72.07199
997.01        67.84726
997.39        66.70329
997.77        70.00556
998.15        76.91002
998.54        83.83881
998.92        85.92062
999.30        81.81056
999.68        72.72125
1000.06        61.19823
1000.45        53.43525
1000.83        51.90309
1001.21        54.53231
1001.59         59.0574
1001.97        63.10725
1002.35        66.11563
1002.73        69.14683
1003.12        71.42354
1003.50        70.53677
1003.88        65.92036
1004.26        59.11174
1004.64        52.72947
1005.02         48.6876
1005.40         46.8544
1005.78        46.70999
1006.16        49.68086
1006.54        57.13877
1006.92        65.53659
1007.30        71.81146
1007.69         75.1529
1008.07         76.3951
1008.45        76.07014
1008.83        73.16297
1009.21        63.56952
1009.59        35.13226
1009.97       -32.73445
1010.35       -111.7877
1010.73       -83.51266
1011.11       -27.80823
1011.49        8.066611
1011.86        32.80383
1012.24        46.70795
1012.62        53.05969
1013.00        55.06844
1013.38        53.87534
1013.76         51.1992
1014.14        52.70746
1014.52         62.8123
1014.90        82.37211
1015.28        104.9276
1015.66        112.5304
1016.04        95.34782
1016.41        59.16372
1016.79        23.92073
1017.17        8.396683
1017.55        9.527225
1017.93        16.67666
1018.31        24.32047
1018.69        30.05247
1019.06        34.21495
1019.44        37.46995
1019.82        41.24562
1020.20        47.55072
1020.58         58.2023
1020.95        76.95628
1021.33        98.01517
1021.71        157.3942
1022.09         136.224
1022.46        144.9336
1022.84        153.9368
1023.22        167.5604
1023.60        200.6442
1023.97        521.6205
1024.35        -19.9782
1024.73        42.63805
