SpectraSmart Spectrum 2.9.0.0
--------- Device Information -----------
Spectrum Name :  反射率_0
Saving Time :  2024/04/26 02:09:15
Spectro-Module Model Name : SE2030-DUVN
Spectro-Module Serial Number : OS361AC55029948
Wavelength Start : 200
Wavelength End : 1025
Wavelength Unit : Wavelength(nm)
Spectrum Unit : Reflectance(%)
-----------Spectrum Setting ------------
Integration Time : 20ms
Average : 10
Boxcar : 0
Background removal :  enabled
linearity correction :  enabled
SC :  disabled
Intensity correction :  disabled
DWT denoise :  enabled
savitzky-golay :  disabled
FFT :  disabled
Running average :  disabled
Kalman :  disabled
High pass :  disabled
---------------BEGIN--------------------
Wavelength(nm)             Reflectance(%)
200.29               0
200.75        95.60181
201.21         87.5024
201.67        78.08098
202.13        72.62054
202.58        71.77939
203.04        74.45076
203.50        78.49106
203.96        80.22396
204.42        78.91334
204.88         76.0989
205.34        73.65604
205.80        73.53952
206.26        76.61001
206.72        84.62585
207.18        100.8505
207.64        115.5351
208.10        106.8568
208.55        87.99813
209.01        75.93134
209.47        71.80103
209.93        72.24143
210.39        75.46809
210.85        79.36211
211.31        79.59595
211.77        74.96618
212.23        67.36156
212.69        60.04284
213.14        58.00346
213.60        61.92283
214.06        70.28245
214.52        80.12914
214.98         86.9489
215.44        89.26074
215.90        88.31049
216.36        85.42224
216.81        82.33643
217.27        80.07961
217.73         78.1996
218.19         75.9474
218.65        72.12637
219.11        65.95446
219.57        56.50703
220.02        44.67941
220.48        37.18038
220.94        37.92137
221.40        45.64348
221.86        53.45896
222.32         53.9338
222.77        47.80604
223.23         39.0624
223.69        31.82995
224.15        30.36713
224.61        34.12673
225.06        40.90823
225.52         47.5788
225.98        50.25885
226.44        48.29483
226.90        43.44949
227.36        37.90673
227.81        34.56066
228.27        34.36613
228.73        36.13921
229.19        38.89772
229.65        41.19529
230.10        42.52803
230.56        43.35659
231.02        43.94399
231.48        44.55505
231.93        45.22898
232.39        45.80676
232.85        46.18824
233.31        46.31351
233.77        46.14832
234.22        45.73864
234.68        45.11958
235.14        44.30411
235.60        43.42791
236.05        42.65392
236.51        42.07987
236.97        41.73518
237.43        41.68408
237.88        42.02934
238.34        43.06957
238.80        45.40668
239.26        49.05764
239.71        53.76741
240.17        58.46571
240.63         61.9451
241.08        63.88463
241.54        64.36182
242.00        64.14739
242.46        64.52579
242.91        66.48037
243.37        71.28922
243.83        86.38509
244.28        136.1743
244.74        193.8162
245.20        164.1225
245.66        136.0997
246.11        128.7098
246.57        133.9392
247.03        157.1666
247.48        226.7797
247.94        191.5165
248.40        117.1339
248.85        94.34122
249.31        88.10628
249.77        88.56492
250.22        93.20352
250.68        102.4007
251.14        115.9643
251.59        125.3125
252.05        121.6339
252.51        108.7849
252.96        94.69343
253.42        87.05395
253.88        85.36723
254.33        86.76801
254.79        90.44262
255.25        94.66728
255.70        98.18108
256.16        101.5278
256.62         103.201
257.07        101.5696
257.53        97.58295
257.99        91.71705
258.44        85.72525
258.90          82.712
259.35        81.72409
259.81        81.73027
260.27        80.81763
260.72        77.12751
261.18        71.51574
261.63        64.82487
262.09        58.71528
262.55          54.389
263.00        51.81124
263.46         50.4673
263.91        49.46114
264.37         48.1435
264.83        46.27972
265.28        44.00664
265.74        41.81451
266.19        40.19277
266.65        39.37458
267.11        39.05637
267.56        38.79633
268.02        38.06875
268.47        36.74619
268.93        35.00864
269.38        33.14618
269.84        31.88755
270.30        31.42069
270.75        31.54205
271.21        31.83507
271.66        31.67476
272.12        30.90749
272.57        29.74106
273.03        28.53483
273.48        27.74244
273.94        27.49205
274.39        27.57537
274.85        27.74048
275.31        27.61807
275.76        27.11355
276.22        26.38149
276.67        25.58633
277.13        25.05063
277.58        24.78564
278.04        24.70819
278.49         24.6141
278.95        24.27802
279.40        23.64549
279.86         22.8711
280.31        22.08063
280.77        21.56424
281.22        21.33568
281.68        21.31161
282.13        21.37722
282.59        21.40245
283.04        21.34226
283.50        21.27685
283.95        21.17706
284.41        21.01407
284.86        20.79255
285.32        20.52021
285.77        20.31734
286.22        20.42944
286.68        20.85047
287.13         21.4708
287.59         22.0426
288.04        22.18811
288.50        21.87344
288.95        21.22255
289.41        20.49609
289.86        19.98206
290.32        19.81504
290.77        19.89169
291.22        20.15638
291.68        20.48452
292.13        20.84058
292.59        21.27371
293.04        21.80655
293.50        22.46562
293.95        23.23693
294.40        24.07015
294.86        24.92291
295.31        25.75187
295.77        26.55859
296.22        27.37261
296.68        28.20707
297.13         29.0477
297.58        29.91591
298.04        30.82513
298.49        31.84311
298.95        33.12276
299.40         34.6653
299.85        36.41179
300.31        38.20523
300.76        39.79562
301.21        41.09795
301.67        42.21397
302.12        43.20431
302.58        44.25135
303.03        45.39131
303.48         46.6044
303.94        47.95137
304.39        49.46854
304.84        51.15534
305.30        52.98909
305.75        54.81687
306.20        56.42145
306.66        57.77053
307.11        58.87598
307.57        59.88878
308.02        60.93603
308.47        62.11116
308.93        63.38331
309.38         64.6909
309.83        65.98267
310.29        67.22319
310.74        68.39788
311.19        69.53074
311.65        70.65696
312.10        71.77196
312.55        72.87389
313.00        73.87006
313.46        74.61884
313.91        75.08493
314.36        75.32931
314.82        75.54414
315.27        75.98238
315.72         76.7323
316.18        77.72377
316.63        78.79749
317.08        79.64365
317.53        80.16849
317.99        80.44106
318.44        80.64349
318.89        81.08039
319.35        81.79977
319.80        82.72899
320.25        83.61356
320.70        84.03733
321.16        83.91638
321.61        83.39906
322.06        82.78619
322.51        82.54656
322.97        82.77689
323.42        83.37316
323.87        84.10423
324.32        84.56892
324.78        84.63982
325.23        84.48251
325.68        84.24006
326.13        84.16927
326.59        84.33103
327.04        84.65977
327.49        85.09387
327.94        85.56849
328.39        86.04092
328.85        86.51936
329.30        86.99878
329.75        87.30912
330.20        87.44241
330.66        87.43125
331.11        87.46265
331.56        87.77179
332.01        88.42965
332.46        89.34884
332.92        90.40007
333.37        91.51071
333.82        92.51836
334.27        93.44669
334.72        94.15793
335.17        94.44384
335.63        94.29691
336.08        93.82745
336.53        93.30653
336.98        93.21741
337.43        93.68256
337.88        94.57185
338.34        95.66747
338.79        96.68224
339.24        97.45481
339.69        98.08394
340.14        98.53751
340.59        98.76505
341.05        98.79977
341.50        98.63605
341.95        98.45929
342.40        98.58036
342.85        99.05966
343.30        99.82186
343.75        100.6737
344.20        101.2567
344.66        101.4685
345.11        101.3896
345.56        101.1573
346.01        100.9824
346.46        100.9415
346.91        100.9839
347.36        101.0642
347.81        101.1181
348.26         101.136
348.72        101.1675
349.17        101.2462
349.62        101.4669
350.07        101.8242
350.52        102.2532
350.97        102.6484
351.42        102.8633
351.87        102.8637
352.32        102.7002
352.77        102.4231
353.22        102.1164
353.67        101.8234
354.13        101.5422
354.58         101.278
355.03        101.0951
355.48        100.9889
355.93         100.936
356.38        100.8684
356.83        100.6731
357.28        100.3161
357.73        99.82693
358.18        99.23344
358.63        98.58592
359.08        97.91973
359.53        97.24093
359.98        96.57639
360.43        95.96361
360.88        95.40645
361.33        94.88939
361.78        94.41383
362.23        93.97542
362.68        93.56584
363.13        93.19386
363.58        92.78985
364.03        92.24448
364.48        91.54619
364.93        90.72025
365.38        89.89816
365.83        89.30013
366.28        88.95811
366.73        88.78721
367.18        88.62906
367.63        88.22431
368.08        87.52164
368.53         86.6412
368.98        85.68398
369.43        84.79065
369.88        84.02136
370.33        83.33127
370.78        82.78168
371.23        82.47881
371.68        82.41859
372.13        82.56418
372.58        82.75755
373.03         82.7227
373.48        82.38995
373.93        81.84077
374.38        81.19704
374.83        80.65506
375.28          80.272
375.72        79.97134
376.17        79.75135
376.62        79.58413
377.07        79.43651
377.52        79.30793
377.97        79.13304
378.42        78.80073
378.87        78.30604
379.32        77.70788
379.77         77.0631
380.22        76.45202
380.67        75.89557
381.11        75.36092
381.56        74.89275
382.01        74.56924
382.46        74.40114
382.91        74.39037
383.36        74.38322
383.81        74.13069
384.26        73.59893
384.71        72.85622
385.15        72.12486
385.60         71.8074
386.05        71.91962
386.50        72.32554
386.95         72.7421
387.40        72.69374
387.85        72.11067
388.29        71.17876
388.74        70.25517
389.19        69.56778
389.64        69.16102
390.09        68.89919
390.54        68.79181
390.98        68.85915
391.43        69.06704
391.88        69.40281
392.33        69.64227
392.78        69.43459
393.23        68.78282
393.67        67.82785
394.12        66.96507
394.57        66.48077
395.02        66.47855
395.47        66.96638
395.91        67.75634
396.36        68.27073
396.81        68.36784
397.26         68.2264
397.71        67.94208
398.15        67.55421
398.60         67.1997
399.05        66.89519
399.50        66.62658
399.95        66.13057
400.39        65.74603
400.84         65.4142
401.29        65.24168
401.74        65.24844
402.18        65.38236
402.63        65.33363
403.08         65.1823
403.53        65.29619
403.97        65.67239
404.42         66.0708
404.87        66.34389
405.32        66.29796
405.76        65.87547
406.21        65.32474
406.66        64.79523
407.11        64.21525
407.55        63.80018
408.00        64.15041
408.45        65.06593
408.90        65.45667
409.34        65.14229
409.79        64.67179
410.24        64.24616
410.68        63.96802
411.13        63.91512
411.58        64.01031
412.03        64.20067
412.47        64.42639
412.92        64.60265
413.37        64.77418
413.81         64.8901
414.26        64.91527
414.71        64.82726
415.15        64.61198
415.60        64.35009
416.05        64.19727
416.49        64.19711
416.94        64.34158
417.39        64.47822
417.83        64.33212
418.28        63.88042
418.73        63.22163
419.17        62.64684
419.62        62.61274
420.07        63.15007
420.51         64.0973
420.96        65.09586
421.41        65.47112
421.85        65.04795
422.30        64.34862
422.74        63.59422
423.19        62.73399
423.64         62.0654
424.08        62.56264
424.53        63.93068
424.98        64.67992
425.42        64.59302
425.87        64.52583
426.31        64.61508
426.76        64.53409
427.21        64.48462
427.65        64.92332
428.10        65.66169
428.54        66.55998
428.99        66.94617
429.44        67.02134
429.88        66.73604
430.33         67.4165
430.77        68.42401
431.22        67.37378
431.66        64.82268
432.11        63.53522
432.56        63.85849
433.00        64.69035
433.45        65.79535
433.89        67.63352
434.34        69.07423
434.78        68.97606
435.23        66.89474
435.67        64.48905
436.12        66.78549
436.57        67.60432
437.01        68.13554
437.46        68.39768
437.90        68.46488
438.35        68.65619
438.79        68.89336
439.24        68.98475
439.68         68.9423
440.13        68.61369
440.57        68.35131
441.02        69.24873
441.46        70.89697
441.91        71.78084
442.35        71.63872
442.80        70.65634
443.24        69.33772
443.69        69.87612
444.13        71.86363
444.58        71.92213
445.02         70.2625
445.47        69.96825
445.91        71.15772
446.36        71.47745
446.80        70.91859
447.24        70.65892
447.69        70.78753
448.13        70.84882
448.58        70.92988
449.02        71.38351
449.47        72.08205
449.91        72.53625
450.36        72.67967
450.80        72.73027
451.25        72.70524
451.69         72.5186
452.13        72.22022
452.58         71.8461
453.02        71.51241
453.47        71.44216
453.91        71.65172
454.36        72.07883
454.80        72.56399
455.24        72.75923
455.69        72.59693
456.13        72.27899
456.58        71.97408
457.02        71.53239
457.46        71.13989
457.91        71.49706
458.35        71.95721
458.79        72.20092
459.24        72.04643
459.68        71.81606
460.13        71.55225
460.57        71.23676
461.01        70.97943
461.46        70.52182
461.90        69.82856
462.34        70.47607
462.79        69.89939
463.23        70.16696
463.68        70.45786
464.12        70.94302
464.56        71.40015
465.01        71.40876
465.45        70.96618
465.89        70.58103
466.34        70.20952
466.78        69.37159
467.22        68.60107
467.67        67.57942
468.11        69.25758
468.55        69.99551
468.99        70.30914
469.44        70.06688
469.88        69.46771
470.32        69.33423
470.77        69.62035
471.21        69.54327
471.65        69.08814
472.10        68.88446
472.54        68.96685
472.98        69.06201
473.42        69.14421
473.87        69.42258
474.31        69.73518
474.75         69.6018
475.20        69.13384
475.64        68.91701
476.08        68.99787
476.52        68.95214
476.97        68.79806
477.41         68.8378
477.85        69.01897
478.29        69.01623
478.74        69.28437
479.18        68.90616
479.62        68.23402
480.06        68.71774
480.50        68.92149
480.95        69.32165
481.39        69.51958
481.83        68.50211
482.27        68.81374
482.72        68.83423
483.16         67.5266
483.60         67.8642
484.04        69.30834
484.48        69.57681
484.93        69.16668
485.37        70.61761
485.81        71.24729
486.25        69.90124
486.69        94.26976
487.14        76.39886
487.58          47.619
488.02        58.36691
488.46        66.90572
488.90         66.6603
489.34        68.18987
489.79         67.0015
490.23        69.21586
490.67        69.87106
491.11        68.69986
491.55        68.62243
491.99        69.21404
492.43        69.11356
492.88        68.39478
493.32        68.40905
493.76        68.65916
494.20        68.98296
494.64        69.13298
495.08        69.30186
495.52         69.5267
495.96        69.56033
496.41        69.37559
496.85        69.76746
497.29        70.46427
497.73        69.26089
498.17        67.15973
498.61        67.29585
499.05        69.67558
499.49        70.18656
499.93        70.30266
500.37         70.0806
500.82        69.45426
501.26        69.56405
501.70         70.1343
502.14        70.37229
502.58        70.14452
503.02        69.97301
503.46        69.86501
503.90        69.51644
504.34        69.06613
504.78        68.86472
505.22        68.94346
505.66        69.25925
506.10        69.70238
506.54        69.81422
506.98        69.47158
507.42        69.60036
507.86         69.3231
508.30        68.67609
508.74        69.15385
509.18        69.30107
509.62        69.53904
510.06        69.68642
510.50        69.72113
510.94        69.66657
511.38        69.56235
511.82         69.5098
512.26        69.53141
512.70        69.59491
513.14        69.67489
513.58        69.73668
514.02        69.76277
514.46        69.76112
514.90        69.74926
515.34        69.73556
515.78         69.7147
516.22        69.74926
516.66        69.81544
517.10        69.70259
517.54        69.40641
517.98         69.5706
518.42        69.36774
518.86        69.50434
519.30        69.72086
519.74        70.05608
520.18        70.40977
520.62        70.61171
521.06        70.63156
521.50        70.51566
521.93        70.33012
522.37        70.18506
522.81        70.12457
523.25        70.11694
523.69        70.15697
524.13        70.23669
524.57        70.34375
525.01        70.48242
525.45        70.61983
525.89        70.69875
526.32        70.69724
526.76        70.62503
527.20         70.5087
527.64        70.41289
528.08        70.37322
528.52        70.32032
528.96         70.2102
529.40        70.17049
529.83        70.23371
530.27        69.65214
530.71        69.84888
531.15        69.78932
531.59        69.89517
532.03        70.09356
532.46        70.36155
532.90        70.62766
533.34        70.84328
533.78        71.02496
534.22        71.13097
534.66        71.10944
535.09        70.95131
535.53        70.69886
535.97        70.41369
536.41         70.2173
536.85        70.14574
537.28        70.17608
537.72         70.2507
538.16        70.28431
538.60        70.25458
539.04        70.13105
539.47        69.95261
539.91        70.00169
540.35        70.21995
540.79        70.21506
541.22        69.96938
541.66        70.09258
542.10        70.02042
542.54        70.02944
542.97        69.97087
543.41        69.99442
543.85        70.09339
544.29         70.2548
544.72        70.39044
545.16        70.37749
545.60        70.19028
546.04        69.87008
546.47         69.5666
546.91        69.52187
547.35        69.77272
547.79        70.28784
548.22        70.82318
548.66        70.95988
549.10        70.63224
549.53        70.01014
549.97        69.37099
550.41        69.04589
550.84        69.11423
551.28          69.499
551.72        70.04397
552.15        70.35148
552.59        70.30946
553.03        70.50173
553.46        70.15022
553.90         70.0575
554.34        70.01888
554.77        69.93262
555.21        69.82709
555.65        69.88652
556.08        70.07133
556.52        70.01168
556.96        70.06309
557.39        69.96413
557.83        69.89275
558.27        69.90338
558.70        70.00526
559.14        70.14233
559.57        70.28805
560.01          70.441
560.45        70.57473
560.88        70.72121
561.32        70.81511
561.75        70.63181
562.19        70.27462
562.63        69.80888
563.06        69.41093
563.50        69.56304
563.93        70.12208
564.37        70.39441
564.80        70.29177
565.24        70.26321
565.68        70.32579
566.11        70.21535
566.55        70.18095
566.98         70.0926
567.42        70.04766
567.85        70.10014
568.29        70.29935
568.72        70.41782
569.16        70.58033
569.60        71.04848
570.03        71.45522
570.47        71.35904
570.90        71.07967
571.34        69.26823
571.77        69.98138
572.21         70.2134
572.64         69.4902
573.08        68.63895
573.51        65.93854
573.95        68.41798
574.38        72.29217
574.82        70.47359
575.25        69.97542
575.69        67.64415
576.12        66.65787
576.56        66.22115
576.99         67.6246
577.42         70.4368
577.86        70.94594
578.29        69.98719
578.73          73.496
579.16        67.71629
579.60        62.02161
580.03         64.8579
580.47        69.13814
580.90        70.52876
581.33        69.33334
581.77        68.64692
582.20        75.20883
582.64          74.842
583.07        63.90944
583.51        62.80859
583.94        61.89994
584.37        64.77578
584.81        67.98582
585.24        71.48283
585.68        73.09813
586.11        71.65865
586.54        66.56161
586.98        64.79871
587.41         65.2843
587.85        68.88908
588.28        71.34439
588.71        67.89119
589.15        65.76866
589.58        67.21127
590.01        67.53111
590.45        68.55003
590.88        69.23444
591.31         68.5358
591.75         68.1679
592.18        68.30382
592.61        69.79971
593.05        70.46743
593.48        73.42936
593.91        73.69973
594.35        67.77084
594.78        66.44429
595.21        66.26337
595.65        69.18536
596.08         71.5985
596.51        68.82376
596.94        67.34265
597.38        68.09937
597.81        70.57569
598.24        72.38314
598.68        70.47836
599.11         69.4471
599.54        72.49528
599.97        73.37517
600.41        68.64103
600.84        68.68738
601.27        70.16817
601.70        69.08892
602.14        69.13794
602.57        68.10802
603.00        68.60667
603.43        70.20874
603.87        71.81141
604.30        71.40979
604.73        69.36757
605.16        67.86109
605.60        68.78063
606.03        69.83658
606.46         70.8078
606.89        70.65652
607.32        68.35019
607.76        68.18308
608.19        70.52202
608.62        69.62234
609.05        68.42299
609.48        69.00389
609.92        69.00932
610.35        68.74153
610.78        71.10413
611.21        71.12726
611.64        68.47961
612.07        69.15553
612.50        69.52837
612.94        69.89159
613.37        69.27361
613.80        69.34384
614.23        70.09245
614.66        70.04047
615.09        70.19281
615.52        70.16222
615.96         70.0668
616.39        70.16377
616.82        69.29639
617.25        68.65955
617.68        69.50487
618.11        70.06178
618.54        70.50404
618.97        70.05565
619.40         69.1196
619.84        69.01134
620.27        70.19717
620.70         70.8246
621.13        70.87054
621.56        70.35143
621.99        69.55388
622.42        70.30415
622.85        72.12388
623.28        71.81523
623.71        70.91151
624.14        71.22989
624.57        70.85573
625.00        70.09921
625.43        70.79865
625.86        70.23613
626.29        70.44146
626.72         71.0141
627.15          70.794
627.58        70.96017
628.01        70.94881
628.44         71.2793
628.87        70.88955
629.30        71.04217
629.73        71.54501
630.16        71.88485
630.59        71.31527
631.02        70.87998
631.45        70.49788
631.88        70.22032
632.31        70.09412
632.74         70.1199
633.17         70.2431
633.60        70.34547
634.03        70.39002
634.46         70.4076
634.89          70.411
635.32        70.42313
635.75        70.45229
636.18        70.47719
636.61        70.50092
637.04        70.54142
637.47        70.59663
637.89        70.66888
638.32        70.72086
638.75        70.73751
639.18        70.71251
639.61        70.66071
640.04        70.57932
640.47         70.4631
640.90        70.32677
641.33        70.17451
641.76        70.02962
642.18        70.03091
642.61        70.18808
643.04         70.2974
643.47          70.271
643.90         70.8826
644.33        70.64359
644.76        70.75474
645.18        70.76992
645.61        70.69283
646.04        70.51974
646.47        70.25383
646.90        70.01494
647.33        69.94472
647.75        70.08618
648.18        70.43644
648.61        70.78938
649.04        70.79516
649.47        70.40622
649.89        69.67756
650.32        68.97095
650.75         68.8466
651.18        69.32817
651.61        70.05126
652.03        70.63564
652.46        70.70736
652.89         70.5862
653.32        69.92821
653.74        69.11025
654.17        70.67204
654.60        71.52948
655.03        68.66199
655.46        69.89109
655.88        73.19052
656.31        78.21312
656.74        173.7224
657.16        112.1733
657.59        39.84443
658.02        30.35933
658.45        52.99548
658.87        67.73666
659.30         71.2951
659.73        70.10836
660.15        67.87421
660.58        70.22543
661.01         71.9814
661.44        69.67928
661.86        68.90211
662.29        68.87055
662.72        69.63073
663.14        70.92166
663.57        70.82153
664.00        69.61531
664.42        69.38635
664.85        70.21262
665.27        70.75834
665.70        70.79226
666.13        70.70151
666.55        70.45916
666.98        69.94794
667.41         69.3699
667.83        69.11352
668.26        69.26188
668.69        69.66581
669.11        70.08214
669.54        70.46298
669.96        70.07348
670.39        69.56329
670.82        68.96481
671.24        68.69817
671.67        68.87098
672.09        69.26643
672.52        69.63663
672.94          70.181
673.37         69.6684
673.80        69.57141
674.22          69.581
674.65        69.53135
675.07        69.41042
675.50        69.18043
675.92        68.93937
676.35         68.9054
676.77        69.10622
677.20        69.40533
677.62        69.71539
678.05        69.89532
678.47        69.89429
678.90        69.77126
679.32        69.61427
679.75        69.43218
680.17        69.52863
680.60        69.63979
681.02        69.75703
681.45        69.69155
681.87        69.42236
682.30        69.07932
682.72        68.78039
683.15        68.55812
683.57        68.54874
684.00        68.97356
684.42        69.78778
684.85        70.16336
685.27        70.04147
685.70        69.75669
686.12        69.43349
686.54        69.21294
686.97        69.14589
687.39        69.19623
687.82         69.2961
688.24        69.39143
688.66        69.43648
689.09        69.46083
689.51        69.48476
689.94        69.51602
690.36        69.56929
690.78         69.6012
691.21        69.60992
691.63        69.67289
692.06         69.7597
692.48         69.7247
692.90        69.61362
693.33        69.60754
693.75        69.72752
694.17        69.89393
694.60        70.03757
695.02        70.11654
695.44        70.08863
695.87        69.97953
696.29         69.8877
696.71        69.85035
697.14        69.91919
697.56        70.31663
697.98        70.83192
698.41        70.77502
698.83        70.11298
699.25        69.85387
699.68        70.00066
700.10        70.02002
700.52        69.90963
700.94        70.01923
701.37        70.30791
701.79         70.5841
702.21        70.77599
702.64        70.95074
703.06        71.04181
703.48        70.93011
703.90        70.62473
704.33         70.1673
704.75        69.68687
705.17         69.4762
705.59        69.60661
706.01        69.88654
706.44        70.16624
706.86        70.79006
707.28        70.74492
707.70         70.8429
708.12        70.84784
708.55        70.68788
708.97        70.60813
709.39         70.4045
709.81        70.21559
710.23        70.14181
710.66        70.21004
711.08         70.4233
711.50        70.65466
711.92        70.71736
712.34        70.57243
712.76        70.26458
713.19        69.94013
713.61        69.86824
714.03        70.09161
714.45         70.5268
714.87        70.98348
715.29        71.16077
715.71        70.99261
716.13        70.57813
716.56        70.09231
716.98        69.84658
717.40        69.91613
717.82        70.20575
718.24        70.57771
718.66        70.79964
719.08        70.80231
719.50        70.66117
719.92        70.45281
720.34        70.31518
720.76        70.29395
721.19        70.22739
721.61        70.31503
722.03        70.39152
722.45        70.50072
722.87        70.64117
723.29        70.79118
723.71        70.90289
724.13        70.96002
724.55        70.97213
724.97        70.94511
725.39        70.89659
725.81        70.83889
726.23        70.77077
726.65        70.71604
727.07        70.70951
727.49        70.75934
727.91        70.86353
728.33        70.98876
728.75        71.07491
729.17        71.10229
729.59        71.07947
730.01        71.05026
730.43        71.07819
730.85        71.18242
731.27        71.36923
731.69        71.56721
732.10         71.6392
732.52        71.55795
732.94        71.40591
733.36        71.30823
733.78        71.32848
734.20        71.48178
734.62         72.0376
735.04        72.78989
735.46        72.68127
735.88        71.96874
736.30        72.28451
736.72        73.52425
737.13        73.98018
737.55         73.4126
737.97        73.10606
738.39         73.1848
738.81        72.63164
739.23        71.79612
739.65        72.60135
740.06        74.56548
740.48         74.7427
740.90        73.24253
741.32        72.58509
741.74        73.00424
742.16        73.21793
742.57        73.27325
742.99        73.91342
743.41        74.93898
743.83        75.58593
744.25        75.71913
744.67        75.53381
745.08        75.23041
745.50        75.12916
745.92        75.33539
746.34        75.73458
746.75        76.17738
747.17        76.41294
747.59        76.40002
748.01        76.22227
748.42        76.06093
748.84         76.1969
749.26        76.69563
749.68        77.39378
750.09        78.10308
750.51        78.63901
750.93        78.87143
751.35        78.55933
751.76        77.91797
752.18        77.70959
752.60         77.9434
753.01         78.0094
753.43        77.89491
753.85        78.04292
754.27        78.46407
754.68         78.9564
755.10        79.42002
755.52        79.84205
755.93        80.16163
756.35        80.32412
756.77        80.42249
757.18        80.46642
757.60        80.45908
758.02        80.81483
758.43        81.27348
758.85        80.54551
759.26        78.93472
759.68        79.03416
760.10        80.61565
760.51        81.14359
760.93         80.4707
761.34        78.71416
761.76        78.74164
762.18        78.23269
762.59        78.11254
763.01         78.5965
763.42        79.61154
763.84        80.39393
764.26        80.77452
764.67        80.97005
765.09        80.93689
765.50        80.66626
765.92        80.16537
766.33        78.98073
766.75        77.57512
767.16        77.22237
767.58         78.0491
768.00        79.44901
768.41        81.09118
768.83        82.51739
769.24        83.14252
769.66        82.45238
770.07        80.96718
770.49         79.3764
770.90        78.18546
771.32        79.16263
771.73        81.58263
772.15        81.15625
772.56        78.32381
772.97        77.68247
773.39        79.18158
773.80        79.63565
774.22         78.8623
774.63        78.80227
775.05        79.38354
775.46        79.67123
775.88        79.54825
776.29        79.27669
776.70         78.9781
777.12        78.87477
777.53        79.03452
777.95        79.33669
778.36        79.60126
778.77        79.52154
779.19        79.07989
779.60        78.38309
780.02         77.7243
780.43        77.59594
780.84        78.13269
781.26        78.85848
781.67        79.60258
782.09         80.6815
782.50        81.63673
782.91        80.81034
783.33        78.82267
783.74        78.11502
784.15        78.82826
784.57        79.35104
784.98        79.41589
785.39        79.32268
785.81        79.06655
786.22        78.66653
786.63        78.37187
787.04        78.46263
787.46        78.97433
787.87        79.86781
788.28          80.855
788.70         81.3487
789.11        81.21535
789.52         80.7301
789.93        80.12437
790.35        79.53298
790.76         79.1499
791.17        79.33378
791.58        79.92464
792.00        80.21922
792.41        80.09722
792.82        79.93638
793.23        79.92633
793.65        79.77316
794.06        79.67863
794.47        80.75329
794.88        82.25911
795.29        81.70744
795.71        79.35751
796.12        77.17636
796.53        75.85603
796.94        75.59921
797.35        76.44116
797.76         77.7873
798.18        79.01534
798.59        79.83104
799.00        79.89948
799.41        78.94701
799.82         77.4942
800.23        76.70665
800.64        76.81923
801.06        77.39893
801.47        78.24032
801.88        78.89167
802.29        79.17114
802.70        79.25586
803.11        79.19326
803.52        79.02766
803.93        78.81774
804.34        78.50657
804.75        78.20686
805.17        78.19251
805.58        78.54403
805.99        78.95914
806.40        79.25598
806.81        79.70705
807.22        79.94662
807.63        78.74282
808.04        76.66869
808.45        75.75374
808.86        76.20866
809.27        77.06982
809.68        77.93302
810.09        78.44698
810.50        78.39835
810.91        77.91454
811.32        77.26559
811.73        76.88717
812.14        76.89801
812.55        77.11983
812.96         77.4642
813.37        77.77278
813.78        77.96272
814.19        78.14552
814.60         78.1773
815.01        77.81403
815.42        77.05675
815.83        75.94399
816.24        74.88583
816.65        74.60676
817.05        75.31039
817.46        76.75878
817.87        78.38305
818.28        79.15257
818.69        78.78427
819.10         77.5257
819.51        76.01397
819.92        75.34017
820.33        75.79109
820.74        77.03598
821.14        78.47266
821.55        79.02582
821.96        78.46559
822.37        77.16827
822.78        75.69492
823.19        74.86237
823.60        74.89186
824.00        75.58504
824.41         76.5275
824.82        77.12273
825.23        77.12809
825.64        76.74778
826.04        76.24732
826.45        76.01033
826.86        76.12698
827.27        76.43431
827.68        76.75901
828.08        76.86192
828.49        76.60722
828.90        76.14939
829.31        75.59087
829.72        75.10728
830.12        74.81658
830.53         74.6447
830.94        74.65075
831.35        74.89838
831.75        75.40732
832.16        76.09492
832.57         76.8278
832.97        77.29585
833.38        77.33758
833.79        77.03655
834.20        76.57401
834.60        76.23333
835.01        76.12592
835.42        76.17669
835.82        76.28896
836.23        76.21599
836.64        75.93969
837.04        75.55465
837.45        75.21084
837.86        75.14656
838.26         75.4149
838.67        75.89385
839.08        76.42695
839.48        76.73336
839.89        76.69613
840.29        76.42294
840.70        76.02158
841.11        75.63771
841.51        75.34032
841.92        75.07152
842.33        74.88348
842.73         74.8723
843.14        75.00581
843.54        75.29649
843.95        75.58993
844.35        75.68666
844.76        75.52409
845.17        75.17691
845.57        74.75806
845.98         74.4565
846.38        74.32713
846.79        74.28802
847.19        74.33834
847.60        74.38819
848.00        74.43784
848.41        74.48817
848.81        74.52776
849.22        74.45605
849.62        74.31395
850.03        74.13005
850.43        74.00596
850.84         74.0509
851.24        74.33802
851.65        74.65604
852.05        75.11454
852.46        75.71171
852.86        76.40646
853.27        77.21944
853.67        77.65027
854.07        77.05601
854.48        75.47775
854.88        73.14516
855.29        70.91034
855.69        70.01022
856.10        70.68376
856.50        72.78145
856.90        75.52863
857.31        77.12335
857.71        76.99283
858.12        75.59052
858.52        73.78152
858.92        72.70585
859.33        72.61279
859.73        73.19185
860.13        74.17097
860.54        74.98729
860.94        75.45684
861.34        75.71967
861.75        75.85908
862.15        76.08454
862.55        76.41782
862.96        76.76214
863.36        77.05112
863.76        77.16534
864.17        77.08391
864.57        76.91001
864.97        76.78999
865.38        76.92574
865.78        77.39455
866.18        78.05386
866.58        78.74911
866.99        79.20747
867.39        79.39591
867.79        79.41325
868.19        79.21948
868.60        78.74518
869.00        78.05192
869.40        77.17461
869.80        76.58568
870.21        76.99124
870.61        78.58317
871.01         81.1509
871.41        83.92798
871.81        85.58973
872.22        85.78505
872.62        84.85826
873.02        83.58484
873.42        83.38039
873.82        84.37906
874.22        85.87549
874.63        87.43341
875.03        88.10261
875.43        87.44633
875.83        86.67203
876.23        84.75583
876.63        83.87217
877.03        84.01623
877.44        85.33088
877.84         103.584
878.24        92.52882
878.64        93.07124
879.04        93.00607
879.44        89.46735
879.84        87.48882
880.24        90.60942
880.64        92.05124
881.04        92.34487
881.44        92.19857
881.84        91.33937
882.24         89.9633
882.65        88.84025
883.05        88.61875
883.45        89.39619
883.85        91.20814
884.25        93.36965
884.65          94.431
885.05        93.98606
885.45        92.53754
885.85        90.88472
886.25        90.12661
886.65        90.50607
887.05        91.67065
887.45        93.21298
887.85        94.39641
888.25        94.91932
888.65         95.0163
889.04        94.84879
889.44        94.70928
889.84        94.68034
890.24         94.6157
890.64        94.51715
891.04        94.43458
891.44        94.35151
891.84        94.29117
892.24        94.17315
892.64        93.81365
893.04        93.25796
893.44        92.68765
893.83        92.21868
894.23        92.01948
894.63         92.1081
895.03        92.33577
895.43        92.88902
895.83        94.07469
896.23        95.83167
896.63        98.04288
897.02         99.8772
897.42        100.0027
897.82        98.25591
898.22        95.13425
898.62        91.86369
899.01        90.24885
899.41        90.67565
899.81        92.53346
900.21        94.93652
900.61         96.4356
901.00        96.58875
901.40        95.87036
901.80        94.73544
902.20         93.8759
902.59        93.52895
902.99        93.43978
903.39        93.46964
903.79        93.42762
904.18        93.25521
904.58        93.12121
904.98        93.11893
905.38        93.34612
905.77        93.78391
906.17        94.33022
906.57         94.8807
906.96        95.35759
907.36        95.65802
907.76        95.80952
908.15        95.77103
908.55        95.36974
908.95         94.6619
909.34        93.69086
909.74        92.71204
910.14        91.93793
910.53        91.47028
910.93        91.31641
911.33        91.46057
911.72        91.87099
912.12        92.39835
912.52        92.94503
912.91        93.47789
913.31         93.9833
913.70        94.50719
914.10        95.06586
914.49        95.40305
914.89        94.88999
915.29        93.49841
915.68        91.50181
916.08        89.85818
916.47        89.41979
916.87         90.2281
917.26        91.99772
917.66        93.90472
918.05        94.60513
918.45        93.75263
918.84        91.82214
919.24        89.67253
919.64        88.55291
920.03        88.80831
920.42        90.05764
920.82         91.7585
921.21        93.09878
921.61        93.60219
922.00        93.56316
922.40        93.12997
922.79        92.50853
923.19         91.8794
923.58        91.09267
923.98        90.15491
924.37         89.5266
924.77        89.53877
925.16        87.96886
925.55         89.0559
925.95        90.03262
926.34        92.05815
926.74        94.59839
927.13        96.94389
927.52        97.69052
927.92        96.67884
928.31        94.41678
928.70        91.56726
929.10        89.26256
929.49        87.85914
929.89        87.07838
930.28        87.10128
930.67        88.20716
931.07         90.1624
931.46         92.9296
931.85        95.50229
932.24        96.36617
932.64          95.249
933.03        92.38315
933.42        88.64533
933.82        86.06308
934.21        85.29156
934.60        85.83264
934.99        86.81917
935.39        87.29246
935.78        87.09079
936.17        86.14645
936.56        84.34831
936.96        85.12788
937.35        84.11948
937.74        84.69495
938.13        85.35674
938.53        86.36288
938.92        87.74741
939.31        89.64854
939.70        91.53373
940.09        91.87803
940.49        90.30151
940.88        87.50507
941.27        84.72281
941.66        83.39147
942.05        83.66733
942.44        85.06999
942.84        87.07332
943.23        88.79658
943.62        89.75593
944.01        90.17709
944.40        90.08263
944.79         89.5114
945.18        88.49639
945.57        86.88138
945.97        84.88322
946.36         83.2541
946.75        82.49369
947.14        82.55492
947.53        83.04144
947.92        83.44312
948.31        83.67975
948.70        83.87312
949.09        84.18977
949.48         84.9202
949.87        86.04666
950.26        87.30469
950.65        88.36002
951.04        88.81007
951.43        88.58253
951.82        87.83408
952.21        86.69204
952.60        85.42905
952.99         84.2028
953.38        82.92747
953.77        81.87583
954.16        81.40677
954.55        81.54009
954.94        82.29917
955.33        83.04314
955.72        82.65929
956.11        80.94365
956.50        78.13879
956.89        75.41442
957.28        74.94006
957.66        77.33549
958.05        81.68932
958.44        86.40842
958.83        89.12606
959.22        89.24632
959.61        87.35957
960.00          84.547
960.39         82.6045
960.78        82.08942
961.16        82.55421
961.55        83.13455
961.94        82.38436
962.33        80.07028
962.72        76.92391
963.11        74.05186
963.49        72.81036
963.88        73.42851
964.27        75.56213
964.66        78.40887
965.04        80.20747
965.43        80.15153
965.82        78.82647
966.21        77.21513
966.60        76.64002
966.98        77.36698
967.37        78.89817
967.76        80.67309
968.15        81.62845
968.53        81.39436
968.92        80.36378
969.31        79.01686
969.69        77.91405
970.08        77.23603
970.47        76.84158
970.86         76.5821
971.24        76.23692
971.63        75.74434
972.02         75.1823
972.40          74.845
972.79        75.18759
973.17        76.38511
973.56        78.18028
973.95         79.9796
974.33        80.66727
974.72        79.88445
975.11        78.01149
975.49        75.93117
975.88        74.85913
976.26        74.95861
976.65        75.96761
977.04        77.17403
977.42        76.88886
977.81        74.64395
978.19        71.24016
978.58        68.32981
978.96         67.4921
979.35        68.94385
979.74        72.30849
980.12        76.98646
980.51        80.45166
980.89        81.80003
981.28        81.53105
981.66        80.37766
982.05         79.3468
982.43        78.71955
982.82        78.14748
983.20        77.90885
983.59        78.51775
983.97        80.11143
984.35        82.75327
984.74         85.5737
985.12        86.78876
985.51        85.36691
985.89        81.62405
986.28        76.91737
986.66         73.4749
987.04        72.21632
987.43        72.59952
987.81        73.49213
988.20        73.45706
988.58        72.03122
988.96        69.02274
989.35        65.09168
989.73        63.86235
990.12        67.58131
990.50        74.53291
990.88         80.2708
991.27        81.52631
991.65        78.84843
992.03        73.24976
992.42        67.17859
992.80        65.00926
993.18        67.80415
993.56        73.07639
993.95        78.42556
994.33        81.69129
994.71         82.4554
995.10        81.87627
995.48        80.20511
995.86        77.54095
996.24        74.06292
996.63        69.35248
997.01        64.50632
997.39         62.9528
997.77        66.09647
998.15        73.19961
998.54        80.92226
998.92        84.74628
999.30         83.3483
999.68        77.80088
1000.06         69.8044
1000.45        63.71671
1000.83        61.41129
1001.21         61.5241
1001.59         63.1291
1001.97        65.25584
1002.35        67.57899
1002.73        70.99714
1003.12        74.38959
1003.50        74.20327
1003.88        69.28298
1004.26        61.53947
1004.64         54.6494
1005.02        51.76148
1005.40        53.12678
1005.78        58.73113
1006.16        69.15624
1006.54        79.18622
1006.92        82.35093
1007.30        80.53519
1007.69        77.28589
1008.07        74.88828
1008.45        73.04633
1008.83         70.1557
1009.21        62.66184
1009.59        38.44328
1009.97       -26.09045
1010.35       -108.3952
1010.73       -85.75478
1011.11        -29.0433
1011.49        9.763162
1011.86        36.48625
1012.24        51.62343
1012.62        58.84833
1013.00        61.66236
1013.38        61.64527
1013.76        60.76501
1014.14        64.54649
1014.52        77.13496
1014.90        99.08869
1015.28        123.9187
1015.66        134.4574
1016.04        120.6378
1016.41        86.75729
1016.79        50.76006
1017.17         30.8549
1017.55        26.57277
1017.93        29.02243
1018.31        33.33191
1018.69        37.23286
1019.06        40.69049
1019.44        44.15863
1019.82        48.99414
1020.20          56.604
1020.58        68.20662
1020.95        87.09772
1021.33        110.4598
1021.71         51.9313
1022.09         119.074
1022.46        130.7803
1022.84        139.4024
1023.22        150.7075
1023.60        176.8788
1023.97        426.5069
1024.35        5.714753
1024.73         54.1027
