SpectraSmart Spectrum 2.9.0.0
--------- Device Information -----------
Spectrum Name :  反射率_0
Saving Time :  2024/04/26 01:43:29
Spectro-Module Model Name : SE2030-DUVN
Spectro-Module Serial Number : OS361AC55029948
Wavelength Start : 200
Wavelength End : 1025
Wavelength Unit : Wavelength(nm)
Spectrum Unit : Reflectance(%)
-----------Spectrum Setting ------------
Integration Time : 20ms
Average : 10
Boxcar : 0
Background removal :  enabled
linearity correction :  enabled
SC :  disabled
Intensity correction :  disabled
DWT denoise :  enabled
savitzky-golay :  disabled
FFT :  disabled
Running average :  disabled
Kalman :  disabled
High pass :  disabled
---------------BEGIN--------------------
Wavelength(nm)             Reflectance(%)
200.29               0
200.75        85.27174
201.21         77.2484
201.67        68.13388
202.13        62.59455
202.58        61.20847
203.04        63.02353
203.50        66.53703
203.96        69.05522
204.42        69.65283
204.88        69.15019
205.34        68.59749
205.80         69.1924
206.26        71.62128
206.72        77.23102
207.18        87.55497
207.64        94.18835
208.10        83.88849
208.55        68.65168
209.01        60.28361
209.47        58.96463
209.93        61.89471
210.39        68.07587
210.85        74.63255
211.31        75.11488
211.77        67.77752
212.23         55.2828
212.69        42.91287
213.14        38.76237
213.60        44.24892
214.06        57.08668
214.52        72.56635
214.98         83.2833
215.44        86.98227
215.90        85.83154
216.36        82.14574
216.81        79.08295
217.27         77.8594
217.73        77.27122
218.19        76.20698
218.65        73.13985
219.11        67.19936
219.57        57.73485
220.02        45.28102
220.48        35.75961
220.94        33.35918
221.40        37.71069
221.86        43.52439
222.32        44.59859
222.77        41.04248
223.23        35.72473
223.69        31.69857
224.15        32.21759
224.61        36.75378
225.06        43.55637
225.52        49.87842
225.98        52.32851
226.44        50.39313
226.90        45.69431
227.36          40.228
227.81        36.64408
228.27        35.88486
228.73        36.87907
229.19        38.95669
229.65        41.10803
230.10        42.78612
230.56        44.18005
231.02        45.17674
231.48        45.59151
231.93         45.4765
232.39        44.93283
232.85        44.06789
233.31        43.13197
233.77        42.21567
234.22        41.23779
234.68        40.40424
235.14        40.02814
235.60        40.20452
236.05        40.93357
236.51        41.80018
236.97        42.13504
237.43        41.81279
237.88        40.93612
238.34        39.99206
238.80        40.41793
239.26        42.85177
239.71         47.0332
240.17        51.71285
240.63        55.12341
241.08        56.71839
241.54        56.76397
242.00        56.23715
242.46        56.66475
242.91        59.17202
243.37        65.61053
243.83        84.46615
244.28        138.6403
244.74         186.982
245.20         144.606
245.66        113.8588
246.11        106.7212
246.57        113.6498
247.03         142.713
247.48        234.7937
247.94        210.2834
248.40        117.0032
248.85        85.68183
249.31         75.6758
249.77        74.44112
250.22        78.17539
250.68        86.73878
251.14        99.41076
251.59        106.7373
252.05        100.3277
252.51        84.96927
252.96        70.07692
253.42        64.16076
253.88        66.33476
254.33         73.0419
254.79        81.60011
255.25        87.78826
255.70        90.35637
256.16        91.25224
256.62        90.48873
257.07         87.8577
257.53         84.1973
257.99        79.35795
258.44        74.54028
258.90        72.15528
259.35        71.32108
259.81        71.30424
260.27        70.44353
260.72        67.09775
261.18        62.03249
261.63         55.9789
262.09        50.49244
262.55        46.72563
263.00        44.62508
263.46        43.67432
263.91        42.98895
264.37        41.87742
264.83        40.15219
265.28        37.98035
265.74        35.90157
266.19        34.49557
266.65        33.96589
267.11        33.96177
267.56        34.00145
268.02        33.50654
268.47         32.3648
268.93        30.77704
269.38        29.03743
269.84        27.87261
270.30        27.46979
270.75        27.62482
271.21        27.94284
271.66        27.83764
272.12        27.16077
272.57        26.11245
273.03        25.02366
273.48        24.30914
273.94        24.08586
274.39         24.1617
274.85        24.30706
275.31        24.18995
275.76        23.72696
276.22        23.06208
276.67        22.33951
277.13        21.84451
277.58        21.58802
278.04        21.49298
278.49        21.39522
278.95        21.11399
279.40         20.6022
279.86        19.99399
280.31        19.36695
280.77        18.93155
281.22        18.69529
281.68        18.60069
282.13        18.59606
282.59        18.63532
283.04         18.6858
283.50        18.78747
283.95        18.85986
284.41        18.79147
284.86        18.57116
285.32        18.24059
285.77        17.94992
286.22        17.98428
286.68        18.35558
287.13        18.94481
287.59        19.51493
288.04        19.71037
288.50        19.48916
288.95        18.96462
289.41         18.3629
289.86        17.92415
290.32        17.76954
290.77         17.8108
291.22        18.00743
291.68        18.26098
292.13        18.54749
292.59        18.90895
293.04        19.37295
293.50        19.97207
293.95        20.69432
294.40        21.49129
294.86        22.31069
295.31         23.0929
295.77        23.83309
296.22        24.56035
296.68        25.29941
297.13        26.05631
297.58        26.85832
298.04        27.71779
298.49         28.6812
298.95        29.86469
299.40         31.2689
299.85        32.84964
300.31        34.49547
300.76        36.02882
301.21        37.37432
301.67        38.60081
302.12        39.71549
302.58        40.81728
303.03        41.92398
303.48        43.03476
303.94        44.24083
304.39        45.63027
304.84        47.21491
305.30        48.95582
305.75        50.68126
306.20        52.14416
306.66        53.30832
307.11        54.20564
307.57        55.01115
308.02        55.88935
308.47        56.93843
308.93        58.11747
309.38        59.34108
309.83        60.51833
310.29        61.60496
310.74        62.59817
311.19        63.54986
311.65        64.53927
312.10        65.56674
312.55        66.60989
313.00        67.53873
313.46        68.15193
313.91        68.40643
314.36        68.39352
314.82        68.33814
315.27        68.54417
315.72        69.11139
316.18        69.95139
316.63        70.90561
317.08        71.66838
317.53        72.13856
317.99        72.38452
318.44        72.55054
318.89        72.87705
319.35        73.40469
319.80        74.07803
320.25        74.69704
320.70        74.94322
321.16         74.7585
321.61        74.25749
322.06        73.70232
322.51        73.49709
322.97        73.71723
323.42        74.27737
323.87         74.9365
324.32        75.27926
324.78        75.18383
325.23        74.80778
325.68        74.34962
326.13        74.15474
326.59        74.30539
327.04        74.72051
327.49         75.2563
327.94        75.70129
328.39        75.97823
328.85        76.13162
329.30        76.26663
329.75        76.42542
330.20        76.64743
330.66        76.89761
331.11        77.20911
331.56        77.57531
332.01        78.00184
332.46        78.47121
332.92        78.98334
333.37         79.6799
333.82        80.49451
334.27        81.39069
334.72        82.16529
335.17        82.49149
335.63        82.31291
336.08        81.77656
336.53        81.16168
336.98        80.95101
337.43        81.27442
337.88        81.99372
338.34        82.90879
338.79        83.76268
339.24        84.40908
339.69        84.94234
340.14         85.3382
340.59          85.553
341.05        85.60878
341.50        85.49197
341.95        85.35522
342.40        85.46045
342.85        85.85554
343.30        86.47826
343.75        87.15749
344.20        87.57586
344.66        87.65601
345.11        87.48425
345.56        87.20014
346.01        87.01502
346.46        86.99659
346.91        87.07786
347.36        87.22308
347.81        87.38048
348.26        87.53214
348.72        87.72736
349.17        87.91703
349.62        88.07054
350.07        88.17278
350.52        88.20273
350.97         88.2125
351.42        88.29325
351.87        88.45453
352.32        88.67937
352.77        88.84383
353.22        88.75228
353.67         88.3811
354.13        87.80604
354.58        87.20263
355.03        86.90201
355.48        86.95994
355.93        87.26617
356.38        87.58613
356.83        87.54665
357.28        87.06124
357.73        86.25808
358.18        85.33053
358.63        84.58128
359.08        84.10508
359.53        83.81671
359.98        83.61477
360.43        83.34285
360.88        82.94737
361.33         82.4712
361.78        81.97859
362.23         81.5659
362.68        81.25131
363.13        80.99755
363.58        80.70276
364.03        80.21423
364.48        79.51476
364.93        78.66832
365.38        77.81767
365.83        77.19125
366.28        76.83601
366.73        76.66273
367.18        76.56009
367.63        76.34465
368.08        75.96053
368.53        75.48713
368.98        74.92796
369.43        74.27789
369.88        73.56528
370.33        72.78761
370.78        72.07617
371.23         71.6592
371.68        71.57648
372.13        71.76009
372.58        72.03136
373.03        72.07527
373.48        71.80443
373.93        71.31859
374.38        70.73426
374.83        70.23357
375.28        69.87358
375.72         69.5773
376.17         69.3565
376.62        69.20764
377.07        69.10541
377.52        69.04533
377.97        68.95516
378.42        68.71078
378.87        68.30058
379.32        67.78326
379.77        67.22005
380.22        66.69924
380.67        66.24384
381.11        65.81976
381.56         65.4581
382.01        65.21491
382.46         65.0958
382.91         65.1069
383.36        65.12051
383.81        64.92829
384.26        64.50284
384.71        63.89935
385.15        63.30349
385.60        63.05755
386.05        63.16968
386.50        63.51513
386.95        63.85572
387.40        63.79158
387.85        63.26595
388.29        62.44865
388.74        61.62216
389.19        60.94095
389.64        60.45105
390.09        60.06123
390.54        59.84045
390.98        59.90719
391.43         60.2386
391.88        60.76556
392.33        61.23874
392.78        61.23248
393.23        60.71634
393.67        59.96939
394.12        59.29602
394.57        58.62549
395.02        58.18491
395.47        58.58324
395.91        59.63514
396.36        60.24333
396.81        60.24036
397.26        60.13874
397.71        59.99896
398.15        59.65896
398.60        59.24265
399.05         58.8134
399.50        58.40009
399.95        57.87391
400.39        57.52755
400.84        57.17927
401.29        56.94888
401.74        57.03156
402.18        57.36882
402.63        57.52214
403.08        57.52536
403.53        57.74311
403.97        58.16005
404.42        58.53416
404.87        58.71709
405.32        58.55711
405.76        58.02833
406.21        57.30185
406.66         56.5967
407.11        56.11093
407.55        55.98604
408.00        56.39503
408.45        57.13658
408.90        57.53394
409.34         57.4035
409.79        56.97569
410.24        56.45067
410.68        56.11258
411.13        56.04527
411.58        56.09483
412.03        56.24292
412.47        56.51325
412.92        56.82906
413.37        57.20352
413.81        57.51264
414.26        57.60053
414.71        57.42875
415.15        57.03328
415.60        56.55548
416.05        56.25105
416.49        56.19419
416.94        56.33686
417.39        56.53037
417.83        56.50831
418.28        56.22284
418.73          55.762
419.17        55.33189
419.62        55.25563
420.07        55.56625
420.51        56.15523
420.96        56.77528
421.41        56.99897
421.85         56.7164
422.30        56.20354
422.74        55.64512
423.19        55.27579
423.64        55.19586
424.08        55.60978
424.53        56.33186
424.98        56.80979
425.42        56.92772
425.87        57.00014
426.31        57.08035
426.76        56.97803
427.21        56.83612
427.65        57.02824
428.10        57.49325
428.54        58.06239
428.99        58.57687
429.44         58.8452
429.88        58.81979
430.33        59.48353
430.77        60.27809
431.22         59.1245
431.66        56.63348
432.11        55.59898
432.56        56.19859
433.00        56.93162
433.45         57.6132
433.89        59.05408
434.34        60.14353
434.78        61.12662
435.23        57.69258
435.67        56.44333
436.12        58.51199
436.57        59.46659
437.01         59.7031
437.46        59.84851
437.90        60.03202
438.35        60.31403
438.79        60.62026
439.24        60.72683
439.68        60.63916
440.13        60.31627
440.57        60.04433
441.02        60.66738
441.46        61.86158
441.91        62.42091
442.35         62.1882
442.80        61.39391
443.24        60.42042
443.69         60.9855
444.13         62.7085
444.58        62.76812
445.02        61.33538
445.47        61.08867
445.91        61.97557
446.36        62.21934
446.80        61.77704
447.24        61.58153
447.69        61.69835
448.13        61.84413
448.58        62.02823
449.02        62.28377
449.47        62.56806
449.91        62.82082
450.36        63.01919
450.80        63.15652
451.25        63.22553
451.69         63.1904
452.13        63.07896
452.58        62.91502
453.02        62.76747
453.47        62.77467
453.91        62.92965
454.36        63.20294
454.80        63.53151
455.24        63.60611
455.69        63.36574
456.13         63.3878
456.58        63.28057
457.02        62.56718
457.46         61.9453
457.91        62.04505
458.35        62.81762
458.79        63.07245
459.24        62.77947
459.68        62.50306
460.13        62.31747
460.57        62.18667
461.01        62.20448
461.46        61.80196
461.90        61.69513
462.34         62.1259
462.79         61.5794
463.23        61.88988
463.68        62.41159
464.12        62.69974
464.56        62.67225
465.01         62.5672
465.45        62.35194
465.89         62.3013
466.34         62.3152
466.78        61.53529
467.22        60.36499
467.67        60.25554
468.11        61.16001
468.55        61.83001
468.99         61.9708
469.44        61.73357
469.88        61.29678
470.32        61.34602
470.77        61.81288
471.21        61.88256
471.65        61.51551
472.10        61.31063
472.54        61.32025
472.98        61.34023
473.42        61.36657
473.87        61.56337
474.31        61.81176
474.75        61.73751
475.20        61.43608
475.64        61.39071
476.08        61.59691
476.52        61.64258
476.97        61.53446
477.41        61.49826
477.85        61.55077
478.29        61.60201
478.74         62.0951
479.18        61.80991
479.62         61.0608
480.06        61.51969
480.50        61.94891
480.95        62.26856
481.39        62.02197
481.83        61.86117
482.27        61.76149
482.72        61.41952
483.16        60.47786
483.60        60.72693
484.04        62.04299
484.48        62.42102
484.93        62.29539
485.37        63.56202
485.81        64.28168
486.25        62.88848
486.69        84.30467
487.14        68.33566
487.58        42.87302
488.02         53.1185
488.46        60.55665
488.90        60.23619
489.34        61.70276
489.79        60.61136
490.23         62.5649
490.67         63.3533
491.11        62.65073
491.55         62.7292
491.99        63.20517
492.43        63.15296
492.88        62.63874
493.32          62.684
493.76        62.83263
494.20        63.04048
494.64        63.09409
495.08        63.18121
495.52        63.36468
495.96        63.36137
496.41        63.18521
496.85        63.79752
497.29        64.86443
497.73        63.90028
498.17        61.84415
498.61        62.07182
499.05        64.56354
499.49        64.97375
499.93         64.7356
500.37        64.50093
500.82        64.18017
501.26         64.3503
501.70        64.74445
502.14        64.89873
502.58        64.69967
503.02         64.5205
503.46        64.37244
503.90        64.00723
504.34        63.56844
504.78        63.41384
505.22        63.59145
505.66        63.99247
506.10        64.46121
506.54        64.73499
506.98        64.73396
507.42        64.54112
507.86        64.27358
508.30        64.11078
508.74         64.1054
509.18        64.19807
509.62        64.33218
510.06        64.42182
510.50        64.44035
510.94        64.42685
511.38        64.40956
511.82        64.41988
512.26        64.47039
512.70        64.54805
513.14        64.63695
513.58        64.71912
514.02        64.78125
514.46        64.81629
514.90        64.84684
515.34        64.89259
515.78        64.94166
516.22        65.05988
516.66         65.1935
517.10        65.05537
517.54        64.63431
517.98        64.69655
518.42        64.31064
518.86        64.33701
519.30        64.48968
519.74         64.8037
520.18        65.17317
520.62         65.4142
521.06        65.48688
521.50        65.44055
521.93        65.31223
522.37        65.16446
522.81        65.03546
523.25        64.90873
523.69        64.82526
524.13        64.84995
524.57        64.98814
525.01         65.2254
525.45        65.49189
525.89        65.66872
526.32        65.71322
526.76        65.64605
527.20        65.51982
527.64        65.44073
528.08        65.44866
528.52        65.46017
528.96        65.39401
529.40        65.30956
529.83        65.23112
530.27        64.49432
530.71        64.47128
531.15         64.2808
531.59        64.33347
532.03        64.54186
532.46        64.85227
532.90        65.14344
533.34        65.35202
533.78        65.50957
534.22        65.59476
534.66        65.58575
535.09        65.47894
535.53        65.29903
535.97        65.08956
536.41        64.94494
536.85        64.89433
537.28        64.92567
537.72        64.99364
538.16           65.03
538.60         65.0173
539.04        64.92527
539.47        64.79926
539.91         64.8818
540.35        65.11148
540.79        65.18889
541.22        65.10012
541.66        65.08764
542.10        65.14567
542.54        65.12228
542.97        65.04694
543.41        65.06921
543.85        65.18665
544.29        65.36971
544.72        65.53056
545.16        65.53987
545.60        65.37128
546.04        65.13284
546.47        64.93508
546.91        64.84557
547.35        64.97276
547.79        65.51485
548.22        66.22191
548.66        66.62125
549.10        66.51736
549.53        65.73238
549.97        64.65568
550.41        64.16017
550.84        64.36739
551.28        64.90427
551.72        65.54772
552.15        65.90799
552.59        65.84156
553.03        66.01929
553.46        65.55143
553.90        65.46263
554.34        65.51442
554.77        65.59063
555.21        65.62762
555.65        65.75819
556.08        66.00478
556.52        65.52796
556.96        65.88078
557.39        65.82838
557.83        65.85019
558.27        65.90926
558.70        66.01913
559.14        66.11667
559.57        66.19764
560.01        66.42358
560.45        66.69603
560.88        66.74281
561.32        66.56217
561.75        66.23647
562.19        65.91368
562.63        65.63182
563.06        65.47776
563.50        65.66954
563.93        66.06567
564.37        66.25759
564.80         66.1757
565.24        66.05583
565.68        65.94205
566.11        65.86503
566.55        65.89623
566.98        65.91245
567.42        65.94345
567.85        66.24532
568.29        66.74899
568.72        66.78307
569.16        66.54499
569.60        66.87571
570.03        67.29347
570.47        67.21999
570.90        66.90979
571.34        65.20584
571.77        66.20083
572.21         66.1055
572.64        65.77425
573.08        64.65606
573.51        62.26167
573.95        64.62354
574.38        68.48589
574.82        66.22373
575.25        66.18163
575.69        63.87104
576.12        62.84095
576.56          62.222
576.99        63.72935
577.42        66.46092
577.86        66.39109
578.29        65.68069
578.73         69.1453
579.16        63.71947
579.60        58.52718
580.03        61.26081
580.47        65.15065
580.90        66.73605
581.33        65.19199
581.77        64.66882
582.20        70.22984
582.64        69.81099
583.07        59.92672
583.51         58.9445
583.94        57.83509
584.37        60.79998
584.81        63.74125
585.24        67.10386
585.68        68.56756
586.11        67.26685
586.54        62.58527
586.98        60.80366
587.41        61.42001
587.85        64.52672
588.28        67.16344
588.71        63.59287
589.15        61.79218
589.58        63.02268
590.01        63.42267
590.45        64.23818
590.88        65.10728
591.31        64.43649
591.75        64.00518
592.18        64.11926
592.61        65.53153
593.05        66.25291
593.48        68.52994
593.91        68.93793
594.35        63.58899
594.78        62.51337
595.21        62.35733
595.65        65.14273
596.08        67.46677
596.51        64.78914
596.94        63.16294
597.38        63.86585
597.81        66.43411
598.24        67.96779
598.68        66.53149
599.11        65.81982
599.54        68.02623
599.97        69.50461
600.41        64.73829
600.84        64.58932
601.27        66.15265
601.70        65.40061
602.14        65.39907
602.57        64.55959
603.00        65.16635
603.43        66.62629
603.87        68.05151
604.30         67.6349
604.73         65.8353
605.16        64.27425
605.60        65.32581
606.03         66.4674
606.46        67.72704
606.89        67.24874
607.32        65.44124
607.76        65.63845
608.19        67.63297
608.62        66.79295
609.05        65.65407
609.48        66.08614
609.92        65.84872
610.35         65.7589
610.78        67.63369
611.21        68.24211
611.64        65.35303
612.07        66.09353
612.50        66.54028
612.94        67.04504
613.37        66.40874
613.80        66.87511
614.23        67.20613
614.66        67.14254
615.09         67.2952
615.52        67.31859
615.96        67.33313
616.39        67.39754
616.82        66.36153
617.25        66.32153
617.68        66.84174
618.11         67.4966
618.54        67.97416
618.97        67.56899
619.40         66.6328
619.84        66.70417
620.27        67.71619
620.70          68.296
621.13        68.29485
621.56        67.82186
621.99        67.11374
622.42        67.79046
622.85        69.42284
623.28        68.84365
623.71        68.47662
624.14        68.59747
624.57        68.10799
625.00        68.11169
625.43        68.14995
625.86        67.54597
626.29        67.59318
626.72        68.06266
627.15        67.79133
627.58        67.99681
628.01        68.16528
628.44        68.43986
628.87         68.3316
629.30        68.55112
629.73        68.85958
630.16         68.9443
630.59        68.57629
631.02        68.16087
631.45        67.76224
631.88        67.48026
632.31        67.36325
632.74        67.39005
633.17        67.50904
633.60        67.61982
634.03        67.68412
634.46          67.728
634.89        67.74956
635.32        67.74722
635.75        67.72488
636.18        67.67117
636.61         67.6052
637.04        67.56831
637.47        67.56763
637.89        67.60227
638.32        67.63059
638.75        67.62701
639.18        67.58102
639.61        67.50737
640.04        67.41109
640.47        67.29778
640.90        67.17868
641.33        67.05753
641.76        66.93598
642.18        66.89714
642.61        66.94359
643.04        66.96646
643.47        66.79615
643.90        67.31766
644.33        67.09409
644.76        67.24971
645.18        67.34047
645.61        67.34029
646.04        67.23244
646.47        67.02419
646.90        66.82056
647.33        66.75736
647.75        66.88535
648.18        67.16303
648.61        67.41679
649.04         67.4778
649.47        67.25954
649.89        66.50681
650.32        65.63559
650.75        65.59995
651.18        66.39062
651.61        67.26344
652.03        67.80438
652.46        67.87071
652.89        67.78127
653.32         67.0918
653.74        66.17059
654.17        67.76677
654.60        68.62548
655.03        66.05965
655.46        67.26437
655.88        70.78752
656.31        74.26057
656.74        162.9615
657.16        105.7976
657.59        37.43986
658.02        28.81458
658.45        50.66622
658.87        64.99072
659.30        68.43329
659.73        67.26265
660.15        65.25012
660.58        67.56148
661.01        69.27641
661.44        67.00927
661.86        66.30418
662.29        66.39941
662.72        67.25948
663.14        68.58742
663.57        68.41763
664.00         67.0743
664.42        66.76994
664.85        67.59713
665.27        68.16489
665.70        68.22633
666.13        68.16167
666.55        67.93808
666.98        67.44772
667.41        66.89747
667.83        66.67167
668.26        66.84171
668.69        67.28024
669.11        67.75582
669.54        68.11468
669.96        67.61575
670.39         67.3142
670.82        66.69647
671.24        66.29051
671.67         66.1721
672.09        66.78268
672.52        67.72989
672.94        68.39893
673.37        67.57052
673.80        67.18565
674.22        67.04541
674.65        66.89944
675.07        66.77287
675.50        66.68026
675.92        66.64773
676.35        66.74228
676.77        66.95467
677.20        67.21546
677.62        67.41959
678.05        67.51402
678.47        67.45531
678.90        67.28415
679.32        67.08816
679.75        66.88723
680.17        66.98023
680.60        67.11649
681.02        67.28156
681.45        67.30069
681.87        67.14949
682.30        66.87679
682.72        66.60564
683.15        66.54133
683.57        66.74388
684.00        67.07059
684.42        67.53799
684.85        67.73607
685.27        67.64833
685.70        67.37522
686.12        67.04239
686.54        66.88354
686.97        66.94086
687.39        67.15714
687.82        67.40835
688.24        67.54137
688.66        67.49118
689.09        67.31914
689.51        67.13789
689.94        67.07484
690.36        67.16064
690.78        67.39517
691.21         67.7224
691.63        67.73775
692.06        67.79224
692.48        67.89186
692.90         67.4404
693.33        67.38297
693.75        67.51807
694.17        67.72312
694.60         67.9315
695.02        68.10175
695.44         68.1734
695.87        68.29881
696.29        68.48338
696.71        68.23625
697.14        67.73512
697.56        68.07423
697.98        69.02203
698.41        68.75462
698.83        67.99262
699.25        67.51656
699.68        67.60515
700.10        67.61358
700.52        67.55267
700.94        67.78421
701.37        68.20342
701.79        68.53571
702.21        68.68817
702.64        68.74526
703.06        68.70397
703.48        68.55588
703.90        68.33099
704.33        68.02807
704.75         67.7193
705.17        67.60795
705.59        67.73899
706.01        67.95345
706.44        68.12328
706.86        68.62703
707.28        68.50558
707.70        68.51098
708.12        68.42139
708.55        68.32016
708.97        68.21294
709.39         68.0934
709.81        68.00615
710.23        68.00854
710.66        68.11101
711.08        68.32896
711.50        68.55376
711.92        68.62378
712.34        68.50637
712.76        68.23248
713.19        67.93799
713.61        67.87538
714.03        68.08395
714.45         68.4924
714.87        68.90947
715.29        69.03039
715.71        68.79401
716.13        68.30109
716.56        67.75324
716.98         67.5034
717.40        67.63334
717.82        68.03651
718.24        68.53306
718.66        68.81825
719.08        68.80371
719.50        68.58422
719.92        68.27962
720.34        68.09708
720.76        68.09918
721.19        68.10623
721.61         68.2772
722.03        68.39526
722.45        68.48767
722.87        68.57397
723.29        68.65939
723.71         68.7382
724.13        68.80731
724.55        68.86086
724.97        68.88948
725.39        68.88787
725.81        68.85818
726.23        68.80461
726.65        68.75385
727.07        68.74409
727.49        68.78596
727.91        68.87704
728.33        68.98053
728.75        69.03306
729.17        69.01607
729.59        68.93995
730.01         68.8653
730.43        68.87841
730.85        69.00373
731.27        69.24712
731.69        69.50461
732.10        69.58553
732.52        69.44701
732.94        69.17884
733.36        68.96349
733.78        68.93113
734.20        69.10864
734.62         69.8328
735.04        70.80453
735.46        70.60059
735.88        69.55418
736.30        69.80926
736.72        71.26797
737.13        71.79582
737.55         71.1348
737.97        70.85856
738.39        71.06691
738.81        70.51745
739.23        69.57177
739.65        70.31732
740.06        72.28219
740.48         72.4453
740.90        70.91293
741.32        70.22372
741.74        70.61601
742.16        70.82895
742.57        70.90897
742.99        71.57341
743.41        72.62593
743.83        73.31937
744.25        73.51746
744.67        73.41371
745.08        73.17239
745.50        73.06136
745.92        73.17735
746.34         73.4127
746.75        73.69703
747.17        73.90867
747.59         74.0331
748.01        74.12196
748.42          74.231
748.84        74.46339
749.26        74.84709
749.68        75.18891
750.09        75.46207
750.51        75.95378
750.93        76.49497
751.35          76.309
751.76        75.56757
752.18        75.34881
752.60        75.64884
753.01        75.65225
753.43        75.37968
753.85        75.44334
754.27        75.87165
754.68        76.40011
755.10        76.90137
755.52        77.32332
755.93         77.6012
756.35        77.70387
756.77        77.69147
757.18        77.65952
757.60        77.65629
758.02        77.77808
758.43         77.8008
758.85        77.78529
759.26        76.36335
759.68        76.54038
760.10        77.83604
760.51        78.50131
760.93        77.85139
761.34        77.07823
761.76        76.39976
762.18        75.92545
762.59        75.84823
763.01        76.26068
763.42        77.08158
763.84        77.68697
764.26         77.9717
764.67        78.08542
765.09         78.0104
765.50        77.83434
765.92        77.50518
766.33        76.38876
766.75        74.96029
767.16        74.60466
767.58        75.44357
768.00        76.93189
768.41        78.65952
768.83        79.75195
769.24        79.80698
769.66        79.06354
770.07        77.97801
770.49        76.74327
770.90        75.70898
771.32        76.43204
771.73        78.33225
772.15        77.81537
772.56        75.35517
772.97        75.03007
773.39        76.72273
773.80        77.37203
774.22        76.74864
774.63        76.71782
775.05        77.24343
775.46         77.4803
775.88        77.33841
776.29        77.06218
776.70        76.75738
777.12        76.61888
777.53        76.71343
777.95        76.94022
778.36        77.15733
778.77        77.11563
779.19        76.80042
779.60        76.28442
780.02        75.80004
780.43        75.76559
780.84        76.29562
781.26          76.905
781.67         77.4491
782.09        78.38703
782.50        79.25433
782.91        78.19883
783.33        75.91171
783.74        75.11144
784.15         75.9614
784.57        76.68637
784.98        76.94753
785.39        77.08279
785.81        76.98627
786.22         76.4266
786.63        75.75843
787.04        75.65132
787.46        76.18239
787.87        77.12663
788.28        78.15379
788.70        78.68083
789.11        78.55524
789.52        78.05646
789.93        77.44186
790.35         76.8792
790.76        76.57002
791.17        76.86654
791.58        77.56564
792.00        77.89906
792.41        77.73795
792.82        77.44636
793.23        77.26743
793.65         77.1191
794.06        77.15921
794.47        78.17249
794.88        79.49011
795.29        78.97088
795.71        76.86355
796.12        75.00317
796.53         73.9756
796.94        73.69604
797.35         74.2478
797.76        75.52408
798.18        76.94697
798.59        77.83438
799.00         77.8457
799.41        76.97589
799.82         75.6829
800.23         74.8871
800.64        74.80338
801.06        75.08141
801.47        75.60052
801.88        76.05491
802.29        76.31151
802.70        76.49883
803.11        76.61101
803.52        76.60459
803.93        76.50064
804.34        76.26647
804.75        76.01122
805.17        76.00478
805.58        76.33179
805.99        76.68394
806.40        76.91157
806.81        77.34406
807.22        77.63201
807.63         76.5437
808.04        74.60545
808.45        73.75846
808.86        74.19805
809.27        74.99199
809.68        75.77262
810.09         76.2523
810.50        76.23772
810.91        75.82972
811.32         75.2743
811.73        74.97103
812.14        75.02446
812.55        75.27208
812.96        75.61333
813.37        75.86793
813.78        75.95956
814.19        76.01079
814.60        75.92618
815.01        75.53497
815.42        74.84976
815.83         73.8867
816.24        73.00752
816.65        72.85026
817.05        73.58377
817.46         74.9865
817.87         76.5141
818.28         77.1818
818.69        76.72818
819.10        75.39819
819.51        73.81349
819.92        73.04045
820.33        73.36584
820.74        74.46866
821.14        75.80515
821.55        76.38909
821.96        75.99865
822.37        74.97878
822.78        73.77974
823.19        73.05479
823.60        72.98652
824.00        73.40043
824.41        74.00502
824.82        74.43948
825.23        74.53347
825.64        74.42845
826.04        74.22177
826.45        74.03649
826.86        73.91232
827.27         73.7693
827.68        73.60868
828.08        73.48402
828.49        73.34994
828.90        73.27631
829.31        73.20495
829.72        73.01528
830.12        72.72391
830.53        72.34788
830.94        72.07882
831.35         72.1703
831.75        72.69429
832.16         73.5147
832.57        74.43018
832.97        75.01015
833.38        75.05408
833.79        74.68682
834.20        74.16142
834.60        73.86493
835.01        73.92285
835.42          74.212
835.82        74.55141
836.23        74.55951
836.64        74.18167
837.04        73.56546
837.45        72.93054
837.86        72.61796
838.26        72.72353
838.67        73.11272
839.08         73.6293
839.48        73.98717
839.89         74.0602
840.29        73.94907
840.70        73.74731
841.11        73.58305
841.51        73.50204
841.92        73.42381
842.33        73.35998
842.73        73.34917
843.14        73.35402
843.54        73.42072
843.95        73.42854
844.35        73.23679
844.76        72.82328
845.17        72.25957
845.57        71.71225
845.98        71.43985
846.38        71.49392
846.79        71.77271
847.19        72.16545
847.60        72.38079
848.00        72.36935
848.41        72.20028
848.81        71.97028
849.22        71.75237
849.62        71.62904
850.03         71.5575
850.43        71.61916
850.84        71.89184
851.24        72.40131
851.65        72.95308
852.05        73.53082
852.46        73.92812
852.86        74.10265
853.27        74.17097
853.67        73.86773
854.07        72.90155
854.48        71.38489
854.88        69.43985
855.29        67.74714
855.69        67.28984
856.10        68.22921
856.50        70.46899
856.90        73.28079
857.31        74.95325
857.71        74.93053
858.12        73.60654
858.52        71.80049
858.92        70.60377
859.33        70.26538
859.73        70.50494
860.13        71.11948
860.54        71.68722
860.94        72.08981
861.34        72.45045
861.75        72.79602
862.15        73.23504
862.55        73.74512
862.96        74.23727
863.36        74.65294
863.76        74.89224
864.17        74.93552
864.57        74.88197
864.97        74.82871
865.38        74.91146
865.78         75.2113
866.18        75.60564
866.58        76.06885
866.99        76.54604
867.39        77.04308
867.79        77.59938
868.19        77.98159
868.60        77.75583
869.00        76.86982
869.40        75.46901
869.80         74.2084
870.21        74.10028
870.61        75.43685
871.01        77.91357
871.41        80.73432
871.81        82.51702
872.22        82.86753
872.62        82.16132
873.02        81.06506
873.42        80.84174
873.82        81.59008
874.22        82.55278
874.63        83.46873
875.03         83.8696
875.43        83.46522
875.83        83.41463
876.23        81.94183
876.63         81.2897
877.03        81.31332
877.44        82.21732
877.84        104.7747
878.24        88.49406
878.64        88.56332
879.04        88.70583
879.44        83.72183
879.84         81.3131
880.24        86.38986
880.64        88.96204
881.04         90.0376
881.44         90.4343
881.84        89.51641
882.24        87.58252
882.65        85.76025
883.05        85.10569
883.45        85.80103
883.85        87.82809
884.25        90.44849
884.65        92.03069
885.05        92.04683
885.45        91.02517
885.85        89.67995
886.25        88.99477
886.65        89.19737
887.05        89.93353
887.45        90.87096
887.85        91.44739
888.25        91.45589
888.65        91.14854
889.04        90.65274
889.44         90.1757
889.84          89.798
890.24        89.42005
890.64        89.15972
891.04        89.22278
891.44        89.61034
891.84        90.29433
892.24        90.98808
892.64        91.14954
893.04        90.70569
893.44         89.8971
893.83         89.1002
894.23        88.87306
894.63        89.30902
895.03        90.16993
895.43        91.33197
895.83        92.54276
896.23        93.60094
896.63        94.56503
897.02        95.07658
897.42        94.58073
897.82        93.09795
898.22        90.87981
898.62           88.67
899.01        87.54996
899.41        87.75986
899.81        88.95194
900.21        90.57875
900.61        91.72695
901.00        92.08978
901.40        91.91259
901.80        91.47015
902.20        91.19894
902.59        91.23363
902.99        91.41698
903.39        91.55536
903.79        91.35546
904.18        90.77427
904.58        90.00253
904.98        89.34049
905.38         89.2253
905.77        89.69689
906.17        90.55029
906.57         91.4779
906.96        92.07409
907.36        92.17081
907.76        91.92604
908.15        91.41882
908.55        90.67828
908.95        89.83726
909.34        88.86002
909.74        88.02094
910.14        87.56805
910.53        87.57738
910.93        88.06069
911.33        88.82497
911.72         89.5058
912.12        89.88657
912.52        89.97974
912.91        90.00665
913.31        90.27664
913.70         90.8858
914.10        91.77024
914.49        92.52627
914.89        92.17061
915.29        90.53132
915.68        88.07451
916.08        85.90393
916.47         85.0112
916.87        85.46478
917.26        86.92812
917.66        88.66875
918.05          89.507
918.45        89.11183
918.84         87.9082
919.24        86.54258
919.64        85.94739
920.03        86.37605
920.42        87.46781
920.82         88.8742
921.21        90.15164
921.61        90.91656
922.00        91.36861
922.40        91.33733
922.79        90.59792
923.19        89.27738
923.58        87.28699
923.98        85.01724
924.37        83.96298
924.77         84.7597
925.16        84.06688
925.55        86.89291
925.95        88.36685
926.34        89.76749
926.74         90.8887
927.13        91.73259
927.52        91.96738
927.92        91.62826
928.31        90.83765
928.70        89.69373
929.10         88.4318
929.49        87.13959
929.89        85.85013
930.28        84.99575
930.67        85.27531
931.07        86.64471
931.46        88.91539
931.85        91.15705
932.24        91.98721
932.64        91.12578
933.03        88.82791
933.42        85.73035
933.82        83.32696
934.21        82.16527
934.60        81.95663
934.99        82.16272
935.39        82.29575
935.78         82.2905
936.17        81.81673
936.56        80.70643
936.96        82.62708
937.35        81.93958
937.74        82.74364
938.13         83.3747
938.53        84.18289
938.92        85.24618
939.31        86.66489
939.70        87.98536
940.09        87.94177
940.49         86.2956
940.88        83.68312
941.27        81.23804
941.66        80.26123
942.05        80.86636
942.44        82.61192
942.84        84.89743
943.23         86.6979
943.62        87.49799
944.01        87.54715
944.40         87.0187
944.79        86.18775
945.18        85.16632
945.57        83.80159
945.97         82.1874
946.36         80.7459
946.75        79.86263
947.14        79.57161
947.53        79.74858
947.92        80.17773
948.31         80.7801
948.70         81.6199
949.09        82.53647
949.48        83.11337
949.87         83.1499
950.26        82.67773
950.65        82.00457
951.04        81.65562
951.43        81.75963
951.82        82.18708
952.21        82.65261
952.60        82.69311
952.99        82.18275
953.38        81.25441
953.77        80.23271
954.16        79.56388
954.55        79.34805
954.94        79.52795
955.33        79.69539
955.72         79.1622
956.11        77.82204
956.50        75.88044
956.89         74.1247
957.28        73.97384
957.66        75.83403
958.05        78.99345
958.44        82.39796
958.83        84.48676
959.22         84.8459
959.61        83.87289
960.00        82.12945
960.39        80.55819
960.78        79.51553
961.16        78.78789
961.55        78.16375
961.94        77.32334
962.33        76.24344
962.72        75.17245
963.11        74.38883
963.49        74.17826
963.88        74.54852
964.27        75.42136
964.66        76.45842
965.04        76.97615
965.43        76.65165
965.82        75.74495
966.21        74.76721
966.60        74.40374
966.98        74.77649
967.37        75.61892
967.76        76.59928
968.15        77.05772
968.53        76.78121
968.92        75.99406
969.31        74.99578
969.69         74.1277
970.08        73.51084
970.47        73.07887
970.86        72.76829
971.24        72.49288
971.63        72.23132
972.02        71.99223
972.40        71.97235
972.79        72.47514
973.17        73.61848
973.56        75.21118
973.95        76.70866
974.33        77.10411
974.72        76.10497
975.11        74.06382
975.49        71.92508
975.88        70.96752
976.26        71.36726
976.65        72.91725
977.04        74.75532
977.42        74.79144
977.81        72.40063
978.19        68.45583
978.58        65.00726
978.96        64.16913
979.35        66.23907
979.74        70.75523
980.12        76.65852
980.51        80.36749
980.89        80.66882
981.28        78.54156
981.66        75.51597
982.05        73.53905
982.43        72.98924
982.82        73.13895
983.20        73.84924
983.59        75.02348
983.97        76.62064
984.35        78.87907
984.74         81.0591
985.12        81.67722
985.51        79.92694
985.89        75.99791
986.28        71.30087
986.66        68.13351
987.04        67.33811
987.43        68.30232
987.81        69.71893
988.20        69.92889
988.58        68.43752
988.96        65.04443
989.35         60.3586
989.73        58.19822
990.12        61.21534
990.50        67.69426
990.88        73.24835
991.27        74.46797
991.65        71.84506
992.03        66.52737
992.42        60.62621
992.80        57.89085
993.18        59.48799
993.56        63.26146
993.95        67.56315
994.33        71.20589
994.71        73.69109
995.10        75.75012
995.48        76.90245
995.86        76.09554
996.24        73.15907
996.63        67.89141
997.01        61.67081
997.39        58.80835
997.77        61.22839
998.15        67.99653
998.54        75.53136
998.92        78.85677
999.30        76.49808
999.68        69.75333
1000.06        60.57622
1000.45        53.79984
1000.83        51.48845
1001.21        52.05643
1001.59        54.24063
1001.97        56.74067
1002.35        59.15446
1002.73        62.40596
1003.12        65.48424
1003.50         65.0809
1003.88        60.21214
1004.26         52.6843
1004.64         45.8792
1005.02         42.5715
1005.40        42.89684
1005.78        46.71733
1006.16        54.77352
1006.54        63.69745
1006.92        67.94923
1007.30        67.98022
1007.69        66.28355
1008.07          64.885
1008.45         63.6752
1008.83        61.65265
1009.21         55.0244
1009.59        28.03329
1009.97       -54.77174
1010.35       -178.4034
1010.73       -160.4698
1011.11       -77.30276
1011.49       -15.21978
1011.86          27.841
1012.24        51.62829
1012.62        60.34215
1013.00        59.33556
1013.38        50.91177
1013.76        37.02527
1014.14        27.41308
1014.52        31.32796
1014.90        51.17383
1015.28        80.81605
1015.66        96.66143
1016.04         84.7889
1016.41        52.27665
1016.79        19.07374
1017.17        4.588623
1017.55        6.230108
1017.93        13.00062
1018.31        20.12276
1018.69        25.88592
1019.06        30.62971
1019.44        35.20231
1019.82         40.7311
1020.20        46.95823
1020.58        51.95802
1020.95        52.82348
1021.33        24.68579
1021.71        767.4881
1022.09        190.0332
1022.46        166.7176
1022.84        165.6159
1023.22        177.9846
1023.60        219.1167
1023.97        641.5994
1024.35        -75.2459
1024.73        7.135332
