SpectraSmart Spectrum 2.9.0.0
--------- Device Information -----------
Spectrum Name :  反射率_0
Saving Time :  2024/04/26 01:59:40
Spectro-Module Model Name : SE2030-DUVN
Spectro-Module Serial Number : OS361AC55029948
Wavelength Start : 200
Wavelength End : 1025
Wavelength Unit : Wavelength(nm)
Spectrum Unit : Reflectance(%)
-----------Spectrum Setting ------------
Integration Time : 20ms
Average : 10
Boxcar : 0
Background removal :  enabled
linearity correction :  enabled
SC :  disabled
Intensity correction :  disabled
DWT denoise :  enabled
savitzky-golay :  disabled
FFT :  disabled
Running average :  disabled
Kalman :  disabled
High pass :  disabled
---------------BEGIN--------------------
Wavelength(nm)             Reflectance(%)
200.29               0
200.75        95.19719
201.21        86.81018
201.67         76.3038
202.13         69.4218
202.58        67.01466
203.04        67.55551
203.50        69.72106
203.96        71.35857
204.42        71.68748
204.88        71.61146
205.34        71.44096
205.80        71.34774
206.26        71.48758
206.72        71.77434
207.18        72.32355
207.64        73.54288
208.10        74.29764
208.55        73.57968
209.01        72.92522
209.47        73.03795
209.93         73.6393
210.39        74.84643
210.85        75.16244
211.31        71.65491
211.77        64.17924
212.23        54.16849
212.69        45.26812
213.14        43.07891
213.60         48.2989
214.06        59.54566
214.52        72.84145
214.98        81.85062
215.44        84.67694
215.90        82.95708
216.36        78.97643
216.81        75.95946
217.27        75.02522
217.73        75.05853
218.19        74.51344
218.65        71.21715
219.11        64.12267
219.57        52.37127
220.02        37.05657
220.48        26.44634
220.94        25.91087
221.40        34.12333
221.86        43.37556
222.32        45.10154
222.77        39.81281
223.23        31.70772
223.69        25.11973
224.15        24.51542
224.61        29.31701
225.06        37.17085
225.52        44.73577
225.98        47.84529
226.44        45.79736
226.90         40.4938
227.36        34.30227
227.81        30.36708
228.27        29.73988
228.73        31.21845
229.19        33.80396
229.65         36.0219
230.10        37.35166
230.56         38.2194
231.02        38.93782
231.48        39.81391
231.93        40.88659
232.39         42.0035
232.85        42.90718
233.31        43.29142
233.77        43.09376
234.22        42.39221
234.68        41.55656
235.14        41.21312
235.60        41.57914
236.05        42.54198
236.51        43.63527
236.97        44.14499
237.43        43.94927
237.88        43.22349
238.34         42.5017
238.80        43.27377
239.26        46.14985
239.71        50.78122
240.17        55.80213
240.63        59.30168
241.08        60.71405
241.54         60.4136
242.00        59.35574
242.46        58.92446
242.91        59.94929
243.37        63.12088
243.83        74.04621
244.28        112.8733
244.74        162.6475
245.20         143.238
245.66        121.9445
246.11        116.7616
246.57        122.2474
247.03        143.8269
247.48        207.9058
247.94        177.7214
248.40        109.7621
248.85        88.60265
249.31        82.51997
249.77         82.3698
250.22        85.73988
250.68        92.84782
251.14        103.3004
251.59        109.7723
252.05        105.4049
252.51         93.6612
252.96        81.69473
253.42        76.35248
253.88        76.94253
254.33        80.79037
254.79        86.24215
255.25        90.43903
255.70        92.47643
256.16         93.7542
256.62        93.89674
257.07        92.36346
257.53        89.87411
257.99        86.26526
258.44        82.60854
258.90        81.19881
259.35         81.0169
259.81        81.35915
260.27        80.59177
260.72        77.11488
261.18        71.80456
261.63        65.40562
262.09        59.49482
262.55          55.184
263.00        52.46725
263.46        50.91463
263.91        49.71254
264.37        48.29173
264.83        46.40619
265.28        44.14533
265.74        41.94854
266.19        40.23637
266.65        39.24311
267.11        38.71615
267.56        38.24006
268.02        37.29681
268.47        35.76812
268.93        33.84072
269.38        31.83142
269.84        30.52456
270.30        30.12423
270.75        30.39833
271.21        30.92383
271.66        31.06661
272.12        30.64399
272.57        29.84503
273.03         28.9412
273.48        28.26306
273.94        27.92646
274.39        27.76602
274.85        27.64181
275.31        27.35278
275.76        26.84108
276.22        26.21366
276.67        25.55169
277.13        25.05124
277.58        24.70159
278.04        24.46948
278.49        24.21711
278.95        23.80648
279.40        23.19739
279.86        22.50892
280.31        21.81741
280.77         21.3407
281.22        21.08286
281.68          20.994
282.13        21.00114
282.59         21.0312
283.04        21.04808
283.50        21.10257
283.95        21.14382
284.41        21.11102
284.86        20.99462
285.32        20.81343
285.77        20.67348
286.22        20.79995
286.68        21.18914
287.13        21.73508
287.59        22.22906
288.04        22.35372
288.50        22.08253
288.95         21.5202
289.41        20.87926
289.86        20.37369
290.32        20.12825
290.77        20.06942
291.22        20.19068
291.68        20.43947
292.13        20.80028
292.59        21.30383
293.04        21.94235
293.50        22.69359
293.95        23.52985
294.40        24.41487
294.86        25.33415
295.31        26.28575
295.77        27.27951
296.22        28.33136
296.68        29.41511
297.13        30.45478
297.58        31.45675
298.04        32.44933
298.49        33.55127
298.95         34.9979
299.40        36.80474
299.85        38.88674
300.31        41.02158
300.76        42.85181
301.21        44.27259
301.67        45.42969
302.12        46.44942
302.58        47.61798
303.03        48.99032
303.48        50.50825
303.94        52.19458
304.39        54.02449
304.84         55.9774
305.30        58.05196
305.75         60.0889
306.20        61.86311
306.66        63.34774
307.11        64.54871
307.57        65.64922
308.02        66.82107
308.47        68.16586
308.93        69.63784
309.38        71.13939
309.83        72.56255
310.29        73.86201
310.74        75.04623
311.19        76.16315
311.65        77.28385
312.10        78.41497
312.55        79.53983
313.00        80.57592
313.46        81.39961
313.91        81.96838
314.36        82.33572
314.82        82.64988
315.27        83.08964
315.72        83.73805
316.18        84.55194
316.63        85.42902
317.08        86.15411
317.53         86.6619
317.99        86.99413
318.44        87.30264
318.89        87.84237
319.35        88.63941
319.80        89.63789
320.25        90.57475
320.70         91.0191
321.16        90.88764
321.61        90.32816
322.06        89.66351
322.51        89.40294
322.97        89.65006
323.42         90.2933
323.87        91.08295
324.32        91.58272
324.78        91.65385
325.23        91.47794
325.68        91.20412
326.13        91.10162
326.59        91.23552
327.04        91.53554
327.49        91.94916
327.94        92.43069
328.39        92.93812
328.85        93.47347
329.30        94.00838
329.75        94.31917
330.20        94.38857
330.66        94.26775
331.11        94.18536
331.56         94.4379
332.01        95.11903
332.46        96.13197
332.92        97.32107
333.37        98.57966
333.82        99.71735
334.27        100.7525
334.72        101.5638
335.17        101.9747
335.63        101.9747
336.08        101.6609
336.53        101.2357
336.98        101.0833
337.43        101.3182
337.88        101.8497
338.34        102.5735
338.79        103.3914
339.24        104.1932
339.69        105.0356
340.14        105.7809
340.59        106.1857
341.05        106.2239
341.50        105.9414
341.95         105.613
342.40         105.683
342.85        106.2439
343.30         107.178
343.75        108.2194
344.20        108.8903
344.66        109.0614
345.11        108.8565
345.56        108.4962
346.01        108.3143
346.46         108.406
346.91        108.6662
347.36        108.9723
347.81        109.1419
348.26        109.1349
348.72        109.0435
349.17        108.9397
349.62        108.9787
350.07        109.1871
350.52        109.4873
350.97        109.7924
351.42        109.9829
351.87        110.0217
352.32        109.9503
352.77         109.779
353.22        109.5267
353.67        109.2133
354.13        108.8432
354.58        108.4454
355.03        108.1278
355.48        107.9042
355.93         107.755
356.38        107.5871
356.83        107.2447
357.28        106.6981
357.73        105.9971
358.18        105.2474
358.63         104.618
359.08        104.1486
359.53        103.7839
359.98        103.4322
360.43        102.9513
360.88        102.2982
361.33        101.5115
361.78        100.6623
362.23        99.86507
362.68        99.16555
363.13        98.55368
363.58        97.96174
364.03        97.27916
364.48        96.48808
364.93        95.61911
365.38        94.79964
365.83         94.2317
366.28        93.93618
366.73        93.82813
367.18        93.71411
367.63        93.28651
368.08        92.48792
368.53        91.44518
368.98        90.32671
369.43        89.38156
369.88        88.68366
370.33        88.15369
370.78        87.76063
371.23        87.45445
371.68        87.19659
372.13        87.00603
372.58        86.81759
373.03        86.51429
373.48        86.07993
373.93        85.54711
374.38        84.99429
374.83        84.54916
375.28        84.23611
375.72        83.99603
376.17        83.80592
376.62        83.60197
377.07        83.34821
377.52        83.05016
377.97        82.67813
378.42        82.18702
378.87         81.5926
379.32        80.94015
379.77        80.27063
380.22        79.63469
380.67        79.04327
381.11        78.47571
381.56        77.97359
382.01        77.60805
382.46        77.39258
382.91        77.32906
383.36        77.27697
383.81        77.01352
384.26        76.50296
384.71        75.79289
385.15        75.08897
385.60        74.77294
386.05        74.85021
386.50        75.19615
386.95        75.50972
387.40         75.2915
387.85        74.49296
388.29        73.32937
388.74         72.2224
389.19        71.46534
389.64         71.1101
390.09        71.00453
390.54        71.10619
390.98        71.34214
391.43        71.63419
391.88        71.97491
392.33        72.18909
392.78        71.96837
393.23         71.3207
393.67        70.47018
394.12         69.7229
394.57        69.01376
395.02        68.54554
395.47        68.86464
395.91        69.80864
396.36        70.37414
396.81        70.40798
397.26        70.35938
397.71        70.26936
398.15        69.96772
398.60        69.58248
399.05        69.16363
399.50        68.74152
399.95        68.20461
400.39        67.88076
400.84         67.4437
401.29        67.05209
401.74        67.11233
402.18        67.53941
402.63         67.6151
403.08        67.39994
403.53        67.51619
403.97        67.96417
404.42         68.3603
404.87        68.54102
405.32        68.40767
405.76        67.92836
406.21        67.21142
406.66        66.47915
407.11        66.06936
407.55        66.07397
408.00         66.3502
408.45        66.74772
408.90        67.04691
409.34        67.06365
409.79        66.62463
410.24        65.93675
410.68        65.54176
411.13        65.52454
411.58        65.60085
412.03        65.74316
412.47         66.0196
412.92        66.34572
413.37        66.72431
413.81        67.03591
414.26        67.13757
414.71        66.98983
415.15         66.6253
415.60        66.17612
416.05        65.88129
416.49        65.81266
416.94        65.92828
417.39         66.0889
417.83        66.03577
418.28        65.73397
418.73         65.2854
419.17         64.8895
419.62        64.86671
420.07        65.23394
420.51        65.86456
420.96        66.54626
421.41        66.85661
421.85        66.66616
422.30        66.39888
422.74        66.09212
423.19        65.46736
423.64        64.75984
424.08        64.96649
424.53        65.94153
424.98        66.47987
425.42        66.44257
425.87        66.68852
426.31        67.18426
426.76        67.07545
427.21        66.59893
427.65        66.90916
428.10        67.89336
428.54        68.62368
428.99        69.03147
429.44        69.16988
429.88         69.0891
430.33        69.71209
430.77        70.48615
431.22        69.39626
431.66        66.95947
432.11        65.81136
432.56        66.19492
433.00        66.75256
433.45        67.43062
433.89        69.40821
434.34        71.24912
434.78        72.40092
435.23        68.38577
435.67        66.51965
436.12        69.01251
436.57        70.20882
437.01         70.5974
437.46        70.95716
437.90        71.49236
438.35        70.23196
438.79        71.01025
439.24        70.76576
439.68        70.66573
440.13        70.44469
440.57        70.39931
441.02         71.4227
441.46        73.06287
441.91        73.94721
442.35        73.81681
442.80        72.90416
443.24         71.6767
443.69        72.08281
444.13        73.78684
444.58        73.86401
445.02        72.45367
445.47        72.20982
445.91        73.07633
446.36        73.35256
446.80        72.98925
447.24        72.83681
447.69        72.98443
448.13        73.23687
448.58        73.60235
449.02          74.064
449.47        74.53418
449.91        74.88771
450.36        75.08362
450.80        75.14367
451.25        75.07682
451.69        74.86516
452.13        74.56256
452.58        74.20109
453.02        73.89241
453.47        73.84877
453.91         74.0724
454.36        74.49359
454.80        74.97736
455.24        75.15691
455.69        74.95948
456.13        74.74865
456.58        74.59993
457.02        73.86873
457.46        72.96053
457.91        73.28139
458.35        74.51105
458.79        74.96474
459.24         74.5806
459.68        74.15337
460.13        73.81479
460.57        73.59751
461.01        73.65366
461.46        72.86141
461.90        73.06245
462.34        73.23115
462.79        73.04433
463.23        73.25217
463.68        73.54308
464.12        73.86008
464.56        74.07198
465.01        74.07267
465.45        73.75932
465.89         73.4997
466.34        73.23248
466.78        72.19035
467.22        70.90247
467.67        70.56724
468.11        71.87623
468.55        72.65308
468.99        72.76897
469.44        72.46513
469.88        71.95179
470.32        71.94206
470.77        72.38073
471.21        72.43552
471.65        72.07078
472.10        71.93822
472.54        72.06664
472.98        72.15661
473.42        72.18393
473.87        72.38899
474.31        72.63155
474.75        72.40753
475.20        71.83521
475.64        71.67369
476.08        71.97119
476.52        71.89698
476.97        71.38747
477.41        71.96913
477.85         71.9591
478.29         71.6544
478.74        72.23268
479.18        72.02264
479.62         71.2019
480.06         71.8196
480.50        72.27214
480.95        72.71674
481.39        72.62405
481.83        72.24059
482.27        72.00227
482.72        71.86932
483.16         70.4289
483.60        70.63899
484.04        72.01498
484.48        72.44338
484.93         72.4696
485.37        73.40632
485.81        74.57289
486.25         73.0048
486.69        98.05302
487.14        79.66125
487.58        49.86101
488.02        61.56076
488.46        69.80355
488.90        69.61691
489.34          71.133
489.79        70.01336
490.23         72.3965
490.67         73.0594
491.11        71.74917
491.55        71.69836
491.99         72.4557
492.43        72.39444
492.88        71.57388
493.32        71.51008
493.76        71.70129
494.20        71.95477
494.64        72.01729
495.08         72.1404
495.52        72.35639
495.96        72.28646
496.41        71.95536
496.85        72.44977
497.29        73.43005
497.73         72.2841
498.17        70.04961
498.61        70.15406
499.05        72.65339
499.49        73.31933
499.93        73.61262
500.37        73.41479
500.82         72.6435
501.26        72.47338
501.70        72.75916
502.14         73.1036
502.58        73.26615
503.02        73.23213
503.46        72.98094
503.90        72.33076
504.34        71.87566
504.78        71.66366
505.22        71.86855
505.66        72.40319
506.10        73.05563
506.54        73.31169
506.98        73.03182
507.42         72.6724
507.86        72.36731
508.30        71.53744
508.74        72.07626
509.18        72.38452
509.62        72.82228
510.06        73.04356
510.50        72.98066
510.94        72.71801
511.38          72.389
511.82        72.24364
512.26        72.33882
512.70        72.59161
513.14        72.88852
513.58        73.05249
514.02        73.02771
514.46        72.87027
514.90        72.66928
515.34        72.54395
515.78        72.52034
516.22        72.61964
516.66        72.77409
517.10        72.71902
517.54          72.432
517.98         72.5257
518.42        72.28745
518.86        72.40346
519.30        72.64967
519.74        73.03447
520.18        73.45316
520.62        73.73352
521.06         73.8358
521.50         73.8092
521.93        73.69044
522.37        73.54062
522.81        73.40044
523.25        73.25649
523.69        73.15636
524.13         73.1729
524.57        73.31271
525.01        73.55955
525.45        73.83511
525.89        74.00624
526.32        74.02748
526.76        73.92554
527.20         73.7628
527.64        73.66244
528.08         73.6712
528.52        73.69455
528.96        73.64399
529.40         73.5901
529.83        73.55889
530.27        72.79829
530.71        72.84509
531.15        72.68935
531.59        72.78928
532.03        73.04482
532.46        73.40712
532.90        73.75755
533.34        74.02884
533.78        74.25467
534.22        74.38712
534.66        74.36547
535.09        74.18384
535.53        73.88223
535.97        73.55245
536.41        73.36919
536.85        73.37344
537.28        73.52327
537.72        73.71272
538.16         73.7771
538.60        73.67738
539.04        73.41548
539.47         73.0815
539.91        73.00518
540.35        73.13963
540.79        73.13612
541.22        72.98758
541.66        72.97839
542.10        73.09669
542.54        73.16611
542.97        73.19376
543.41        73.30276
543.85        73.47804
544.29        73.69442
544.72        73.85672
545.16        73.83706
545.60          73.607
546.04        73.25928
546.47        72.93797
546.91        72.76603
547.35        72.84097
547.79        73.38483
548.22        74.10719
548.66        74.31103
549.10        73.90404
549.53        73.17751
549.97        72.45472
550.41        72.10378
550.84        72.22708
551.28         72.7009
551.72        73.33236
552.15        73.69512
552.59        73.66499
553.03        73.54497
553.46        73.48813
553.90        72.87546
554.34        73.24804
554.77        73.26223
555.21        73.28123
555.65        73.38583
556.08        73.59111
556.52        72.98727
556.96         73.3151
557.39        73.18565
557.83        73.13204
558.27        73.39516
558.70        73.42767
559.14        73.65562
559.57        73.85899
560.01        73.99582
560.45        74.05258
560.88        74.11205
561.32        74.12311
561.75        73.91744
562.19        73.57644
562.63         72.9492
563.06        72.30502
563.50        72.53761
563.93        73.43443
564.37        73.85332
564.80        73.73357
565.24        73.51906
565.68        73.32325
566.11         73.1817
566.55        73.18675
566.98        73.15744
567.42        73.12565
567.85        73.40216
568.29        73.91373
568.72        73.93312
569.16        73.69026
569.60        74.01931
570.03        74.58066
570.47        74.55689
570.90         74.2264
571.34        72.42419
571.77        73.23475
572.21        73.15382
572.64         72.8981
573.08        71.78512
573.51        68.80788
573.95        71.37506
574.38        75.70431
574.82        73.60046
575.25        73.15679
575.69        70.85079
576.12        69.69982
576.56        69.06542
576.99        70.59641
577.42        73.66099
577.86        73.83545
578.29         72.8763
578.73        76.85755
579.16        71.01704
579.60        64.93636
580.03        67.91962
580.47        72.24108
580.90        73.90794
581.33        72.01062
581.77        71.60975
582.20        78.40987
582.64        78.17904
583.07          66.815
583.51        65.54541
583.94        64.24608
584.37        67.47099
584.81        70.97677
585.24        74.71853
585.68         76.0546
586.11        75.22052
586.54        69.85304
586.98        67.52232
587.41        68.24953
587.85        72.09015
588.28         74.8757
588.71        71.17309
589.15        69.04304
589.58        70.16471
590.01        70.56103
590.45        71.45909
590.88         72.4474
591.31        71.85843
591.75        71.53474
592.18         71.5416
592.61        72.84406
593.05        73.48258
593.48        76.49456
593.91        77.14897
594.35        70.94754
594.78         69.5762
595.21        69.23399
595.65        72.32861
596.08        75.11349
596.51        71.93443
596.94        70.27014
597.38        71.00453
597.81        73.85351
598.24        75.24427
598.68        73.91084
599.11        72.47952
599.54        75.61959
599.97        76.89477
600.41         71.8195
600.84        71.79631
601.27        73.37564
601.70        72.55153
602.14        72.36484
602.57         71.5051
603.00        72.28185
603.43        74.10967
603.87        75.04937
604.30        74.42735
604.73         72.4651
605.16        70.91746
605.60         72.0969
606.03        73.26037
606.46         74.3198
606.89        74.01833
607.32         71.9013
607.76        71.73697
608.19        74.19402
608.62        73.24152
609.05        71.96912
609.48        72.52091
609.92        72.46973
610.35        71.98022
610.78        74.24356
611.21        74.74036
611.64        71.55264
612.07        72.27819
612.50        72.67142
612.94        73.16814
613.37        72.68086
613.80        72.81256
614.23         73.4727
614.66        73.29111
615.09        73.52551
615.52        73.40046
615.96        73.16746
616.39        73.19522
616.82         72.2692
617.25        72.03575
617.68        72.88435
618.11        73.61877
618.54         74.1162
618.97        73.56333
619.40        72.40559
619.84        72.17867
620.27        73.22002
620.70        73.88925
621.13        74.06197
621.56        73.53204
621.99        72.63493
622.42        73.44704
622.85        75.41438
623.28        75.32665
623.71        74.70109
624.14        74.58533
624.57         74.1879
625.00        73.98688
625.43         74.1371
625.86        73.59264
626.29         73.9012
626.72        74.18146
627.15        74.03278
627.58        74.14269
628.01        74.25544
628.44         74.2943
628.87        74.29626
629.30        74.44512
629.73        74.63852
630.16         74.9256
630.59        74.54057
631.02        74.28367
631.45        74.02673
631.88         73.8541
632.31        73.79677
632.74        73.84462
633.17        73.96086
633.60        74.05724
634.03        74.10794
634.46        74.14011
634.89        74.15832
635.32        74.17171
635.75        74.18517
636.18         74.1808
636.61        74.17968
637.04        74.22421
637.47        74.31595
637.89        74.45485
638.32        74.56289
638.75        74.56126
639.18        74.43407
639.61        74.21565
640.04        73.97056
640.47        73.79915
640.90        73.73418
641.33         73.7453
641.76         73.7785
642.18        73.84835
642.61        73.93495
643.04        73.87275
643.47        73.63779
643.90        74.14854
644.33        73.88036
644.76        74.05094
645.18        74.17447
645.61        74.22473
646.04        74.17502
646.47        74.03358
646.90        73.89188
647.33         73.8479
647.75        73.94434
648.18         74.1767
648.61        74.37295
649.04        74.30296
649.47        73.91721
649.89        73.11128
650.32        72.29313
650.75        72.23766
651.18        72.94107
651.61        73.84535
652.03        74.52127
652.46        74.56575
652.89        74.28458
653.32        73.52527
653.74        72.74547
654.17        73.94041
654.60        74.79353
655.03        72.38427
655.46        73.34834
655.88        77.52288
656.31        81.66016
656.74        180.9662
657.16        117.7156
657.59        41.61412
658.02        31.60643
658.45        55.35292
658.87        71.19985
659.30        74.15898
659.73        73.31464
660.15        70.99976
660.58        73.38905
661.01         75.3485
661.44        73.08454
661.86        72.28344
662.29        72.14803
662.72        73.04914
663.14        74.68397
663.57        74.66158
664.00        73.27063
664.42          72.974
664.85         73.8583
665.27        74.36844
665.70        74.29037
666.13        74.14542
666.55        73.91655
666.98         73.4542
667.41        72.92777
667.83         72.6716
668.26        72.75949
668.69        73.06511
669.11        73.38261
669.54        73.73635
669.96        73.37231
670.39        72.94765
670.82        72.46058
671.24         72.2631
671.67        72.45715
672.09        72.91428
672.52        73.35116
672.94        73.84015
673.37        73.11613
673.80        72.88738
674.22        72.85939
674.65        72.79099
675.07        72.67825
675.50        72.53989
675.92        72.43477
676.35        72.48781
676.77        72.70699
677.20        72.97063
677.62        73.22446
678.05        73.38654
678.47        73.41805
678.90        73.35652
679.32        73.25379
679.75        73.05605
680.17        73.07796
680.60        73.07911
681.02        73.09103
681.45        72.98717
681.87        72.77379
682.30        72.51624
682.72        72.31407
683.15        72.31747
683.57        72.56574
684.00        72.91127
684.42        73.34398
684.85        73.59433
685.27        73.46527
685.70        73.19256
686.12        72.83884
686.54         72.6417
686.97        72.64527
687.39        72.79403
687.82        73.00203
688.24        73.17742
688.66        73.25954
689.09        73.28519
689.51        73.28987
689.94        73.29858
690.36        73.33184
690.78        73.36584
691.21        73.38914
691.63        73.39668
692.06        73.39088
692.48        73.38869
692.90        73.40179
693.33        73.42876
693.75         73.4732
694.17        73.54046
694.60        73.62833
695.02        73.72234
695.44        73.77839
695.87        73.94632
696.29        74.21177
696.71        74.02781
697.14        73.56429
697.56        73.98132
697.98        75.02686
698.41        74.74554
698.83        73.92091
699.25        73.38166
699.68        73.43119
700.10        73.38411
700.52        73.26038
700.94        73.45774
701.37        73.87371
701.79        74.22495
702.21        74.41355
702.64        74.52075
703.06         74.5412
703.48        74.46336
703.90        74.31223
704.33        74.07796
704.75        73.82044
705.17        73.69813
705.59        73.75753
706.01        73.83849
706.44         73.8632
706.86         74.3392
707.28        74.24849
707.70        74.39349
708.12        74.46227
708.55        74.39227
708.97        74.18716
709.39        73.97306
709.81        73.82687
710.23        73.76955
710.66        73.82812
711.08        74.05897
711.50         74.3372
711.92        74.44314
712.34        74.33196
712.76        74.06462
713.19        73.78677
713.61        73.70016
714.03        73.95117
714.45        74.37955
714.87        74.81801
715.29        74.95128
715.71        74.71732
716.13        74.21648
716.56        73.66087
716.98        73.42649
717.40        73.59462
717.82        74.04752
718.24        74.58277
718.66        74.85809
719.08        74.77906
719.50        74.45982
719.92        74.03771
720.34        73.74699
720.76        73.66448
721.19        73.59721
721.61        73.73954
722.03        73.89084
722.45        74.08298
722.87        74.32403
723.29        74.57769
723.71        74.76999
724.13        74.87458
724.55        74.89436
724.97        74.85087
725.39        74.79442
725.81        74.74519
726.23        74.69815
726.65        74.65031
727.07         74.5924
727.49        74.52849
727.91         74.4736
728.33        74.44605
728.75        74.46995
729.17        74.54539
729.59        74.65644
730.01        74.78551
730.43        74.89668
730.85        74.98442
731.27        75.08424
731.69         75.1755
732.10        75.20477
732.52        75.16448
732.94         75.1088
733.36        75.12669
733.78        75.21402
734.20        75.37316
734.62        75.92504
735.04        76.67039
735.46        76.53426
735.88        75.79494
736.30        76.10686
736.72        77.39584
737.13        77.98372
737.55        77.55896
737.97        77.37629
738.39        77.50648
738.81        76.64898
739.23        75.32522
739.65        76.21261
740.06        78.73973
740.48        79.07384
740.90        77.28742
741.32        76.46928
741.74         76.9211
742.16        77.17618
742.57        77.29256
742.99        78.08819
743.41        79.29209
743.83        79.99531
744.25        80.03644
744.67        79.64593
745.08         79.1158
745.50        78.92294
745.92        79.20842
746.34        79.80251
746.75        80.47173
747.17         80.8306
747.59        80.80631
748.01        80.53133
748.42        80.23573
748.84        80.30441
749.26        80.83628
749.68        81.54832
750.09        82.26094
750.51        82.99914
750.93        83.52962
751.35         83.1825
751.76        82.22443
752.18        81.86939
752.60        82.14813
753.01        82.18056
753.43        81.97647
753.85        82.13041
754.27        82.65316
754.68        83.34432
755.10        84.05886
755.52        84.42052
755.93        84.82445
756.35        84.84064
756.77        84.74202
757.18        84.66176
757.60        84.66022
758.02        84.99664
758.43        85.31599
758.85        84.99215
759.26        83.19653
759.68        83.25928
760.10        84.55118
760.51        85.74099
760.93        85.48205
761.34        84.08887
761.76        83.16088
762.18        82.57249
762.59        82.88366
763.01        83.27138
763.42        83.80192
763.84        84.36818
764.26        84.91438
764.67        85.28716
765.09        85.39062
765.50        85.22589
765.92         84.7725
766.33        83.63745
766.75        82.27419
767.16        81.80371
767.58        82.40186
768.00        83.77129
768.41        85.57649
768.83        86.98598
769.24        87.41367
769.66        86.66967
770.07        85.23468
770.49        83.52943
770.90        82.07194
771.32        82.82998
771.73        85.13754
772.15        84.65829
772.56        81.88054
772.97        81.54281
773.39        83.51012
773.80        84.26939
774.22        83.55233
774.63         83.4524
775.05        83.94975
775.46        84.15575
775.88        83.98923
776.29        83.70026
776.70        83.40398
777.12        83.32203
777.53        83.51397
777.95        83.84895
778.36         84.1588
778.77         84.1489
779.19        83.80936
779.60        83.24506
780.02        82.67868
780.43        82.57934
780.84        83.09451
781.26        83.50616
781.67        83.79913
782.09        85.18556
782.50        86.96574
782.91        85.98782
783.33        83.04903
783.74        82.07243
784.15        83.25852
784.57        84.11281
784.98        84.25491
785.39        84.29041
785.81        84.14333
786.22        83.59069
786.63        82.98251
787.04        82.89886
787.46        83.41332
787.87        84.37402
788.28        85.42464
788.70        85.92293
789.11        85.72125
789.52        85.05358
789.93        84.24185
790.35        83.72594
790.76        83.63807
791.17        83.89447
791.58         84.3361
792.00        84.63633
792.41        84.68406
792.82        84.61679
793.23        84.60863
793.65        84.45123
794.06        84.34842
794.47        85.41393
794.88        86.90582
795.29        86.29052
795.71        83.85633
796.12         81.6511
796.53        80.37878
796.94        80.21095
797.35        81.16676
797.76        82.62025
798.18        83.94011
798.59        84.86664
799.00        85.05044
799.41        84.17123
799.82        82.72648
800.23        81.87652
800.64        81.85663
801.06        82.23846
801.47        82.85276
801.88        83.30404
802.29        83.43944
802.70        83.43863
803.11        83.34214
803.52        83.17306
803.93        82.97918
804.34        82.70348
804.75        82.46902
805.17        82.55569
805.58        83.03699
805.99        83.62533
806.40         84.0841
806.81        84.52991
807.22        84.61682
807.63        83.29939
808.04        81.18649
808.45        80.22833
808.86        80.64813
809.27        81.55047
809.68        82.51407
810.09        83.10557
810.50        83.09114
810.91        82.62428
811.32        81.97221
811.73        81.56551
812.14        81.52751
812.55        81.67585
812.96        81.95082
813.37        82.24929
813.78         82.5023
814.19        82.80869
814.60        82.98273
815.01        82.71712
815.42        81.99648
815.83        80.86891
816.24        79.78172
816.65        79.52442
817.05        80.31741
817.46        81.90219
817.87        83.64996
818.28        84.42945
818.69        83.93487
819.10        82.43951
819.51        80.67048
819.92        79.86893
820.33        80.35516
820.74        81.75321
821.14        83.35705
821.55        83.91396
821.96        83.15926
822.37        81.54182
822.78        79.71724
823.19        78.63995
823.60        78.56949
824.00        79.26295
824.41        80.28431
824.82        81.00367
825.23        81.14959
825.64        80.94337
826.04        80.59467
826.45        80.40424
826.86        80.45177
827.27        80.57959
827.68        80.71251
828.08        80.79116
828.49        80.71949
828.90        80.61593
829.31        80.44297
829.72        80.11422
830.12        79.68018
830.53        79.15755
830.94         78.7801
831.35        78.85877
831.75        79.47591
832.16        80.48402
832.57        81.63709
832.97        82.41017
833.38        82.54855
833.79        82.18247
834.20        81.59937
834.60        81.24763
835.01        81.27088
835.42        81.53884
835.82         81.8237
836.23        81.65939
836.64        80.99942
837.04        80.04155
837.45         79.1218
837.86        78.75718
838.26        79.07401
838.67        79.86484
839.08        80.85954
839.48        81.56454
839.89        81.76539
840.29        81.62037
840.70        81.24949
841.11        80.82246
841.51        80.42924
841.92        79.99061
842.33        79.60546
842.73        79.46063
843.14        79.54649
843.54        79.86991
843.95        80.22245
844.35        80.30624
844.76        80.03378
845.17        79.50793
845.57          78.901
845.98        78.49075
846.38        78.35226
846.79        78.38306
847.19        78.52171
847.60         78.5668
848.00        78.50082
848.41        78.36533
848.81          78.245
849.22        78.18408
849.62        78.25101
850.03        78.42348
850.43        78.70638
850.84        79.01925
851.24        79.36584
851.65        79.56462
852.05        79.80022
852.46        80.19781
852.86        80.76788
853.27         81.5108
853.67        81.88383
854.07        81.17808
854.48        79.43785
854.88         76.9345
855.29        74.58844
855.69        73.73473
856.10         74.6248
856.50        77.06976
856.90        80.23324
857.31        82.15697
857.71        82.18658
858.12        80.82114
858.52        78.90896
858.92        77.57883
859.33        77.09812
859.73        77.14277
860.13        77.61171
860.54        78.30428
860.94        79.15026
861.34        80.19191
861.75        81.19109
862.15        81.83444
862.55        82.00264
862.96        81.72272
863.36        81.19336
863.76        80.76407
864.17        80.57745
864.57        80.60968
864.97        80.82492
865.38        81.14825
865.78        81.57647
866.18        82.04961
866.58        82.55611
866.99        83.04259
867.39        83.53767
867.79        84.07891
868.19        84.41203
868.60        84.09106
869.00        83.08421
869.40        81.52463
869.80        80.21209
870.21        80.37988
870.61        82.34003
871.01        85.72228
871.41        89.41155
871.81        91.48972
872.22        91.44016
872.62        89.81812
873.02        87.71381
873.42         86.9584
873.82         87.8418
874.22        89.61609
874.63        91.66987
875.03        92.65243
875.43        91.94996
875.83        90.70236
876.23        88.65819
876.63        87.76888
877.03        88.18385
877.44        90.05669
877.84        101.9333
878.24        97.11671
878.64        97.09087
879.04        96.01673
879.44        92.96882
879.84         91.5064
880.24         94.1536
880.64        96.05514
881.04        97.63953
881.44        98.43198
881.84        97.63536
882.24        95.71828
882.65        93.87455
883.05         93.4036
883.45        94.52588
883.85        97.02789
884.25        100.0017
884.65        101.6483
885.05        101.4101
885.45        99.92751
885.85        98.12523
886.25        97.27244
886.65        97.64654
887.05        98.77634
887.45        100.2775
887.85        101.4668
888.25        102.0377
888.65        102.2808
889.04        102.1165
889.44        101.4493
889.84        100.3537
890.24        98.82017
890.64        97.39008
891.04        96.91545
891.44        97.51839
891.84        99.01357
892.24        100.6655
892.64        101.1179
893.04        100.1135
893.44        98.20347
893.83        96.24464
894.23        95.47284
894.63        96.12354
895.03        97.74288
895.43        99.93848
895.83         101.968
896.23        103.4248
896.63        104.4968
897.02        104.9477
897.42        104.4235
897.82        103.0165
898.22        100.8761
898.62        98.69345
899.01        97.50082
899.41        97.53286
899.81        98.48036
900.21         99.8413
900.61        100.7472
901.00        100.9236
901.40        100.6426
901.80        100.1307
902.20        99.75042
902.59        99.62701
902.99        99.59351
903.39        99.60902
903.79         99.6329
904.18         99.6405
904.58         99.7254
904.98        99.85144
905.38        99.94241
905.77        99.96675
906.17        99.91812
906.57        99.87484
906.96        100.0163
907.36        100.2948
907.76        100.6614
908.15        100.9231
908.55        100.6521
908.95        99.83349
909.34        98.58558
909.74        97.29888
910.14        96.39672
910.53        96.05038
910.93        96.22303
911.33        96.78187
911.72        97.47527
912.12        98.09289
912.52        98.59219
912.91        99.10957
913.31        99.89746
913.70        101.0477
914.10          102.51
914.49        103.8185
914.89        103.7184
915.29        101.9523
915.68        99.06683
916.08         96.3889
916.47        95.12119
916.87        95.39114
917.26        96.80485
917.66        98.58788
918.05        99.48975
918.45        99.13824
918.84        97.96188
919.24        96.62844
919.64        96.08917
920.03        96.60787
920.42        97.84115
920.82        99.32165
921.21        100.4387
921.61        100.7979
922.00        100.6408
922.40        100.1026
922.79         99.3305
923.19        98.45737
923.58        97.44002
923.98        96.31772
924.37        95.33509
924.77        94.81589
925.16        93.62959
925.55        94.09074
925.95        94.85885
926.34        96.54785
926.74        98.70768
927.13        100.7705
927.52        101.5769
927.92        100.9864
928.31        99.36739
928.70        97.18906
929.10        95.27001
929.49        93.87642
929.89        92.84113
930.28         92.4008
930.67        92.93879
931.07         94.3129
931.46        96.47709
931.85        98.60565
932.24        99.45078
932.64        98.78397
933.03        96.81682
933.42         94.1578
933.82        92.24924
934.21        91.54155
934.60        91.68225
934.99        92.19191
935.39        92.53755
935.78        92.63429
936.17        92.51953
936.56          91.983
936.96        92.28611
937.35        91.11879
937.74        90.50959
938.13        90.17587
938.53        90.68446
938.92        92.04691
939.31        94.25546
939.70        96.72359
940.09        97.77126
940.49        96.81456
940.88          94.521
941.27        92.03495
941.66         90.7172
942.05        90.75578
942.44        91.70013
942.84        93.08765
943.23         94.2173
943.62        94.69787
944.01        94.73348
944.40         94.4252
944.79        93.89635
945.18        93.20232
945.57        92.25347
945.97        91.05108
946.36         89.8306
946.75        88.89872
947.14        88.35719
947.53        88.28106
947.92        88.68523
948.31        89.52437
948.70        90.82007
949.09        92.34369
949.48        93.46822
949.87           93.85
950.26        93.52914
950.65        92.86215
951.04        92.47819
951.43        92.52483
951.82        92.82301
952.21        93.00634
952.60        92.50099
952.99        91.21687
953.38        89.41155
953.77        87.56798
954.16          86.331
954.55        85.85979
954.94        86.05154
955.33        86.45325
955.72        86.29957
956.11        85.42293
956.50        84.00248
956.89        82.77342
957.28         83.0575
957.66        85.19904
958.05        88.48965
958.44        91.81249
958.83        93.53534
959.22        93.28424
959.61        91.50887
960.00        89.02895
960.39        87.19919
960.78        86.46854
961.16        86.52566
961.55        86.85719
961.94        86.58913
962.33        85.52294
962.72        84.06635
963.11        82.75043
963.49        82.21923
963.88        82.56806
964.27        83.60945
964.66        84.89057
965.04        85.50256
965.43        85.02966
965.82        83.84852
966.21        82.58859
966.60        82.06023
966.98         82.4093
967.37        83.32235
967.76        84.41125
968.15        84.91962
968.53        84.60558
968.92        83.73921
969.31        82.67283
969.69        81.81847
970.08        81.31367
970.47         81.0545
970.86        80.94934
971.24        80.87349
971.63         80.7628
972.02        80.63603
972.40        80.68155
972.79        81.15662
973.17        82.20493
973.56        83.66007
973.95        85.01662
974.33        85.32523
974.72        84.32932
975.11        82.34801
975.49        80.38499
975.88        79.84744
976.26        80.92131
976.65        83.37663
977.04        86.15186
977.42         86.6053
977.81        83.86774
978.19        79.04879
978.58        74.57674
978.96        72.97157
979.35        74.59635
979.74        78.85791
980.12        84.75822
980.51        88.76213
980.89        89.60271
981.28        88.21077
981.66        85.80374
982.05        83.96118
982.43        83.06309
982.82        82.55688
983.20        82.57796
983.59        83.49217
983.97        85.36534
984.35        88.28493
984.74        91.37926
985.12        92.86572
985.51        91.63109
985.89        87.97446
986.28        83.02398
986.66        78.72493
987.04        76.14097
987.43        75.06332
987.81        74.75394
988.20        74.15358
988.58        72.88316
988.96        70.79927
989.35        68.83672
989.73        70.45721
990.12         76.8051
990.50        85.37875
990.88        91.65686
991.27        92.93916
991.65        89.94749
992.03        83.64287
992.42         76.2589
992.80        72.04625
993.18        72.48333
993.56        75.51494
993.95         79.3115
994.33        82.26994
994.71        83.87506
995.10        84.99228
995.48        85.34893
995.86        84.23895
996.24        81.58437
996.63         77.0815
997.01        71.95964
997.39        70.00594
997.77        72.80031
998.15        79.43418
998.54        86.54098
998.92        89.52711
999.30        87.06774
999.68        80.43358
1000.06        71.44212
1000.45        64.66497
1000.83        62.14601
1001.21        62.39655
1001.59        64.52046
1001.97        67.71284
1002.35        71.66689
1002.73        77.32181
1003.12        83.12445
1003.50        84.00922
1003.88        77.91055
1004.26        67.40435
1004.64        57.28836
1005.02         51.3534
1005.40        49.63869
1005.78        51.59376
1006.16        58.03642
1006.54         66.6214
1006.92        72.21393
1007.30        74.30559
1007.69        74.75053
1008.07        75.78883
1008.45        78.16893
1008.83        82.56141
1009.21        89.65298
1009.59        91.88274
1009.97        53.89813
1010.35        -54.7463
1010.73       -91.02831
1011.11       -47.54589
1011.49       -2.559353
1011.86        32.99102
1012.24        54.45208
1012.62        64.21983
1013.00        66.84077
1013.38        64.93118
1013.76        61.19926
1014.14        63.90197
1014.52         79.7807
1014.90        110.0678
1015.28         145.653
1015.66        161.4232
1016.04        142.7478
1016.41        95.94418
1016.79        47.29981
1017.17         23.8358
1017.55        22.77951
1017.93        30.26227
1018.31        38.85003
1018.69        44.85811
1019.06        48.61291
1019.44        51.33138
1019.82        54.79041
1020.20        62.37904
1020.58         78.5839
1020.95        110.8474
1021.33        172.4668
1021.71       -474.5569
1022.09        66.83805
1022.46        104.1998
1022.84        120.1627
1023.22        131.8639
1023.60        150.6203
1023.97        307.9372
1024.35        45.90873
1024.73        76.30195
