SpectraSmart Spectrum 2.9.0.0
--------- Device Information -----------
Spectrum Name :  反射率_0
Saving Time :  2024/04/26 01:44:26
Spectro-Module Model Name : SE2030-DUVN
Spectro-Module Serial Number : OS361AC55029948
Wavelength Start : 200
Wavelength End : 1025
Wavelength Unit : Wavelength(nm)
Spectrum Unit : Reflectance(%)
-----------Spectrum Setting ------------
Integration Time : 20ms
Average : 10
Boxcar : 0
Background removal :  enabled
linearity correction :  enabled
SC :  disabled
Intensity correction :  disabled
DWT denoise :  enabled
savitzky-golay :  disabled
FFT :  disabled
Running average :  disabled
Kalman :  disabled
High pass :  disabled
---------------BEGIN--------------------
Wavelength(nm)             Reflectance(%)
200.29               0
200.75        98.01563
201.21        85.32062
201.67        71.28852
202.13        64.07387
202.58        64.57346
203.04        70.77184
203.50        79.04005
203.96        82.96059
204.42        81.21162
204.88        76.57648
205.34        72.20617
205.80        71.28801
206.26         75.0652
206.72         85.6487
207.18        107.9249
207.64        130.3855
208.10        122.4348
208.55        99.07747
209.01        83.21745
209.47        77.13613
209.93        76.67967
210.39        79.37263
210.85        82.72083
211.31        81.99091
211.77        75.94661
212.23        66.66613
212.69        57.97315
213.14        55.59172
213.60        60.32844
214.06         70.5881
214.52        82.40696
214.98        89.68121
215.44        90.78601
215.90        87.54321
216.36        82.68488
216.81        79.99894
217.27         80.4757
217.73         82.5509
218.19        84.18352
218.65        82.70704
219.11        77.05381
219.57        66.61501
220.02        52.32145
220.48        41.69127
220.94         39.8977
221.40        45.96356
221.86         53.2994
222.32        54.40989
222.77        49.57515
223.23        42.46569
223.69        36.85106
224.15        36.65019
224.61        41.27708
225.06        48.64971
225.52         55.5441
225.98         57.8959
226.44        55.12577
226.90        49.14088
227.36        42.47226
227.81        38.51719
228.27        38.30751
228.73        40.45022
229.19         43.7771
229.65        46.53256
230.10        48.08325
230.56        49.02618
231.02        49.52515
231.48        49.71613
231.93        49.69158
232.39        49.36459
232.85        48.91344
233.31        48.72613
233.77        48.87815
234.22        49.34246
234.68        49.87222
235.14        49.89197
235.60        49.29623
236.05        48.33049
236.51        47.44548
236.97        47.23881
237.43        47.93346
237.88         49.5997
238.34        52.07406
238.80        54.76703
239.26         57.1082
239.71        59.12751
240.17          60.744
240.63        62.59777
241.08         64.9196
241.54          67.272
242.00        69.53635
242.46        71.85768
242.91        75.06168
243.37        80.95323
243.83        97.27036
244.28        147.9548
244.74         201.898
245.20        167.2718
245.66        138.2113
246.11        131.2283
246.57         137.695
247.03        164.4048
247.48        244.6484
247.94          206.67
248.40        121.4434
248.85        95.00156
249.31        86.89175
249.77        85.30333
250.22        87.01034
250.68        91.63285
251.14        98.91576
251.59        103.8455
252.05        101.7245
252.51        95.08475
252.96        87.94343
253.42         84.6534
253.88         84.8009
254.33        86.44543
254.79         89.8584
255.25        94.73933
255.70        99.84118
256.16         105.022
256.62        108.0348
257.07        106.5706
257.53        101.8311
257.99        94.80029
258.44        87.86745
258.90        84.82394
259.35        84.55268
259.81        85.55314
260.27        85.48816
260.72        82.12049
261.18        76.40291
261.63        69.40886
262.09        62.95644
262.55        58.38072
263.00        55.67085
263.46        54.25353
263.91         53.2403
264.37        52.03959
264.83        50.37666
265.28        48.35205
265.74        46.35014
266.19        44.67604
266.65        43.57567
267.11        42.84273
267.56        42.14449
268.02         41.0746
268.47        39.50978
268.93        37.60119
269.38        35.61534
269.84        34.24932
270.30        33.68953
270.75        33.74756
271.21         34.0373
271.66        33.97052
272.12        33.38736
272.57        32.46378
273.03        31.48973
273.48        30.81948
273.94        30.56238
274.39         30.5347
274.85        30.55424
275.31        30.34969
275.76        29.85202
276.22        29.19997
276.67        28.49787
277.13        27.98619
277.58         27.6627
278.04        27.47475
278.49        27.29003
278.95        26.99435
279.40        26.52617
279.86        25.98438
280.31        25.38732
280.77        24.87446
281.22           24.44
281.68        24.08371
282.13        23.77184
282.59        23.49118
283.04         23.2319
283.50        23.04267
283.95        22.89932
284.41        22.78411
284.86        22.68268
285.32        22.59201
285.77        22.57212
286.22        22.77703
286.68        23.18498
287.13        23.71296
287.59        24.15676
288.04        24.20664
288.50        23.85164
288.95        23.19075
289.41        22.48548
289.86        22.02098
290.32        21.92449
290.77        22.09328
291.22        22.44338
291.68        22.80256
292.13        23.13082
292.59        23.49728
293.04        23.96296
293.50        24.61755
293.95         25.4647
294.40        26.43689
294.86        27.47033
295.31        28.48813
295.77        29.47719
296.22        30.46903
296.68        31.48054
297.13        32.50179
297.58        33.55249
298.04        34.64643
298.49        35.83239
298.95        37.23855
299.40        38.87442
299.85         40.7029
300.31        42.61539
300.76        44.43379
301.21        46.07555
301.67        47.59932
302.12        49.01851
302.58        50.46101
303.03        51.93711
303.48        53.45067
303.94        55.03989
304.39        56.70028
304.84        58.44533
305.30        60.27337
305.75        62.10964
306.20        63.86543
306.66        65.52536
307.11        67.04336
307.57        68.48963
308.02        69.85644
308.47        71.20985
308.93        72.56499
309.38        73.88686
309.83        75.17425
310.29        76.41676
310.74        77.57835
311.19        78.71008
311.65        79.89081
312.10        81.11433
312.55        82.37015
313.00        83.51197
313.46        84.30534
313.91        84.69556
314.36        84.77657
314.82        84.79573
315.27        85.08309
315.72        85.75552
316.18        86.72286
316.63         87.8114
317.08        88.68421
317.53         89.2347
317.99        89.53876
318.44        89.77981
318.89        90.26364
319.35        91.03272
319.80        92.00995
320.25         92.9221
320.70        93.32864
321.16        93.14374
321.61        92.52592
322.06        91.80455
322.51        91.49163
322.97        91.69355
323.42        92.30273
323.87        93.06595
324.32        93.54182
324.78        93.59159
325.23         93.3961
325.68        93.12058
326.13        93.06141
326.59        93.28337
327.04        93.70547
327.49         94.2349
327.94        94.76112
328.39        95.22536
328.85         95.6441
329.30        96.03121
329.75        96.23734
330.20        96.26733
330.66        96.14923
331.11        96.08058
331.56        96.30371
332.01        96.89546
332.46        97.77999
332.92        98.81166
333.37        99.90553
333.82        100.8876
334.27        101.7748
334.72        102.4695
335.17        102.8333
335.63        102.8614
336.08        102.6422
336.53        102.3438
336.98        102.2929
337.43        102.5856
337.88        103.1408
338.34        103.8693
338.79        104.7045
339.24        105.5441
339.69          106.43
340.14        107.2148
340.59         107.641
341.05        107.6781
341.50        107.3821
341.95        107.0259
342.40        107.0498
342.85        107.5462
343.30        108.3932
343.75        109.3458
344.20        109.9635
344.66        110.1261
345.11        109.9555
345.56        109.6285
346.01         109.409
346.46        109.3869
346.91        109.4824
347.36        109.6439
347.81        109.8006
348.26        109.9301
348.72        110.0821
349.17        110.2468
349.62        110.4471
350.07        110.6684
350.52        110.8681
350.97        111.0153
351.42        111.0769
351.87        111.0455
352.32        110.9449
352.77        110.7589
353.22        110.4629
353.67         110.074
354.13        109.6212
354.58        109.1783
355.03         108.918
355.48        108.8595
355.93        108.9481
356.38        109.0321
356.83        108.8681
357.28        108.3978
357.73        107.6912
358.18        106.8798
358.63        106.1762
359.08        105.6425
359.53        105.2225
359.98        104.8272
360.43        104.3156
360.88        103.6508
361.33        102.8778
361.78         102.086
362.23        101.4147
362.68        100.8999
363.13         100.504
363.58        100.1165
364.03        99.56384
364.48        98.81339
364.93        97.92142
365.38        97.02352
365.83        96.33923
366.28        95.90834
366.73        95.64175
367.18        95.40688
367.63        94.99204
368.08        94.34962
368.53        93.57874
368.98        92.74021
369.43        91.91322
369.88         91.1376
370.33        90.38007
370.78        89.71729
371.23        89.28371
371.68        89.09014
372.13        89.09913
372.58        89.15129
373.03        88.96976
373.48        88.49136
373.93        87.80496
374.38        87.05776
374.83         86.4772
375.28        86.11948
375.72        85.89583
376.17        85.75266
376.62         85.5815
377.07        85.33071
377.52        85.01942
377.97        84.64404
378.42        84.19457
378.87         83.6907
379.32        83.16438
379.77        82.60977
380.22        82.01384
380.67        81.38109
381.11        80.70886
381.56        80.10583
382.01        79.75411
382.46        79.68503
382.91         79.8601
383.36        80.05124
383.81        79.89339
384.26        79.32384
384.71         78.4497
385.15        77.54963
385.60         77.1145
386.05        77.17837
386.50        77.57498
386.95        77.99503
387.40        77.92137
387.85        77.27525
388.29        76.26527
388.74        75.26579
389.19         74.4996
389.64        74.01685
390.09         73.6834
390.54         73.5248
390.98        73.59241
391.43        73.84857
391.88        74.25505
392.33        74.57299
392.78        74.41079
393.23        73.75932
393.67        72.82825
394.12        71.98227
394.57        71.32855
395.02        71.03311
395.47        71.38828
395.91         72.2344
396.36        72.78935
396.81        72.89785
397.26        72.86452
397.71        72.73837
398.15        72.36832
398.60        71.87351
399.05        71.45438
399.50        71.08809
399.95        70.20873
400.39        69.31221
400.84        68.95648
401.29        69.20408
401.74          69.326
402.18        69.26434
402.63         69.3404
403.08        69.57999
403.53        69.85186
403.97         70.1269
404.42          70.383
404.87        70.50732
405.32        70.32156
405.76        69.80511
406.21        69.13553
406.66        68.49477
407.11         68.0296
407.55        67.88554
408.00        68.25087
408.45        68.93179
408.90        69.30631
409.34        69.16447
409.79        68.58743
410.24        67.84544
410.68        67.44623
411.13        67.48591
411.58        67.70297
412.03        67.99497
412.47        68.28117
412.92         68.4483
413.37          68.557
413.81        68.58147
414.26        68.52238
414.71        68.37306
415.15        68.11347
415.60        67.82682
416.05        67.67406
416.49        67.69423
416.94        67.86966
417.39        68.04335
417.83        67.92876
418.28        67.49496
418.73        66.84701
419.17        66.24712
419.62        66.11314
420.07        66.48048
420.51        67.20254
420.96         67.9959
421.41        68.32957
421.85         68.0504
422.30        67.58078
422.74        67.04594
423.19        66.37983
423.64        65.79447
424.08        66.04838
424.53        66.95721
424.98        67.46642
425.42        67.44112
425.87        67.56945
426.31        67.86613
426.76         67.7994
427.21        67.53255
427.65        67.73187
428.10        68.37103
428.54        69.04575
428.99        69.70901
429.44        70.19994
429.88          70.415
430.33        70.99691
430.77        71.43558
431.22         70.1193
431.66        67.62668
432.11        66.31232
432.56        66.43446
433.00        67.05972
433.45        68.05386
433.89          69.703
434.34        70.72963
434.78        71.80824
435.23        68.78666
435.67        66.58096
436.12        69.19009
436.57        70.29612
437.01        70.97508
437.46        71.24187
437.90        71.23785
438.35        71.02641
438.79        71.26113
439.24        71.12726
439.68         70.8666
440.13        70.43916
440.57        70.16309
441.02        70.97195
441.46        72.47686
441.91        73.26744
442.35        73.13256
442.80        72.38756
443.24        71.42701
443.69        72.04936
444.13        73.84547
444.58        73.77773
445.02        72.07998
445.47        71.75443
445.91        72.73418
446.36        72.98613
446.80        72.46099
447.24        72.24451
447.69        72.40766
448.13        72.60713
448.58        72.84647
449.02         73.1614
449.47        73.50294
449.91        73.80441
450.36        74.03687
450.80        74.18912
451.25        74.23652
451.69        74.11818
452.13        73.86372
452.58        73.50639
453.02        73.15929
453.47        73.03935
453.91        73.16759
454.36        73.48747
454.80        73.86456
455.24        73.99249
455.69        73.82286
456.13        73.54135
456.58        73.29208
457.02        72.91753
457.46        72.62344
457.91        72.92218
458.35        73.61014
458.79         73.9098
459.24        73.76785
459.68        73.54068
460.13        73.31403
460.57         73.0247
461.01        72.76602
461.46        72.43224
461.90        72.00247
462.34        72.22847
462.79         71.9464
463.23        71.98156
463.68        72.00941
464.12        72.31766
464.56        72.79188
465.01         73.0831
465.45        72.98646
465.89        72.85002
466.34        72.62054
466.78        71.48248
467.22        69.99691
467.67        69.89932
468.11        71.09672
468.55        71.92899
468.99        72.01786
469.44        71.70893
469.88        71.19833
470.32         71.1348
470.77         71.4884
471.21        71.49133
471.65        71.12382
472.10        71.01647
472.54        71.16974
472.98        71.26637
473.42        71.28341
473.87        71.40688
474.31        71.54963
474.75        71.45242
475.20        71.18285
475.64        71.05995
476.08         71.1526
476.52        71.10549
476.97        70.87463
477.41        71.05271
477.85        71.67195
478.29        70.85811
478.74        71.14503
479.18         71.4735
479.62        70.45094
480.06        71.21535
480.50         71.6304
480.95        72.05827
481.39         71.9567
481.83        71.62123
482.27        71.34351
482.72        71.11954
483.16        69.85013
483.60        69.88641
484.04        71.40442
484.48        71.93342
484.93        72.18907
485.37        73.15902
485.81        73.43117
486.25        72.89778
486.69        98.95662
487.14        79.76225
487.58        49.66885
488.02        61.10458
488.46        69.32515
488.90        69.09014
489.34        70.80134
489.79        69.65404
490.23         71.9318
490.67        72.79228
491.11        71.88801
491.55        71.82682
491.99        72.21387
492.43        72.03274
492.88        71.39369
493.32        71.49442
493.76         71.7774
494.20        72.11447
494.64        72.24232
495.08        72.32948
495.52        72.46401
495.96        72.52591
496.41        72.45453
496.85         72.9228
497.29        73.64376
497.73        72.34235
498.17        70.12156
498.61        70.45416
499.05        73.27671
499.49        73.87793
499.93        73.79551
500.37        73.38806
500.82        72.65621
501.26        72.76089
501.70        73.40982
502.14        73.72062
502.58        73.52666
503.02        73.39511
503.46        73.32063
503.90        72.94482
504.34        72.42401
504.78        72.18464
505.22        72.28523
505.66        72.60635
506.10        73.00047
506.54        73.17889
506.98        73.05849
507.42        72.80931
507.86        72.58526
508.30        72.21589
508.74        72.39037
509.18        72.53419
509.62        72.74246
510.06        72.85331
510.50        72.83128
510.94         72.7225
511.38        72.59725
511.82        72.57437
512.26        72.67999
512.70        72.87312
513.14         73.0836
513.58        73.20321
514.02        73.19875
514.46        73.09914
514.90        72.97333
515.34        72.91416
515.78        72.93648
516.22        73.06962
516.66        73.24573
517.10        73.20099
517.54        72.91124
517.98        72.97409
518.42        72.69142
518.86        72.74472
519.30        72.91716
519.74        73.22266
520.18         73.5553
520.62        73.73856
521.06        73.73696
521.50        73.60445
521.93        73.40076
522.37        73.22183
522.81        73.11336
523.25        73.05022
523.69        73.04409
524.13        73.11321
524.57        73.25011
525.01        73.44911
525.45        73.66409
525.89        73.81574
526.32        73.87159
526.76        73.84389
527.20        73.75671
527.64        73.67397
528.08        73.63207
528.52        73.55598
528.96        73.40618
529.40        73.32811
529.83        73.35941
530.27        72.72054
530.71        72.89117
531.15        72.77799
531.59        72.82279
532.03        72.95877
532.46        73.17755
532.90        73.42997
533.34         73.6686
533.78        73.89488
534.22        74.05592
534.66        74.08305
535.09        73.96062
535.53        73.74212
535.97        73.46976
536.41        73.23695
536.85         73.0807
537.28        72.98256
537.72        72.94376
538.16        72.97398
538.60        73.06277
539.04         73.1512
539.47        73.19353
539.91        73.31673
540.35        73.42857
540.79        73.23774
541.22        72.84323
541.66        72.70009
542.10        72.83824
542.54        73.02386
542.97        73.18697
543.41         73.3332
543.85        73.42502
544.29        73.49105
544.72        73.49328
545.16        73.40199
545.60        73.22025
546.04        72.95822
546.47        72.74344
546.91        72.81067
547.35        73.19021
547.79        73.78239
548.22        74.33981
548.66        74.63132
549.10         74.4891
549.53        73.63464
549.97        72.48139
550.41        71.97095
550.84        72.24394
551.28        72.87649
551.72        73.60422
552.15        74.09336
552.59        74.21033
553.03        74.07265
553.46        73.77223
553.90        73.54915
554.34        73.46729
554.77        73.34646
555.21        73.18095
555.65        73.28551
556.08        73.65508
556.52        73.15676
556.96        73.50288
557.39        73.44057
557.83        73.50252
558.27        73.53858
558.70        73.57115
559.14        73.68337
559.57        73.84645
560.01        73.99015
560.45        74.07922
560.88        74.20435
561.32         74.3112
561.75        74.07846
562.19        73.65154
562.63        73.33334
563.06        73.20923
563.50        73.34451
563.93        73.62536
564.37        73.76637
564.80        73.70509
565.24        73.64948
565.68        73.61653
566.11        73.54268
566.55        73.48931
566.98        73.45447
567.42        73.52274
567.85        73.55468
568.29        74.24363
568.72        74.28537
569.16        74.11684
569.60        74.52659
570.03        75.17064
570.47        75.20884
570.90        74.90612
571.34        73.20126
571.77        74.06238
572.21         74.0374
572.64        73.52135
573.08        72.59602
573.51        69.59518
573.95        72.37923
574.38        76.94972
574.82        74.67577
575.25        74.51841
575.69        71.91033
576.12         70.7066
576.56        69.85193
576.99        71.56129
577.42        75.09771
577.86        74.59733
578.29        74.17585
578.73        77.97868
579.16        72.09805
579.60        65.96492
580.03        68.94112
580.47        73.15933
580.90        75.11045
581.33        73.40984
581.77          72.467
582.20        79.51281
582.64         79.6312
583.07        67.66259
583.51           66.37
583.94        65.14227
584.37        68.15568
584.81        71.73868
585.24        75.56324
585.68        77.26197
586.11        75.73167
586.54        70.93604
586.98        68.47707
587.41        69.02502
587.85        72.96792
588.28        75.25512
588.71        71.59005
589.15         69.2282
589.58        71.09487
590.01        71.44491
590.45        72.48682
590.88        73.08897
591.31        72.39085
591.75        71.86218
592.18        71.83009
592.61        73.32348
593.05        73.69076
593.48        76.93271
593.91         78.3836
594.35        71.76292
594.78        69.99727
595.21        69.81306
595.65        72.91164
596.08        75.70898
596.51        72.75818
596.94        70.79934
597.38        71.31826
597.81        74.27093
598.24        76.34902
598.68        74.56921
599.11        73.51173
599.54        76.42614
599.97        77.68668
600.41        72.45886
600.84        72.56424
601.27        74.07578
601.70        72.98616
602.14        73.11736
602.57        72.07726
603.00        72.59011
603.43        74.58104
603.87         76.2226
604.30        75.94941
604.73        73.65781
605.16        72.20106
605.60        72.95198
606.03         74.1561
606.46        75.45584
606.89         75.0928
607.32        72.78535
607.76        72.85821
608.19        75.22932
608.62        74.30121
609.05        72.98645
609.48        73.60381
609.92        73.60876
610.35        73.38896
610.78        75.13146
611.21        75.86387
611.64        72.54706
612.07        73.38953
612.50         73.8055
612.94        74.30907
613.37        73.80113
613.80        73.78999
614.23        74.35094
614.66        74.26083
615.09        74.56416
615.52        74.60815
615.96        74.52032
616.39        74.56949
616.82        73.47598
617.25        73.37772
617.68        73.81557
618.11        74.71883
618.54        75.12818
618.97         74.8445
619.40        74.10397
619.84        73.62917
620.27        74.93716
620.70         75.5247
621.13        75.67119
621.56        75.02001
621.99        73.88754
622.42        74.64845
622.85        76.80933
623.28        76.09376
623.71        75.26091
624.14        75.61965
624.57        75.19246
625.00        74.78801
625.43        75.23458
625.86        74.57687
626.29        74.65108
626.72        75.33262
627.15        74.84018
627.58        74.94894
628.01        75.01688
628.44        75.14987
628.87        75.35455
629.30        75.61252
629.73        76.01482
630.16        76.15703
630.59        75.86473
631.02        75.37799
631.45        74.80766
631.88        74.43476
632.31        74.32735
632.74        74.39075
633.17        74.55026
633.60        74.68941
634.03         74.7592
634.46        74.79836
634.89        74.81142
635.32        74.80289
635.75        74.78041
636.18        74.72671
636.61        74.66837
637.04        74.66051
637.47        74.71033
637.89        74.81548
638.32        74.90948
638.75        74.93042
639.18        74.86045
639.61        74.72572
640.04        74.55938
640.47        74.41327
640.90         74.3105
641.33        74.23433
641.76        74.16058
642.18        74.15642
642.61        74.21745
643.04        74.16252
643.47        73.95005
643.90        74.47243
644.33        74.18993
644.76        74.33939
645.18         74.4371
645.61        74.46196
646.04        74.38971
646.47        74.22407
646.90        74.07106
647.33        74.04317
647.75        74.18946
648.18        74.53231
648.61        74.86224
649.04        74.84654
649.47        74.44533
649.89        73.63387
650.32        72.85801
650.75        72.91493
651.18        73.74337
651.61        74.72639
652.03        75.39199
652.46        75.15372
652.89         74.4861
653.32        73.87538
653.74        73.62181
654.17        75.18431
654.60        75.20908
655.03        72.99989
655.46        73.88046
655.88        78.48563
656.31        83.45276
656.74        187.4534
657.16        121.7846
657.59        43.04268
658.02        32.43471
658.45        56.19115
658.87        72.24517
659.30        75.28943
659.73        74.81273
660.15        71.75519
660.58        74.66187
661.01        76.42962
661.44        73.93433
661.86        73.05122
662.29        72.98056
662.72        73.93466
663.14        75.58227
663.57        75.64993
664.00        74.38081
664.42        74.12897
664.85        74.97031
665.27        75.37236
665.70         75.1565
666.13        74.91074
666.55        74.63916
666.98        74.16743
667.41        73.66803
667.83        73.48405
668.26         73.6813
668.69         74.1283
669.11        74.58139
669.54        75.01224
669.96        74.64223
670.39        74.14191
670.82        73.54652
671.24        73.30269
671.67        73.51968
672.09        73.99452
672.52        74.43206
672.94         74.9403
673.37        74.23009
673.80        74.01145
674.22        73.98426
674.65          73.915
675.07        73.79825
675.50        73.64445
675.92        73.51606
676.35        73.54595
676.77        73.74444
677.20        73.99287
677.62        74.22819
678.05        74.35176
678.47        74.32695
678.90        74.19952
679.32        74.04826
679.75        73.86087
680.17         73.9564
680.60        74.06579
681.02         74.1875
681.45        74.14108
681.87        73.90684
682.30        73.58262
682.72        73.29475
683.15         73.1475
683.57        73.24987
684.00        73.69674
684.42        74.42869
684.85        74.77193
685.27        74.66818
685.70        74.36521
686.12        74.00676
686.54        73.80387
686.97        73.81062
687.39        73.97944
687.82        74.18329
688.24        74.27514
688.66        74.19328
689.09        73.98514
689.51        73.77303
689.94        73.75417
690.36         73.9585
690.78        74.23586
691.21        74.49558
691.63        74.67825
692.06        74.74528
692.48        74.69501
692.90        74.59115
693.33        74.54089
693.75        74.57698
694.17         74.6764
694.60        74.79234
695.02        74.86102
695.44        74.83333
695.87         74.8257
696.29        74.89741
696.71         74.7679
697.14        74.55159
697.56        75.02258
697.98        75.94331
698.41         75.6749
698.83        75.01131
699.25        74.59322
699.68        74.69244
700.10        74.64777
700.52        74.47227
700.94        74.55673
701.37         74.8493
701.79        75.15237
702.21        75.38594
702.64        75.61283
703.06        75.76482
703.48         75.7206
703.90        75.48666
704.33        75.10547
704.75        74.68456
705.17        74.49078
705.59        74.59069
706.01        74.78629
706.44        74.97221
706.86        75.60313
707.28        75.61362
707.70        75.88036
708.12        76.05615
708.55        75.92219
708.97        75.53573
709.39        75.28616
709.81        75.24496
710.23        75.19417
710.66        75.15352
711.08        75.33309
711.50        75.61089
711.92        75.70055
712.34        75.55735
712.76        75.25146
713.19        74.92823
713.61        74.85617
714.03        75.07635
714.45        75.50131
714.87        75.93482
715.29        76.06981
715.71         75.8438
716.13        75.36418
716.56        74.82087
716.98        74.55146
717.40        74.63598
717.82        74.96667
718.24        75.40275
718.66        75.70437
719.08        75.79285
719.50        75.74529
719.92        75.60719
720.34        75.47137
720.76        75.38191
721.19        75.18301
721.61        75.14732
722.03        75.19641
722.45        75.39832
722.87         75.7188
723.29         76.0734
723.71         76.3082
724.13        76.37439
724.55         76.3134
724.97        76.16527
725.39        76.00491
725.81        75.86935
726.23        75.74284
726.65        75.65141
727.07        75.63332
727.49        75.69611
727.91        75.84402
728.33         76.0329
728.75        76.17951
729.17        76.25316
729.59         76.2571
730.01        76.24472
730.43        76.29882
730.85        76.44132
731.27        76.67699
731.69        76.90633
732.10        76.94547
732.52         76.7649
732.94        76.47133
733.36        76.24679
733.78        76.23647
734.20        76.47146
734.62        77.21098
735.04        78.18706
735.46        78.18571
735.88        77.45374
736.30        77.76721
736.72        79.02655
737.13        79.41312
737.55        78.68833
737.97        78.25319
738.39        78.24833
738.81        77.54659
739.23        76.55286
739.65        77.44108
740.06        79.68034
740.48        79.97702
740.90        78.42592
741.32        77.79458
741.74        78.31976
742.16        78.57048
742.57        78.58973
742.99        79.18681
743.41        80.17751
743.83        80.79613
744.25        80.91649
744.67        80.74132
745.08        80.45883
745.50        80.36433
745.92        80.55927
746.34        80.93171
746.75        81.35826
747.17        81.62962
747.59        81.70739
748.01        81.65807
748.42        81.61747
748.84        81.78479
749.26        82.20992
749.68        82.77811
750.09        83.35046
750.51        83.77147
750.93        83.96352
751.35        83.77452
751.76        83.35776
752.18        83.29782
752.60        83.57115
753.01        83.62415
753.43        83.48192
753.85        83.65116
754.27        84.15366
754.68        84.74782
755.10        85.28709
755.52        85.70331
755.93        85.92838
756.35        85.93586
756.77        85.85742
757.18        85.78695
757.60        85.76141
758.02        86.09892
758.43        86.55101
758.85        86.02213
759.26        84.71151
759.68        84.78651
760.10        86.10344
760.51         86.5776
760.93        85.96762
761.34        85.13429
761.76        84.62598
762.18        84.17595
762.59         84.0314
763.01        84.29585
763.42        84.95459
763.84        85.51836
764.26        85.91971
764.67          86.216
765.09        86.29213
765.50        86.20132
765.92        85.82497
766.33        84.34126
766.75        82.41925
767.16        81.92341
767.58        83.03426
768.00        85.07694
768.41        87.45143
768.83        88.76846
769.24        88.52632
769.66        87.59179
770.07        86.06493
770.49         84.6658
770.90        83.62659
771.32        84.60264
771.73         86.8668
772.15        86.35789
772.56        83.56569
772.97         83.0085
773.39        84.60314
773.80        85.09798
774.22         84.2935
774.63        84.20806
775.05        84.77918
775.46        85.04529
775.88        84.89766
776.29        84.62376
776.70        84.35138
777.12        84.31031
777.53        84.56541
777.95        84.97234
778.36        85.36124
778.77        85.43925
779.19        85.18395
779.60        84.69279
780.02        84.17807
780.43        84.05946
780.84        84.47417
781.26        84.81943
781.67        85.07908
782.09        86.20552
782.50        87.63651
782.91        86.80698
783.33        84.37964
783.74        83.58881
784.15        84.58565
784.57        85.20361
784.98        85.17441
785.39        85.18654
785.81        85.17578
786.22        84.78278
786.63        84.28353
787.04        84.25231
787.46        84.74447
787.87        85.58089
788.28           86.47
788.70        86.91257
789.11         86.7837
789.52        86.25372
789.93        85.59311
790.35        85.16864
790.76        85.09281
791.17        85.31747
791.58         85.6719
792.00        85.82887
792.41        85.69695
792.82        85.35539
793.23        85.07464
793.65        84.94288
794.06        85.11342
794.47        86.33787
794.88        87.82215
795.29        87.22317
795.71        84.80275
796.12         82.4865
796.53        81.02391
796.94        80.75095
797.35        81.71761
797.76        83.24712
798.18        84.66338
798.59         85.6349
799.00        85.78962
799.41        84.83777
799.82        83.31371
800.23        82.42941
800.64        82.43689
801.06        82.89115
801.47        83.61328
801.88        84.18787
802.29        84.44936
802.70        84.58752
803.11        84.63744
803.52        84.56488
803.93        84.39119
804.34        84.14455
804.75        83.99598
805.17        83.78845
805.58        84.31615
805.99        84.90823
806.40        85.49922
806.81        85.62959
807.22        85.17755
807.63        84.18094
808.04        83.03241
808.45        82.45844
808.86        82.59576
809.27        83.19286
809.68        83.97263
810.09        84.45568
810.50        84.46582
810.91        84.16805
811.32        83.71272
811.73        83.34167
812.14        83.13488
812.55         82.9635
812.96        82.87948
813.37        82.98698
813.78        83.27933
814.19         83.7788
814.60        84.20547
815.01        84.11657
815.42        83.45397
815.83        82.30861
816.24        81.14911
816.65        80.80071
817.05        81.50478
817.46        82.98407
817.87        84.63027
818.28        85.35259
818.69        84.85291
819.10        83.40291
819.51        81.69852
819.92        80.91905
820.33         81.3708
820.74        82.69895
821.14        84.22711
821.55        84.75194
821.96        84.02662
822.37        82.48438
822.78        80.77014
823.19         79.8272
823.60        79.90675
824.00        80.76421
824.41        81.95306
824.82        82.82104
825.23        83.07859
825.64        82.94722
826.04        82.61869
826.45        82.37388
826.86        82.29983
827.27        82.25031
827.68        82.20604
828.08        82.20335
828.49        82.16853
828.90        82.19575
829.31        82.18829
829.72        81.94528
830.12        81.47728
830.53        80.83653
830.94        80.29156
831.35        80.20086
831.75        80.66547
832.16        81.52425
832.57        82.54862
832.97         83.2504
833.38        83.38905
833.79        83.09555
834.20        82.63074
834.60         82.3991
835.01        82.52586
835.42        82.87356
835.82        83.22751
836.23        83.14667
836.64        82.58295
837.04        81.72506
837.45        80.85602
837.86        80.41288
838.26        80.51569
838.67        80.98445
839.08        81.65211
839.48        82.20322
839.89         82.4708
840.29        82.56137
840.70        82.47984
841.11         82.2174
841.51        81.81688
841.92        81.24622
842.33        80.68124
842.73        80.43546
843.14        80.53886
843.54         80.9652
843.95        81.44232
844.35        81.57131
844.76          81.242
845.17        80.59174
845.57        79.87605
845.98        79.49599
846.38        79.54544
846.79        79.87825
847.19         80.3266
847.60        80.49979
848.00        80.33141
848.41        79.92854
848.81         79.4866
849.22        79.21474
849.62        79.22629
850.03        79.45248
850.43        79.85075
850.84        80.24744
851.24         80.6133
851.65        80.80355
852.05        81.01967
852.46        81.40765
852.86        81.98811
853.27        82.74062
853.67         83.1351
854.07        82.49229
854.48        80.85138
854.88        78.46902
855.29        76.22662
855.69        75.39664
856.10        76.21529
856.50        78.51095
856.90         81.4727
857.31        83.21674
857.71        83.13633
858.12        81.71755
858.52        79.79874
858.92        78.48976
859.33        78.04154
859.73        78.13431
860.13        78.64631
860.54        79.32821
860.94        80.10444
861.34        81.04522
861.75        81.93159
862.15        82.48118
862.55        82.59719
862.96        82.29716
863.36        81.84325
863.76        81.68609
864.17        81.95097
864.57        82.54481
864.97        83.28435
865.38        83.87495
865.78        84.27011
866.18        84.48721
866.58        84.59819
866.99        84.70084
867.39         84.8934
867.79         85.1668
868.19        85.33056
868.60        85.04221
869.00        84.27798
869.40        83.16364
869.80        82.30532
870.21        82.60879
870.61        84.31956
871.01        87.14359
871.41        90.20092
871.81        91.99202
872.22         92.1007
872.62        90.93684
873.02        89.37157
873.42        88.89313
873.82        89.72989
874.22        91.29838
874.63        93.03648
875.03        93.73318
875.43         92.8827
875.83         91.5349
876.23        89.56065
876.63        88.85478
877.03        89.61404
877.44         92.0791
877.84        101.0714
878.24        99.84063
878.64        99.60054
879.04        97.87342
879.44        94.92494
879.84         93.3269
880.24         95.3391
880.64        96.95137
881.04        98.40942
881.44        99.12145
881.84        98.33213
882.24        96.54038
882.65        94.82269
883.05        94.32507
883.45        95.24887
883.85        97.39339
884.25        99.99973
884.65         101.571
885.05        101.5975
885.45        100.5597
885.85        99.20505
886.25        98.56599
886.65        98.87346
887.05        99.77852
887.45        100.8786
887.85        101.4719
888.25         101.331
888.65        100.7663
889.04        100.0195
889.44        99.48151
889.84        99.26513
890.24        99.18848
890.64        99.28678
891.04        99.65104
891.44        100.2274
891.84        101.0063
892.24        101.6632
892.64        101.5983
893.04        100.7647
893.44        99.46712
893.83        98.16615
894.23        97.53132
894.63        97.69279
895.03        98.41217
895.43        99.61117
895.83        101.0989
896.23        102.6635
896.63        104.3122
897.02        105.5796
897.42        105.7301
897.82        104.7017
898.22        102.7475
898.62        100.5951
899.01        99.33551
899.41        99.24289
899.81        99.96638
900.21        101.0636
900.61        101.7852
901.00        101.8799
901.40         101.607
901.80        101.1189
902.20        100.6404
902.59        100.2741
902.99        99.91052
903.39        99.58519
903.79        99.38837
904.18        99.34464
904.58        99.50274
904.98        99.80486
905.38        100.1434
905.77        100.4456
906.17        100.6904
906.57        100.9035
906.96         101.183
907.36        101.4803
907.76        101.7945
908.15        101.9593
908.55        101.5989
908.95        100.7276
909.34        99.43006
909.74        98.18439
910.14        97.55802
910.53        97.71368
910.93        98.55913
911.33        99.70504
911.72        100.4399
912.12        100.4937
912.52        100.0529
912.91        99.56498
913.31        99.63033
913.70        100.3932
914.10        101.6947
914.49        103.0667
914.89        103.2263
915.29         101.826
915.68        99.38243
916.08        97.06295
916.47        95.89491
916.87        96.01221
917.26        97.06654
917.66        98.39227
918.05        98.96021
918.45        98.47522
918.84        97.29994
919.24        96.06352
919.64        95.65038
920.03        96.28857
920.42        97.66732
920.82        99.26023
921.21        100.3382
921.61        100.5048
922.00        100.0572
922.40        99.24316
922.79        98.37218
923.19        97.61064
923.58         96.8512
923.98        96.10627
924.37        95.54086
924.77        95.37041
925.16        94.61638
925.55        95.24268
925.95        96.06427
926.34        97.59325
926.74        99.42894
927.13        101.1351
927.52        101.7678
927.92        101.2365
928.31        99.84805
928.70        97.99635
929.10        96.36568
929.49        95.16845
929.89        94.27378
930.28        93.90245
930.67        94.41517
931.07        95.67284
931.46        97.62053
931.85        99.50292
932.24        100.1861
932.64        99.47212
933.03        97.57619
933.42        95.03195
933.82        93.12244
934.21        92.27769
934.60        92.21651
934.99        92.59491
935.39        93.05285
935.78        93.53419
936.17        94.07787
936.56        94.45515
936.96        95.02896
937.35        94.06078
937.74         93.0539
938.13        92.21164
938.53        92.22714
938.92        93.09936
939.31        94.73019
939.70        96.58518
940.09        97.21196
940.49        96.15596
940.88        94.06144
941.27        91.88476
941.66        90.72526
942.05        90.74184
942.44        91.55931
942.84          92.853
943.23        94.17123
943.62        95.16393
944.01        95.89536
944.40        96.31962
944.79        96.37496
945.18        96.04567
945.57        95.28045
945.97        93.97555
946.36        92.24375
946.75        90.49344
947.14        89.01463
947.53        88.13044
947.92        88.02215
948.31        88.61662
948.70        89.89936
949.09        91.57484
949.48        92.85693
949.87        93.33391
950.26        93.06933
950.65        92.50303
951.04        92.41174
951.43        92.96014
951.82        93.89361
952.21        94.68894
952.60        94.52657
952.99        93.26685
953.38        91.27056
953.77        89.17973
954.16        87.87567
954.55        87.57518
954.94        88.08885
955.33        88.90496
955.72        89.15767
956.11        88.62868
956.50        87.54099
956.89         86.5474
957.28        86.81696
957.66        88.68106
958.05        91.47401
958.44        94.27988
958.83        95.77698
959.22        95.64154
959.61        94.22482
960.00        92.16912
960.39        90.52346
960.78         89.6497
961.16        89.34623
961.55        89.18076
961.94        88.44341
962.33        87.03224
962.72        85.31582
963.11        83.87416
963.49        83.42021
963.88         84.0439
964.27        85.56045
964.66        87.40159
965.04        88.36777
965.43        87.91918
965.82        86.50834
966.21        84.92697
966.60        84.20715
966.98        84.55548
967.37        85.61541
967.76        86.93828
968.15        87.65357
968.53         87.4542
968.92        86.60368
969.31         85.5414
969.69        84.80702
970.08        84.53877
970.47        84.59981
970.86        84.67744
971.24         84.2555
971.63        83.20562
972.02        81.70776
972.40        80.34061
972.79        80.07184
973.17        81.28413
973.56        83.59872
973.95        86.29543
974.33        87.93141
974.72        87.92892
975.11        86.69445
975.49        85.01887
975.88        84.05459
976.26        83.99287
976.65        84.54295
977.04        85.10888
977.42        84.36877
977.81        82.01109
978.19        78.75032
978.58         76.1153
978.96        75.48462
979.35        77.02151
979.74        80.43644
980.12        85.05942
980.51        88.18845
980.89        88.96093
981.28        87.94538
981.66        86.16544
982.05        85.00748
982.43        84.72982
982.82        84.86235
983.20        85.36886
983.59        86.30383
983.97        87.70244
984.35        89.72299
984.74        91.71091
985.12        92.51707
985.51         91.3663
985.89        88.38137
986.28        84.63226
986.66        81.85248
987.04        80.78786
987.43         81.1403
987.81        81.79606
988.20        81.29528
988.58        79.18529
988.96        75.13603
989.35        70.01862
989.73        68.80898
990.12        74.38653
990.50        84.10886
990.88        92.27393
991.27        94.96973
991.65        92.79015
992.03        87.03205
992.42        79.93185
992.80        75.67133
993.18        75.78839
993.56        78.30777
993.95        81.51256
994.33        83.92493
994.71        85.09196
995.10         85.8734
995.48        86.14397
995.86        85.43999
996.24        83.73164
996.63        80.68455
997.01        77.30637
997.39        76.64773
997.77        79.81607
998.15        85.95629
998.54        91.89467
998.92        93.43179
999.30        89.35133
999.68        80.70888
1000.06        69.66037
1000.45        61.60086
1000.83        58.90608
1001.21        60.03717
1001.59         63.1709
1001.97        66.28848
1002.35        68.88742
1002.73        71.91543
1003.12        74.90897
1003.50        75.99779
1003.88        74.28201
1004.26        70.49802
1004.64        66.61195
1005.02        64.49123
1005.40        64.29126
1005.78        65.76772
1006.16        69.70957
1006.54        75.43401
1006.92        79.88768
1007.30        82.33832
1007.69        83.22442
1008.07        83.41396
1008.45        83.16299
1008.83        81.66556
1009.21        77.02504
1009.59        64.35719
1009.97        35.80512
1010.35        5.535905
1010.73        16.88345
1011.11        34.02374
1011.49        43.52484
1011.86        51.08849
1012.24         55.5386
1012.62        58.10709
1013.00        59.91378
1013.38        61.08394
1013.76        63.40294
1014.14        71.47923
1014.52        88.39149
1014.90        114.9922
1015.28        143.9886
1015.66        157.1642
1016.04        143.7233
1016.41        106.9744
1016.79        66.28297
1017.17        42.64037
1017.55        36.46314
1017.93        38.31359
1018.31        43.02838
1018.69        48.34863
1019.06        54.47405
1019.44        62.62458
1019.82        75.68172
1020.20        96.55833
1020.58        128.5504
1020.95        179.7576
1021.33         274.145
1021.71       -949.3069
1022.09        46.31279
1022.46        105.7667
1022.84        129.2516
1023.22        146.8148
1023.60        176.6348
1023.97         433.778
1024.35        5.223757
1024.73        57.04649
