SpectraSmart Spectrum 2.9.0.0
--------- Device Information -----------
Spectrum Name :  反射率_0
Saving Time :  2024/04/26 01:48:14
Spectro-Module Model Name : SE2030-DUVN
Spectro-Module Serial Number : OS361AC55029948
Wavelength Start : 200
Wavelength End : 1025
Wavelength Unit : Wavelength(nm)
Spectrum Unit : Reflectance(%)
-----------Spectrum Setting ------------
Integration Time : 20ms
Average : 10
Boxcar : 0
Background removal :  enabled
linearity correction :  enabled
SC :  disabled
Intensity correction :  disabled
DWT denoise :  enabled
savitzky-golay :  disabled
FFT :  disabled
Running average :  disabled
Kalman :  disabled
High pass :  disabled
---------------BEGIN--------------------
Wavelength(nm)             Reflectance(%)
200.29               0
200.75        94.18159
201.21        84.72112
201.67        74.80893
202.13        69.93311
202.58        70.56833
203.04         75.5065
203.50         81.9532
203.96        84.94417
204.42        83.43464
204.88        79.45643
205.34        75.53804
205.80        74.14857
206.26        76.09927
206.72        82.84554
207.18        97.09646
207.64        109.3468
208.10        100.3837
208.55        82.99018
209.01        72.95512
209.47        71.64175
209.93        75.86021
210.39        83.98193
210.85        92.88237
211.31        95.32702
211.77        89.00497
212.23        76.96439
212.69        64.36159
213.14        59.02458
213.60        62.43465
214.06        72.29937
214.52        84.75313
214.98        93.76056
215.44        97.23641
215.90         96.8669
216.36        94.07128
216.81        90.63641
217.27        87.76427
217.73        85.03547
218.19        81.77319
218.65        76.84669
219.11        69.43062
219.57        58.46354
220.02        45.21144
220.48        37.58446
220.94         39.9872
221.40        50.44523
221.86        60.62135
222.32        61.75214
222.77        54.76417
223.23        44.45399
223.69        35.49575
224.15        32.64176
224.61         35.4269
225.06        41.47085
225.52        47.65198
225.98        50.17294
226.44        48.33873
226.90        43.83002
227.36        38.73496
227.81        35.78873
228.27        35.87235
228.73        37.83749
229.19        40.54749
229.65        42.36678
230.10        42.89809
230.56        42.77512
231.02        42.58532
231.48        42.96115
231.93        43.92796
232.39        45.16768
232.85        46.32555
233.31        46.94511
233.77        46.89257
234.22        46.32861
234.68        45.43402
235.14        44.51476
235.60        43.79829
236.05        43.31281
236.51        43.06828
236.97        42.99456
237.43        43.13548
237.88        43.68401
238.34        44.87438
238.80        47.14012
239.26        50.43837
239.71        54.49656
240.17        58.57462
240.63        62.06226
241.08        64.77322
241.54        66.66129
242.00        67.96902
242.46        69.31109
242.91        71.51899
243.37        75.50887
243.83        87.93962
244.28        135.1101
244.74        201.5357
245.20        181.0004
245.66        154.0603
246.11        145.3797
246.57        147.2794
247.03        160.8492
247.48        194.3477
247.94        142.8501
248.40        98.38695
248.85        88.63352
249.31        87.58439
249.77        89.67131
250.22         94.0841
250.68        101.8289
251.14        112.4866
251.59        118.2079
252.05        112.0642
252.51        98.29072
252.96        84.49384
253.42        77.56905
253.88        76.91348
254.33        80.00531
254.79        86.10828
255.25        93.39439
255.70        100.0773
256.16        106.2079
256.62        110.0872
257.07        109.9862
257.53        106.9873
257.99        101.7371
258.44        95.84486
258.90        92.34612
259.35        90.45503
259.81        89.41322
260.27        87.72285
260.72        83.89655
261.18          78.695
261.63        72.68785
262.09         67.1588
262.55        62.82911
263.00        59.71583
263.46        57.60295
263.91        55.89934
264.37        54.32467
264.83        52.59835
265.28        50.68033
265.74        48.82428
266.19        47.14188
266.65        45.87093
267.11        44.91153
267.56        44.01075
268.02        42.85013
268.47        41.30386
268.93        39.46819
269.38        37.59183
269.84        36.34514
270.30        35.88462
270.75        36.02746
271.21        36.32298
271.66        36.08495
272.12        35.15647
272.57         33.7544
273.03        32.29491
273.48        31.32138
273.94        30.98261
274.39        31.03875
274.85        31.20269
275.31        31.04067
275.76        30.44936
276.22        29.62485
276.67        28.74163
277.13        28.14385
277.58        27.84514
278.04        27.74155
278.49         27.6547
278.95        27.41294
279.40        26.94123
279.86        26.36701
280.31        25.71879
280.77        25.14853
281.22        24.66215
281.68        24.25654
282.13        23.91713
282.59        23.66184
283.04        23.47748
283.50        23.39597
283.95        23.36511
284.41         23.3214
284.86         23.2425
285.32         23.1501
285.77        23.10883
286.22        23.28209
286.68        23.65835
287.13        24.14557
287.59        24.58227
288.04        24.72311
288.50        24.55357
288.95        24.14476
289.41        23.67228
289.86        23.29051
290.32         23.1132
290.77        23.08906
291.22        23.22771
291.68        23.49825
292.13        23.89634
292.59        24.44988
293.04        25.16508
293.50        26.04215
293.95         27.0554
294.40        28.16483
294.86         29.3305
295.31        30.51125
295.77        31.70255
296.22        32.91403
296.68        34.14392
297.13        35.35789
297.58        36.56472
298.04        37.78495
298.49        39.07432
298.95        40.57483
299.40        42.29971
299.85        44.20877
300.31         46.1919
300.76          48.064
301.21         49.7481
301.67        51.32092
302.12        52.79271
302.58        54.29398
303.03        55.83067
303.48        57.39184
303.94        59.04614
304.39        60.83394
304.84        62.76145
305.30        64.80784
305.75        66.80159
306.20        68.50872
306.66         69.9071
307.11        71.01525
307.57        72.03936
308.02        73.16435
308.47        74.49889
308.93        75.99393
309.38        77.52759
309.83        78.96205
310.29         80.2407
310.74        81.36465
311.19        82.41165
311.65        83.49883
312.10        84.63645
312.55        85.80235
313.00        86.84853
313.46        87.54597
313.91        87.84721
314.36        87.85323
314.82         87.8322
315.27        88.13801
315.72        88.88373
316.18        89.96128
316.63         91.1567
317.08        92.06743
317.53        92.57011
317.99        92.76298
318.44        92.85497
318.89        93.19434
319.35        93.84254
319.80        94.71497
320.25        95.55475
320.70         95.9471
321.16         95.8072
321.61        95.28711
322.06        94.67991
322.51        94.43895
322.97        94.65519
323.42        95.23342
323.87        95.94434
324.32        96.39362
324.78         96.4549
325.23        96.29141
325.68        96.05177
326.13        96.00727
326.59        96.21348
327.04        96.60327
327.49        97.08408
327.94        97.54365
328.39        97.92951
328.85          98.261
329.30        98.57583
329.75         98.7598
330.20        98.82836
330.66        98.80225
331.11        98.85613
331.56        99.19417
332.01        99.87755
332.46        100.8277
332.92        101.9093
333.37         103.067
333.82        104.1255
334.27        105.0917
334.72         105.824
335.17        106.1139
335.63        105.9535
336.08        105.4694
336.53        104.9087
336.98          104.72
337.43        105.0285
337.88        105.7147
338.34        106.6376
338.79        107.6416
339.24        108.5902
339.69        109.5542
340.14        110.3746
340.59        110.7785
341.05         110.742
341.50        110.3114
341.95        109.8266
342.40        109.8329
342.85        110.4335
343.30        111.4817
343.75        112.6273
344.20        113.2446
344.66        113.1782
345.11        112.6179
345.56        111.8731
346.01        111.4074
346.46        111.3533
346.91        111.5633
347.36        111.8934
347.81        112.1277
348.26        112.2017
348.72        112.2145
349.17        112.1963
349.62        112.2336
350.07        112.3378
350.52        112.4396
350.97        112.5112
351.42        112.5283
351.87        112.4782
352.32        112.3881
352.77        112.2116
353.22        111.8714
353.67        111.3758
354.13        110.7659
354.58        110.1532
355.03        109.7759
355.48        109.6619
355.93        109.7265
356.38        109.7814
356.83        109.5245
357.28         108.885
357.73        107.9661
358.18        106.9058
358.63        105.9259
359.08        105.1046
359.53        104.3803
359.98        103.7222
360.43        103.0791
360.88        102.4204
361.33        101.7671
361.78        101.1017
362.23        100.3876
362.68         99.6299
363.13        98.84937
363.58        98.06266
364.03        97.29659
364.48        96.56472
364.93        95.85868
365.38        95.21207
365.83        94.68022
366.28         94.2515
366.73        93.88293
367.18        93.50044
367.63        92.98832
368.08         92.3271
368.53        91.57959
368.98        90.76509
369.43        89.90462
369.88        89.02534
370.33        88.12004
370.78        87.30232
371.23         86.7624
371.68        86.52779
372.13        86.54387
372.58        86.62421
373.03        86.44585
373.48        85.93361
373.93        85.19495
374.38        84.39286
374.83        83.77883
375.28        83.41273
375.72        83.18699
376.17        83.04966
376.62        82.89632
377.07        82.67101
377.52        82.39732
377.97        82.03448
378.42        81.51425
378.87        80.85461
379.32         80.1077
379.77        79.34257
380.22        78.65429
380.67        78.06136
381.11        77.52886
381.56        77.07862
382.01        76.74807
382.46        76.53758
382.91        76.45775
383.36        76.37355
383.81        76.07003
384.26        75.51998
384.71        74.77586
385.15        74.04404
385.60        73.70694
386.05        73.77097
386.50        74.10577
386.95        74.43087
387.40        74.27773
387.85        73.58955
388.29        72.56063
388.74        71.55337
389.19        70.79205
389.64        70.32001
390.09        69.99984
390.54        69.85531
390.98        69.93176
391.43        70.19129
391.88        70.60253
392.33        70.90877
392.78        70.70992
393.23        70.00603
393.67        68.97059
394.12        68.01703
394.57        67.44059
395.02        67.35986
395.47         67.7942
395.91        68.57985
396.36        69.16127
396.81        69.38306
397.26        69.40559
397.71        69.26192
398.15        68.85823
398.60        68.31682
399.05        67.81089
399.50        67.35101
399.95        66.46893
400.39        65.63412
400.84        65.30981
401.29        65.53625
401.74         65.6758
402.18        65.64053
402.63        65.59748
403.08        65.63174
403.53        65.83281
403.97        66.19367
404.42        66.59318
404.87        66.85098
405.32        66.72719
405.76        66.18204
406.21        65.36806
406.66        64.53442
407.11        64.04418
407.55        64.00375
408.00        64.28892
408.45        64.73425
408.90        65.05856
409.34        65.07262
409.79        64.65092
410.24        64.00693
410.68        63.66551
411.13        63.71023
411.58        63.86228
412.03        64.07771
412.47        64.38882
412.92        64.70358
413.37        65.03904
413.81        65.28536
414.26        65.31383
414.71        65.09344
415.15        64.65243
415.60        64.14255
416.05        63.83184
416.49        63.79708
416.94        63.99535
417.39        64.24529
417.83        64.21962
418.28        63.86542
418.73        63.29241
419.17        62.76977
419.62        62.72349
420.07        63.19275
420.51        64.02593
420.96        64.90492
421.41        65.26761
421.85        64.96701
422.30        64.37711
422.74        63.70187
423.19        63.13665
423.64        62.82991
424.08        63.14517
424.53        63.92059
424.98        64.45639
425.42        64.62235
425.87        64.94128
426.31        65.36618
426.76        65.22418
427.21        64.74443
427.65        64.95785
428.10        65.79987
428.54        66.49384
428.99        66.98813
429.44         67.2806
429.88        67.36283
430.33        68.07232
430.77        68.83091
431.22        67.66438
431.66        65.15282
432.11        63.93404
432.56         64.2919
433.00        65.07666
433.45        66.12856
433.89          68.035
434.34        69.37763
434.78        70.22773
435.23        66.31004
435.67        64.16254
436.12         66.8763
436.57        68.09738
437.01        68.63747
437.46        68.87283
437.90        68.91195
438.35        68.98524
438.79        69.09467
439.24        69.06405
439.68          68.925
440.13        68.69028
440.57        68.63502
441.02        69.41615
441.46        70.73052
441.91        71.73457
442.35         72.0602
442.80        71.28385
443.24        69.87791
443.69        70.26947
444.13        72.10954
444.58        72.09244
445.02        70.35664
445.47        70.14341
445.91        71.30901
446.36        71.67271
446.80        71.15688
447.24        70.88271
447.69        70.96027
448.13        71.11668
448.58         71.3738
449.02        71.73673
449.47         72.1393
449.91        72.49278
450.36         72.7584
450.80        72.93629
451.25        73.00008
451.69        72.88374
452.13        72.61938
452.58        72.24012
453.02        71.87249
453.47        71.75581
453.91        71.91187
454.36        72.27245
454.80        72.68646
455.24        72.81763
455.69        72.60815
456.13        72.26398
456.58        71.92965
457.02         71.4312
457.46        70.99034
457.91        71.16119
458.35         71.7503
458.79        71.98171
459.24        71.83604
459.68        71.59179
460.13        71.27702
460.57        71.09949
461.01        71.12031
461.46        70.12091
461.90        69.93114
462.34        70.28242
462.79        69.81734
463.23        69.96526
463.68        70.12543
464.12        70.36861
464.56         70.6042
465.01         70.7632
465.45        70.71037
465.89        70.67653
466.34        70.52929
466.78        69.49239
467.22        68.15986
467.67        67.51198
468.11        69.00419
468.55        69.72057
468.99        69.76509
469.44        69.46321
469.88        69.01567
470.32        69.05004
470.77        69.47663
471.21        69.47321
471.65        69.00106
472.10        68.70386
472.54        68.64507
472.98         68.6011
473.42        68.57038
473.87        68.75363
474.31        69.00542
474.75        68.86765
475.20        68.45043
475.64        68.33462
476.08        68.53427
476.52        68.56841
476.97        68.43556
477.41        68.46012
477.85        68.61758
478.29        68.56934
478.74        68.81586
479.18        68.53395
479.62        67.64961
480.06          68.132
480.50        68.42331
480.95        68.85989
481.39        68.99558
481.83        68.29812
482.27        68.09904
482.72        68.52306
483.16         66.8552
483.60        67.19326
484.04        68.58636
484.48        68.98175
484.93        68.86202
485.37        70.00932
485.81        70.85303
486.25        69.51079
486.69        93.89522
487.14         76.1581
487.58        47.60382
488.02         58.6283
488.46        66.16579
488.90        65.66498
489.34        67.47218
489.79        66.46959
490.23        68.67286
490.67         69.2403
491.11        67.97292
491.55        67.96315
491.99        68.75815
492.43        68.70876
492.88        67.86356
493.32        67.74361
493.76         67.9083
494.20        68.16623
494.64        68.28194
495.08        68.53693
495.52        68.89243
495.96        68.80602
496.41        68.31958
496.85        68.63715
497.29        69.49053
497.73        68.39794
498.17        66.31403
498.61        66.42971
499.05        68.77504
499.49        69.28514
499.93        69.37649
500.37        69.16103
500.82        68.57467
501.26        68.26265
501.70        68.58229
502.14        68.95737
502.58        69.07657
503.02        69.09486
503.46        68.90629
503.90        68.52967
504.34        68.11688
504.78        67.92307
505.22        68.01078
505.66        68.30185
506.10        68.65709
506.54        68.86956
506.98        68.84544
507.42         68.5685
507.86        68.19672
508.30        67.99683
508.74        68.13673
509.18        68.38757
509.62        68.65849
510.06        68.78304
510.50        68.71375
510.94        68.51157
511.38        68.27872
511.82        68.17005
512.26        68.22755
512.70        68.40237
513.14        68.61956
513.58        68.76108
514.02        68.78553
514.46        68.72164
514.90        68.63152
515.34        68.59412
515.78        68.61954
516.22        68.74951
516.66        68.91395
517.10        68.82342
517.54         68.4577
517.98        68.50864
518.42        68.17066
518.86        68.24831
519.30        68.48918
519.74        68.90854
520.18        69.36596
520.62        69.62698
521.06        69.64367
521.50        69.48457
521.93        69.23753
522.37        69.04765
522.81        68.97186
523.25         68.9652
523.69        69.01984
524.13        69.12576
524.57        69.26647
525.01        69.44827
525.45        69.62845
525.89        69.73115
526.32        69.73183
526.76        69.64595
527.20        69.50982
527.64        69.40675
528.08         69.3756
528.52        69.33439
528.96        69.23882
529.40        69.22094
529.83        69.30478
530.27        68.73796
530.71        68.91161
531.15        68.79638
531.59        68.81048
532.03        68.88585
532.46        69.03053
532.90        69.22984
533.34        69.44941
533.78        69.68712
534.22        69.88033
534.66        69.94378
535.09        69.85533
535.53        69.66502
535.97        69.42748
536.41        69.25398
536.85        69.18013
537.28        69.18078
537.72        69.21679
538.16        69.23556
538.60         69.2187
539.04        69.13025
539.47        68.99255
539.91        69.02151
540.35        69.14867
540.79        69.07539
541.22         68.8224
541.66        68.70348
542.10        68.72386
542.54        68.69869
542.97        68.64513
543.41        68.69719
543.85        68.84522
544.29        69.07224
544.72        69.25442
545.16        69.23109
545.60        68.97425
546.04        68.52833
546.47        68.09465
546.91        68.03401
547.35         68.3929
547.79        69.01808
548.22        69.62469
548.66        69.88363
549.10        69.65461
549.53        68.84628
549.97        67.84306
550.41        67.37932
550.84        67.58625
551.28        68.17008
551.72        68.86901
552.15        69.29047
552.59        69.30717
553.03        69.09852
553.46        68.73054
553.90        68.56985
554.34        68.65529
554.77        68.81551
555.21        68.94872
555.65        69.12209
556.08        69.33374
556.52        68.73508
556.96        68.97751
557.39        68.80817
557.83        68.74835
558.27        68.72302
558.70        68.75523
559.14        68.86695
559.57        69.01984
560.01        69.21327
560.45        69.38007
560.88        69.43967
561.32         69.3895
561.75        69.17597
562.19        68.90895
562.63        68.64819
563.06        68.46154
563.50        68.51337
563.93        68.71744
564.37        68.81516
564.80        68.75298
565.24        68.69578
565.68        68.66092
566.11        68.63261
566.55        68.66408
566.98        68.71225
567.42        68.77332
567.85        68.90691
568.29        69.11695
568.72        69.05305
569.16        68.93179
569.60        69.31139
570.03        69.86819
570.47        69.93794
570.90        69.76001
571.34        68.25744
571.77        69.01245
572.21         69.0407
572.64        68.36856
573.08        67.21953
573.51        64.52808
573.95        67.11126
574.38          71.308
574.82        69.58735
575.25        68.98588
575.69        66.58746
576.12        65.63503
576.56         64.9154
576.99        66.20982
577.42        69.25736
577.86        69.51307
578.29        68.71119
578.73        72.26302
579.16        66.44675
579.60        60.98644
580.03        63.72421
580.47        67.84013
580.90        69.39616
581.33        68.07234
581.77        67.33936
582.20        73.89395
582.64        73.32395
583.07          63.011
583.51        61.57262
583.94        60.57431
584.37        63.27162
584.81        66.65517
585.24        70.13808
585.68        71.42281
586.11        70.71777
586.54        65.42236
586.98         63.3307
587.41        63.98985
587.85        67.67256
588.28         69.6807
588.71        66.56586
589.15        64.41954
589.58        65.76559
590.01        66.25748
590.45        67.25743
590.88        67.85047
591.31          67.164
591.75        66.81393
592.18        66.87522
592.61        68.31725
593.05        68.46695
593.48        71.71169
593.91        72.16369
594.35          66.751
594.78        64.88408
595.21        64.78142
595.65        67.69502
596.08        70.51297
596.51        67.47715
596.94        65.62668
597.38        66.21498
597.81        68.99431
598.24        70.39593
598.68        69.06906
599.11        67.97832
599.54        70.75542
599.97        72.01942
600.41        67.17985
600.84        67.29616
601.27        68.64447
601.70        67.87325
602.14        67.82977
602.57        66.76756
603.00        67.07858
603.43        68.53568
603.87         70.2274
604.30        69.78619
604.73        67.63881
605.16        66.31711
605.60        67.28668
606.03        68.38224
606.46        69.32217
606.89        69.03403
607.32        67.14126
607.76        67.00287
608.19        69.23384
608.62        68.26942
609.05        67.02412
609.48        67.52991
609.92          67.507
610.35        67.14213
610.78        69.27075
611.21        69.64284
611.64         66.8142
612.07        67.53123
612.50        67.91908
612.94        68.32679
613.37        67.73784
613.80        67.77901
614.23        68.12636
614.66        68.03333
615.09        68.34225
615.52        68.40341
615.96        68.32061
616.39        68.49109
616.82        67.36749
617.25        67.34924
617.68        67.86447
618.11        68.32509
618.54        68.48791
618.97        68.06297
619.40        67.38049
619.84        67.45034
620.27        68.22122
620.70        68.94273
621.13        69.36648
621.56        68.79472
621.99        67.57628
622.42        68.23156
622.85        70.27676
623.28        69.91283
623.71        69.14212
624.14        69.08699
624.57        68.88676
625.00        68.68377
625.43        68.91357
625.86        68.30431
626.29        68.37498
626.72        69.03229
627.15        68.62189
627.58        68.81704
628.01        68.98328
628.44        69.04465
628.87        69.02282
629.30        69.16913
629.73        69.42728
630.16        69.53681
630.59        69.18731
631.02        68.80605
631.45        68.41852
631.88        68.15034
632.31        68.04502
632.74        68.06504
633.17        68.17057
633.60        68.28336
634.03        68.37028
634.46        68.46151
634.89        68.54406
635.32        68.55211
635.75        68.56425
636.18        68.49891
636.61        68.41946
637.04        68.42469
637.47        68.51529
637.89        68.61982
638.32        68.67931
638.75        68.69877
639.18         68.6637
639.61        68.56178
640.04        68.42239
640.47        68.30731
640.90         68.2376
641.33        68.19493
641.76        68.15173
642.18        68.16121
642.61        68.21845
643.04        68.15913
643.47        67.95737
643.90        68.45267
644.33        68.23291
644.76        68.42787
645.18        68.57356
645.61        68.62224
646.04        68.54158
646.47        68.33739
646.90        68.12578
647.33        68.04561
647.75        68.15144
648.18        68.44948
648.61        68.72432
649.04          68.662
649.47        68.23243
649.89        67.35374
650.32        66.46801
650.75        66.56202
651.18        67.53595
651.61        68.29572
652.03        68.48045
652.46        68.41997
652.89        68.42192
653.32          67.741
653.74        66.81422
654.17        68.27678
654.60        69.19875
655.03        67.25507
655.46        67.70376
655.88        71.93378
656.31        76.05175
656.74        171.0932
657.16        110.8576
657.59        39.06645
658.02        29.45754
658.45        51.25694
658.87        65.58689
659.30        68.85757
659.73        67.67307
660.15        65.33633
660.58        67.68062
661.01        69.58214
661.44        67.65761
661.86        67.05511
662.29        66.99597
662.72        67.66367
663.14        68.83884
663.57        68.68884
664.00        67.49421
664.42        67.20185
664.85         67.8914
665.27        68.34552
665.70        68.35671
666.13        68.26913
666.55        68.05669
666.98        67.62499
667.41        67.13689
667.83        66.90981
668.26        67.00877
668.69        67.29917
669.11        67.60503
669.54        67.93414
669.96        67.58303
670.39        67.28588
670.82        66.97615
671.24        66.59769
671.67        66.38869
672.09        66.88658
672.52        67.72867
672.94        68.49607
673.37        67.55412
673.80        67.23388
674.22        67.18675
674.65        67.10249
675.07        66.98863
675.50        66.88596
675.92        66.83158
676.35         66.9024
676.77        67.09669
677.20        67.31159
677.62        67.49482
678.05        67.57175
678.47        67.51431
678.90        67.35868
679.32        67.17978
679.75        66.97432
680.17        67.03723
680.60        67.12776
681.02        67.24361
681.45        67.22723
681.87        67.06143
682.30        66.79602
682.72        66.55145
683.15         66.5164
683.57        66.75063
684.00        67.13567
684.42         67.6744
684.85        67.90612
685.27        67.80643
685.70        67.50399
686.12        67.11917
686.54        66.86864
686.97        66.80236
687.39        66.87335
687.82        66.99827
688.24         67.0919
688.66        67.10169
689.09        67.06203
689.51        67.02974
689.94        67.06734
690.36        67.19654
690.78          67.374
691.21        67.53415
691.63        67.61081
692.06        67.57482
692.48        67.40529
692.90        67.20146
693.33        67.15157
693.75        67.29426
694.17        67.56952
694.60        67.87242
695.02        68.05724
695.44        68.05053
695.87        67.96335
696.29        67.90976
696.71        67.76303
697.14         67.6394
697.56        68.16131
697.98        69.05743
698.41        68.79314
698.83        68.07864
699.25        67.50749
699.68        67.38548
700.10        67.22322
700.52        67.06263
700.94        67.21869
701.37        67.60258
701.79        67.96708
702.21        68.21374
702.64        68.42396
703.06        68.54005
703.48        68.45927
703.90        68.19413
704.33          67.771
704.75         67.3185
705.17        67.13354
705.59        67.28799
706.01        67.59654
706.44        67.89867
706.86        68.51485
707.28        68.46415
707.70        68.51058
708.12        68.44082
708.55        68.35354
708.97        68.25706
709.39        68.13037
709.81        68.01503
710.23        67.97313
710.66        68.01891
711.08        68.17314
711.50        68.33462
711.92        68.35089
712.34        68.19337
712.76        67.89165
713.19        67.58669
713.61        67.53757
714.03        67.78094
714.45        68.24059
714.87         68.7084
715.29        68.85316
715.71        68.60906
716.13        68.08585
716.56        67.49942
716.98        67.22794
717.40        67.36025
717.82        67.77886
718.24        68.30372
718.66        68.62872
719.08         68.6601
719.50        68.49474
719.92        68.22903
720.34        68.03352
720.76        67.96721
721.19        67.86089
721.61        67.91522
722.03        67.98394
722.45        68.11252
722.87        68.30557
723.29        68.51958
723.71        68.66734
724.13        68.72215
724.55        68.69389
724.97         68.6263
725.39        68.60162
725.81         68.6387
726.23        68.71391
726.65        68.78083
727.07        68.76407
727.49        68.65408
727.91        68.48861
728.33         68.3204
728.75        68.23496
729.17         68.2553
729.59        68.34698
730.01        68.49012
730.43        68.64304
730.85        68.79063
731.27         68.9717
731.69        69.13464
732.10        69.17522
732.52        69.07889
732.94        68.90594
733.36        68.78947
733.78        68.81717
734.20        69.00589
734.62        69.61585
735.04        70.41434
735.46        70.31911
735.88        69.57253
736.30        69.77116
736.72        70.85971
737.13        71.28631
737.55        70.84203
737.97        70.70253
738.39        70.93799
738.81        70.54953
739.23        69.81857
739.65        70.48463
740.06        72.13162
740.48        72.13635
740.90        70.64317
741.32        69.97412
741.74        70.34658
742.16         70.5556
742.57        70.63963
742.99        71.31147
743.41        72.35503
743.83         72.9882
744.25        73.07098
744.67        72.80258
745.08        72.40694
745.50        72.24667
745.92        72.43802
746.34        72.85647
746.75        73.33492
747.17        73.59044
747.59        73.57074
748.01        73.37268
748.42        73.18417
748.84        73.28146
749.26        73.72939
749.68        74.40804
750.09        75.13339
750.51        75.60703
750.93        75.75487
751.35        75.60726
751.76        75.27924
752.18        75.13941
752.60        75.17122
753.01        74.97005
753.43        74.61663
753.85        74.62125
754.27        75.03284
754.68        75.62733
755.10        76.24768
755.52        76.78347
755.93         77.1489
756.35        77.31465
756.77        77.36472
757.18        77.40313
757.60        77.46721
758.02         77.7136
758.43        77.90128
758.85        77.67759
759.26         76.1633
759.68        76.19289
760.10        77.25571
760.51        77.57011
760.93        76.89777
761.34        76.26266
761.76        75.87473
762.18        75.36877
762.59        75.00327
763.01        75.27311
763.42        76.41654
763.84        77.15503
764.26        77.44098
764.67        77.67055
765.09         77.7926
765.50        77.69093
765.92        77.32568
766.33        76.20858
766.75        74.80617
767.16          74.427
767.58        75.20137
768.00        76.57087
768.41        78.16446
768.83        79.32426
769.24        79.58791
769.66        78.80827
770.07        77.48729
770.49        76.18736
770.90        75.25412
771.32        76.01575
771.73        77.86388
772.15        77.28222
772.56        74.74426
772.97        74.28653
773.39        75.81299
773.80        76.34876
774.22        75.68871
774.63        75.65687
775.05        76.21299
775.46        76.50965
775.88        76.44576
776.29        76.27041
776.70        76.04522
777.12        75.89525
777.53         75.8773
777.95        75.90317
778.36        75.91495
778.77        75.80777
779.19        75.59789
779.60         75.3183
780.02        75.08848
780.43        75.15856
780.84        75.60846
781.26        75.98682
781.67         76.2624
782.09        77.13058
782.50        78.16064
782.91        77.35174
783.33        75.29637
783.74        74.64303
784.15        75.52279
784.57        76.15984
784.98        76.28587
785.39        76.37984
785.81        76.36489
786.22        75.95333
786.63        75.43254
787.04        75.37897
787.46        75.85417
787.87        76.67525
788.28        77.54515
788.70        77.95783
789.11        77.79176
789.52        77.22881
789.93        76.54217
790.35         76.1045
790.76        76.02231
791.17        76.23235
791.58        76.58523
792.00        76.75548
792.41        76.64772
792.82        76.45792
793.23        76.37206
793.65        76.12028
794.06         75.9555
794.47        77.13574
794.88        78.90829
795.29        78.59681
795.71        76.41768
796.12        74.44237
796.53        73.31483
796.94        73.06293
797.35        73.73553
797.76         74.9161
798.18        76.05807
798.59         76.8344
799.00        76.93459
799.41        76.16057
799.82        74.91693
800.23        74.13055
800.64        74.00081
801.06         74.1713
801.47        74.57268
801.88        74.99034
802.29        75.31477
802.70        75.65408
803.11        75.93586
803.52        76.00352
803.93        75.84709
804.34        75.46452
804.75        75.04332
805.17         74.9621
805.58        75.33112
805.99        75.86675
806.40        76.32964
806.81        76.75083
807.22        76.81359
807.63        75.66199
808.04        73.82878
808.45        72.98316
808.86        73.32079
809.27        74.07471
809.68         74.8803
810.09        75.36154
810.50        75.32136
810.91        74.89845
811.32        74.33309
811.73        74.01031
812.14        74.03665
812.55         74.2447
812.96        74.57115
813.37         74.9053
813.78          75.173
814.19        75.46117
814.60        75.59749
815.01         75.3009
815.42        74.56115
815.83        73.42708
816.24        72.31676
816.65        71.96891
817.05        72.59509
817.46        73.95758
817.87        75.49029
818.28        76.16933
818.69        75.71439
819.10        74.37473
819.51        72.79205
819.92        72.06001
820.33        72.46576
820.74        73.68193
821.14          75.094
821.55        75.60622
821.96        74.98985
822.37        73.63259
822.78        72.11871
823.19        71.30367
823.60        71.41177
824.00        72.21723
824.41        73.29401
824.82         74.0087
825.23        74.09286
825.64        73.76024
826.04        73.23776
826.45        72.85087
826.86        72.69588
827.27        72.63354
827.68        72.59383
828.08        72.51158
828.49        72.30769
828.90         72.1007
829.31        71.89638
829.72        71.67599
830.12          71.488
830.53        71.30869
830.94        71.27159
831.35        71.55862
831.75        72.22336
832.16        73.14694
832.57         74.1534
832.97        74.85374
833.38        75.04771
833.79        74.83001
834.20        74.41393
834.60        74.13563
835.01        74.11404
835.42         74.2523
835.82        74.40395
836.23        74.24174
836.64        73.74536
837.04        73.06604
837.45        72.42068
837.86        72.14505
838.26        72.31892
838.67        72.77971
839.08        73.38484
839.48        73.86909
839.89        74.08865
840.29        74.14102
840.70        73.99271
841.11        73.57933
841.51         72.9492
841.92        72.10738
842.33        71.31558
842.73        71.02042
843.14        71.27843
843.54        72.00415
843.95        72.84554
844.35        73.25809
844.76         73.0789
845.17        72.48801
845.57         71.7476
845.98        71.27039
846.38        71.17274
846.79        71.29976
847.19        71.56166
847.60        71.72551
848.00        71.74429
848.41        71.67413
848.81        71.57616
849.22        71.45053
849.62        71.35764
850.03        71.28559
850.43        71.27463
850.84         71.3371
851.24        71.51388
851.65         71.6423
852.05        71.86973
852.46        72.26109
852.86        72.80517
853.27        73.49667
853.67        73.87496
854.07        73.34805
854.48         71.9531
854.88        69.92068
855.29        67.98556
855.69        67.21017
856.10        67.79719
856.50        69.59605
856.90        72.01347
857.31        73.63578
857.71        73.97458
858.12        73.33691
858.52        72.22759
858.92        71.31676
859.33        70.78291
859.73        70.42741
860.13        70.27809
860.54        70.42098
860.94         70.9329
861.34        71.80692
861.75        72.78638
862.15        73.51926
862.55        73.85579
862.96        73.84241
863.36        73.65958
863.76        73.60995
864.17         73.7883
864.57        74.15376
864.97        74.57865
865.38        74.86895
865.78        75.02481
866.18        75.02795
866.58        75.03084
866.99        75.27175
867.39        75.84153
867.79        76.69425
868.19        77.43245
868.60        77.32633
869.00        76.23215
869.40        74.40015
869.80        72.65279
870.21        72.26261
870.61        73.59776
871.01        76.26965
871.41         79.3869
871.81        81.40765
872.22        81.87623
872.62        81.21422
873.02        80.10461
873.42        79.84879
873.82        80.53807
874.22        81.33747
874.63        82.01374
875.03         82.1994
875.43         81.6735
875.83        81.73159
876.23        80.20982
876.63         79.2951
877.03        78.70919
877.44        78.51263
877.84        106.2831
878.24        84.54997
878.64        86.21745
879.04        88.27225
879.44        84.70206
879.84        82.94513
880.24        87.25308
880.64        88.80447
881.04        88.43725
881.44        87.59817
881.84        86.31084
882.24        84.67406
882.65        83.46023
883.05        83.18106
883.45        83.89734
883.85        85.81092
884.25        88.25612
884.65        89.67361
885.05        89.60419
885.45        88.52614
885.85        87.19126
886.25        86.67493
886.65        87.21167
887.05        88.42284
887.45        89.92411
887.85        91.03231
888.25        91.46107
888.65        91.45682
889.04        91.11594
889.44        90.61652
889.84        90.05718
890.24        89.36948
890.64        88.72401
891.04        88.40716
891.44        88.44892
891.84         88.8017
892.24        89.24198
892.64        89.31985
893.04         88.9767
893.44        88.44871
893.83        87.93679
894.23        87.74405
894.63         87.9207
895.03        88.25575
895.43        88.88411
895.83        90.03068
896.23        91.61496
896.63        93.57983
897.02        95.12237
897.42        94.95051
897.82        92.93203
898.22        89.55518
898.62        86.12051
899.01        84.53635
899.41        85.18319
899.81        87.42666
900.21        90.22117
900.61        91.85967
901.00        91.85751
901.40         90.7609
901.80        89.23627
902.20         88.3122
902.59         88.2923
902.99        88.81761
903.39        89.52908
903.79        89.85439
904.18        89.62266
904.58        89.12829
904.98        88.64765
905.38        88.56158
905.77        88.94168
906.17         89.5974
906.57        90.33994
906.96        90.97296
907.36        91.34683
907.76        91.51796
908.15        91.48919
908.55        91.14858
908.95        90.55991
909.34        89.74704
909.74        88.86217
910.14        87.96175
910.53        87.12708
910.93        86.41541
911.33        86.01007
911.72        86.23751
912.12        87.01748
912.52        88.10975
912.91        89.21879
913.31        90.00159
913.70        90.43377
914.10        90.57666
914.49        90.28645
914.89         89.3119
915.29        87.79526
915.68        85.91713
916.08        84.38609
916.47        83.74818
916.87        84.01096
917.26        85.02949
917.66        86.20895
918.05        86.59189
918.45        85.95214
918.84          84.634
919.24        83.29028
919.64        82.87542
920.03        83.63043
920.42        85.21564
920.82        87.16994
921.21        88.81667
921.61        89.68121
922.00        89.97398
922.40        89.69347
922.79        88.87286
923.19        87.69978
923.58        86.04247
923.98        84.06602
924.37        82.87289
924.77        83.05957
925.16        80.98982
925.55        83.02791
925.95         84.2316
926.34        86.34593
926.74        88.89795
927.13        91.25041
927.52        92.07922
927.92        91.22586
928.31          89.117
928.70         86.4601
929.10        84.48707
929.49        83.53676
929.89        83.32303
930.28        83.77216
930.67        84.73674
931.07        85.93622
931.46        87.49313
931.85        88.83471
932.24         89.1069
932.64        88.19434
933.03        86.14814
933.42        83.52213
933.82        81.64301
934.21        80.91236
934.60        81.07893
934.99        81.50089
935.39        81.56437
935.78        81.18922
936.17        79.95663
936.56        77.70891
936.96        79.22581
937.35        78.18017
937.74        79.40339
938.13        80.51731
938.53        81.54747
938.92        82.55492
939.31        83.71415
939.70        84.77329
940.09        84.88116
940.49        83.87597
940.88        82.15615
941.27        80.46475
941.66        79.67245
942.05        79.87199
942.44        80.78325
942.84        82.08155
943.23        83.24586
943.62        83.96043
944.01        84.35215
944.40        84.40648
944.79        84.11114
945.18        83.47787
945.57         82.4122
945.97        81.06799
946.36        79.93867
946.75         79.3703
947.14        79.31104
947.53        79.51415
947.92        79.64294
948.31        79.62915
948.70         79.5687
949.09        79.50691
949.48        79.53757
949.87        79.68845
950.26        79.86521
950.65        80.06139
951.04        80.30579
951.43        80.58508
951.82        80.89017
952.21        81.07535
952.60        80.92903
952.99        80.40096
953.38        79.51693
953.77        78.53572
954.16        77.81946
954.55        77.45444
954.94        77.45568
955.33         77.4337
955.72        76.71187
956.11        75.20035
956.50        73.08159
956.89        71.22741
957.28        71.20661
957.66        73.43669
958.05        77.15517
958.44         81.0861
958.83        83.34729
959.22        83.46712
959.61         81.9166
960.00         79.5105
960.39        77.61734
960.78        76.70148
961.16        76.44448
961.55        76.36391
961.94        75.64554
962.33        74.16543
962.72        72.38249
963.11        70.89043
963.49        70.38757
963.88        70.97453
964.27        72.45719
964.66        74.34638
965.04        75.59331
965.43        75.65548
965.82        74.85192
966.21        73.80523
966.60        73.35799
966.98        73.70353
967.37        74.57712
967.76        75.56886
968.15         75.9027
968.53        75.37075
968.92        74.22543
969.31        73.05583
969.69        72.61126
970.08        73.02097
970.47        74.09161
970.86        75.25043
971.24        75.48493
971.63        74.51109
972.02        72.58826
972.40        70.51547
972.79        69.74287
973.17        70.80804
973.56        73.23003
973.95        76.14152
974.33        77.83103
974.72        77.64978
975.11        76.16541
975.49        74.23629
975.88        73.03301
976.26        72.74834
976.65        73.03604
977.04        73.38928
977.42        72.72247
977.81         70.7894
978.19        68.20139
978.58        66.14452
978.96         65.5984
979.35        66.68613
979.74        69.19302
980.12        72.74144
980.51        75.43068
980.89        76.64931
981.28        76.63761
981.66        75.99497
982.05        75.56157
982.43        75.51787
982.82        75.56751
983.20        75.76456
983.59        76.24283
983.97        77.06769
984.35        78.31382
984.74        79.46436
985.12        79.65552
985.51         78.3539
985.89        75.69498
986.28        72.57037
986.66        70.27874
987.04        69.39976
987.43        69.62511
987.81        70.08813
988.20        69.62673
988.58        67.83113
988.96        64.39275
989.35        59.80317
989.73        57.48643
990.12        59.97258
990.50        65.87399
990.88        71.26801
991.27        73.09036
991.65         71.8054
992.03        68.39642
992.42        64.49918
992.80        62.86753
993.18        64.34282
993.56        67.20271
993.95        70.34288
994.33        73.13846
994.71        75.20462
995.10        77.13478
995.48        78.24073
995.86        77.15191
996.24        73.61243
996.63        67.46922
997.01        60.44749
997.39        57.65522
997.77        61.30802
998.15        70.19344
998.54        79.89738
998.92        84.30441
999.30        81.71029
999.68        73.69804
1000.06        62.71844
1000.45        54.80409
1000.83        52.51413
1001.21        53.77581
1001.59        57.01624
1001.97        60.68667
1002.35        64.33205
1002.73         69.1307
1003.12        73.67126
1003.50        73.35979
1003.88        66.74535
1004.26        56.37595
1004.64        46.82396
1005.02        41.73995
1005.40        41.18551
1005.78        44.70195
1006.16        53.45228
1006.54        64.52956
1006.92        71.42692
1007.30        73.77843
1007.69        73.49097
1008.07        72.55232
1008.45        71.04619
1008.83        67.19038
1009.21        56.09232
1009.59        22.67383
1009.97       -59.71444
1010.35       -157.4736
1010.73       -123.9994
1011.11        -55.2513
1011.49       -10.36751
1011.86        20.37437
1012.24        37.72932
1012.62        45.99059
1013.00        49.14079
1013.38        48.69065
1013.76        46.84825
1014.14        50.17722
1014.52        63.68061
1014.90        88.59267
1015.28        116.7816
1015.66        126.0962
1016.04        104.8791
1016.41        60.35134
1016.79        17.92847
1017.17        1.918243
1017.55        6.814572
1017.93        18.19267
1018.31        29.38248
1018.69        37.54166
1019.06        43.38984
1019.44        48.64823
1019.82        53.88854
1020.20        56.74582
1020.58        51.80707
1020.95        27.56093
1021.33       -61.29803
1021.71        1448.029
1022.09        241.0078
1022.46          179.16
1022.84        163.5867
1023.22        168.9668
1023.60         204.646
1023.97        598.7958
1024.35       -74.01754
1024.73        3.050418
