SpectraSmart Spectrum 2.9.0.0
--------- Device Information -----------
Spectrum Name :  反射率_0
Saving Time :  2024/04/26 01:34:50
Spectro-Module Model Name : SE2030-DUVN
Spectro-Module Serial Number : OS361AC55029948
Wavelength Start : 200
Wavelength End : 1025
Wavelength Unit : Wavelength(nm)
Spectrum Unit : Reflectance(%)
-----------Spectrum Setting ------------
Integration Time : 20ms
Average : 10
Boxcar : 0
Background removal :  enabled
linearity correction :  enabled
SC :  disabled
Intensity correction :  disabled
DWT denoise :  enabled
savitzky-golay :  disabled
FFT :  disabled
Running average :  disabled
Kalman :  disabled
High pass :  disabled
---------------BEGIN--------------------
Wavelength(nm)             Reflectance(%)
200.29               0
200.75        100.6461
201.21        96.94604
201.67        91.65227
202.13        88.14055
202.58        87.00164
203.04        87.71484
203.50        88.85168
203.96        88.27081
204.42        85.83663
204.88        82.58733
205.34        80.07484
205.80        79.85242
206.26        82.58081
206.72         90.1185
207.18        105.1653
207.64         116.953
208.10        105.4354
208.55        85.45213
209.01        73.53295
209.47        70.12816
209.93        71.75304
210.39        77.01355
210.85         83.1587
211.31        84.28663
211.77        78.70936
212.23        68.58025
212.69        59.21245
213.14         58.8302
213.60        68.54005
214.06        85.69909
214.52        103.8678
214.98        113.2458
215.44        111.7182
215.90        102.9098
216.36        91.67681
216.81        84.77085
217.27        84.02003
217.73        86.90188
218.19        90.64273
218.65         91.8699
219.11        89.53202
219.57        83.71686
220.02        75.86185
220.48        72.44583
220.94         76.4967
221.40        85.65002
221.86        92.86453
222.32        91.31625
222.77        82.47261
223.23        71.13786
223.69        61.97938
224.15        59.78241
224.61        63.91901
225.06        71.86031
225.52        80.27153
225.98         84.8361
226.44        84.69947
226.90        81.63258
227.36        77.71103
227.81        75.71809
228.27        76.58326
228.73        78.99948
229.19        81.97484
229.65        84.10905
230.10        84.95893
230.56        85.30205
231.02        85.37644
231.48        85.43253
231.93        85.53643
232.39        85.62377
232.85        85.81799
233.31        86.46696
233.77        87.58762
234.22        89.15825
234.68        90.71371
235.14        91.33663
235.60        90.80155
236.05         89.4358
236.51        87.88223
236.97         87.0341
237.43        87.14133
237.88         88.1543
238.34        89.81702
238.80        91.80623
239.26        93.70599
239.71        95.83546
240.17        97.41935
240.63        97.93979
241.08        97.52542
241.54        96.18035
242.00        95.12507
242.46        96.28947
242.91        101.6059
243.37         115.259
243.83        154.7567
244.28        263.9116
244.74        350.2821
245.20        255.7716
245.66        192.2375
246.11        176.6251
246.57        187.6662
247.03        237.6349
247.48        393.2867
247.94        333.4485
248.40         171.413
248.85        119.4341
249.31        103.0287
249.77        99.83411
250.22        103.5217
250.68        113.5002
251.14        129.2909
251.59        140.6596
252.05        137.1659
252.51        123.3289
252.96        108.9822
253.42        103.9301
253.88        107.6783
254.33        116.3426
254.79          127.24
255.25        135.9457
255.70        140.9093
256.16        144.2973
256.62        146.2301
257.07         146.616
257.53        146.4229
257.99        145.0488
258.44        142.8523
258.90        141.8062
259.35        140.7553
259.81        139.8089
260.27          137.81
260.72         133.574
261.18        128.2064
261.63        121.9277
262.09        116.0713
262.55        111.0934
263.00        106.9557
263.46        103.7518
263.91        100.9492
264.37        98.67608
264.83        96.48595
265.28        94.21135
265.74        91.83273
266.19        88.91973
266.65        85.94918
267.11        83.11198
267.56         80.5488
268.02        78.48758
268.47        76.70219
268.93        75.12009
269.38        73.69959
269.84        72.60502
270.30        71.84474
270.75        71.38012
271.21        70.96439
271.66        70.19604
272.12        69.01237
272.57         67.5017
273.03        65.99254
273.48        64.86298
273.94        64.24274
274.39         63.9141
274.85        63.68266
275.31         63.1847
275.76        62.31213
276.22        61.25375
276.67        60.07866
277.13        59.06474
277.58         58.1939
278.04        57.46873
278.49         56.7586
278.95        56.04512
279.40        55.23376
279.86        54.43472
280.31        53.60973
280.77        52.88396
281.22        52.21098
281.68        51.63272
282.13        51.07988
282.59        50.56779
283.04        50.05157
283.50        49.59023
283.95        49.15397
284.41        48.76862
284.86        48.41156
285.32        48.10682
285.77        47.85327
286.22         47.7474
286.68        47.77451
287.13        47.84887
287.59        47.88925
288.04        47.72243
288.50        47.36499
288.95        46.83613
289.41        46.25487
289.86        45.64574
290.32        45.12377
290.77        44.66377
291.22        44.35937
291.68        44.29915
292.13        44.49042
292.59        44.92316
293.04        45.53637
293.50        46.24152
293.95        46.98116
294.40        47.74899
294.86        48.53949
295.31        49.34925
295.77        50.19262
296.22        51.06556
296.68        51.95713
297.13        52.82475
297.58        53.67395
298.04         54.5294
298.49        55.45785
298.95        56.62297
299.40        58.02654
299.85        59.61685
300.31        61.23935
300.76        62.64297
301.21        63.74858
301.67        64.66725
302.12        65.46079
302.58        66.35473
303.03        67.36005
303.48        68.45007
303.94        69.64486
304.39        70.89825
304.84        72.21101
305.30        73.59953
305.75        74.95255
306.20        76.13772
306.66        77.15872
307.11        77.99453
307.57        78.80352
308.02        79.68433
308.47        80.72313
308.93        81.89433
309.38        83.09586
309.83        84.22795
310.29        85.25049
310.74        86.15262
311.19        87.00452
311.65        87.91123
312.10        88.87738
312.55        89.88409
313.00        90.79676
313.46         91.4095
313.91         91.6721
314.36         91.6677
314.82        91.63339
315.27        91.87287
315.72        92.49203
316.18        93.40533
316.63        94.41544
317.08        95.15004
317.53        95.50214
317.99          95.557
318.44        95.55338
318.89        95.88528
319.35        96.61089
319.80        97.63364
320.25          98.614
320.70        98.99676
321.16        98.66999
321.61        97.82999
322.06        96.87393
322.51        96.41839
322.97        96.59186
323.42        97.25163
323.87        98.09351
324.32        98.59238
324.78        98.58041
325.23        98.26595
325.68        97.84133
326.13        97.64758
326.59        97.76449
327.04        98.09926
327.49        98.55037
327.94        98.99482
328.39        99.37421
328.85        99.72065
329.30         100.062
329.75        100.2583
330.20        100.3219
330.66        100.2772
331.11        100.3279
331.56        100.7282
332.01        101.5502
332.46        102.7008
332.92        104.0043
333.37        105.3361
333.82        106.4887
334.27        107.4759
334.72        108.1855
335.17        108.4649
335.63        108.3256
336.08        107.8872
336.53        107.3616
336.98        107.1418
337.43         107.348
337.88        107.8821
338.34        108.6719
338.79        109.6733
339.24        110.7697
339.69         111.996
340.14        113.0965
340.59        113.6318
341.05        113.5324
341.50        112.8986
341.95        112.1629
342.40        112.0044
342.85        112.5675
343.30        113.6783
343.75        114.9452
344.20        115.6686
344.66        115.6704
345.11        115.1591
345.56        114.4919
346.01        114.2043
346.46        114.4287
346.91        114.9753
347.36        115.6129
347.81        115.9982
348.26        116.0406
348.72        115.8817
349.17        115.6357
349.62        115.5257
350.07        115.6112
350.52        115.7976
350.97        116.0046
351.42        116.1245
351.87        116.1224
352.32        116.0458
352.77        115.9017
353.22        115.6934
353.67        115.4347
354.13        115.1309
354.58        114.7979
355.03        114.5302
355.48        114.3338
355.93        114.1785
356.38        113.9888
356.83        113.6421
357.28        113.1102
357.73        112.4355
358.18        111.6779
358.63        110.9312
359.08        110.2364
359.53        109.5828
359.98        108.9562
360.43        108.3308
360.88        107.6917
361.33        107.0356
361.78        106.3905
362.23        105.7998
362.68        105.2683
363.13        104.7903
363.58        104.2757
364.03        103.5814
364.48        102.6933
364.93        101.6608
365.38        100.6377
365.83        99.87524
366.28        99.41756
366.73        99.16673
367.18        98.97155
367.63        98.58397
368.08        97.94308
368.53        97.15881
368.98        96.28519
369.43        95.39278
369.88        94.52613
370.33        93.65339
370.78        92.88463
371.23        92.41251
371.68        92.25824
372.13        92.36649
372.58        92.53545
373.03        92.41242
373.48        91.91476
373.93        91.16038
374.38        90.32402
374.83        89.67482
375.28        89.28726
375.72        89.06023
376.17        88.95194
376.62         88.8746
377.07        88.76949
377.52        88.64082
377.97        88.44382
378.42        88.10266
378.87        87.61747
379.32        87.03544
379.77        86.37327
380.22        85.65411
380.67        84.89615
381.11         84.0911
381.56        83.35439
382.01         82.8773
382.46        82.70163
382.91        82.80353
383.36        82.95183
383.81        82.77084
384.26        82.19352
384.71        81.31752
385.15         80.4409
385.60        80.09019
386.05        80.29392
386.50        80.87199
386.95        81.44415
387.40         81.3752
387.85        80.57808
388.29        79.31918
388.74        78.07981
389.19        77.20596
389.64        76.76573
390.09          76.582
390.54        76.62666
390.98         76.8541
391.43        77.18562
391.88        77.61192
392.33        77.90938
392.78        77.68682
393.23        76.94941
393.67        75.96802
394.12        75.11386
394.57        74.36529
395.02         73.9547
395.47        74.47248
395.91        75.70407
396.36        76.46544
396.81        76.55688
397.26         76.5055
397.71        76.36504
398.15        75.93488
398.60        75.36332
399.05        74.78559
399.50        74.26725
399.95         73.5373
400.39        73.03203
400.84         72.8625
401.29        73.05611
401.74        73.21338
402.18        73.25515
402.63        73.19294
403.08         73.1416
403.53        73.31982
403.97        73.72469
404.42        74.18265
404.87          74.507
405.32          74.401
405.76        73.81619
406.21        73.06575
406.66        72.31634
407.11         71.6034
407.55        71.16801
408.00        71.30508
408.45        71.92188
408.90        72.75629
409.34        73.36021
409.79        72.85556
410.24        71.58131
410.68        70.97112
411.13        71.15425
411.58        71.29971
412.03        71.37474
412.47        71.71889
412.92        72.24432
413.37        72.87691
413.81        73.40823
414.26        73.56279
414.71        73.27687
415.15        72.62966
415.60        71.85894
416.05        71.36866
416.49        71.27776
416.94        71.50539
417.39        71.82209
417.83        71.81156
418.28        71.40057
418.73        70.74638
419.17        70.14262
419.62        70.04963
420.07        70.50974
420.51        71.34588
420.96        72.25908
421.41         72.6937
421.85        72.48466
422.30        72.08782
422.74        71.61273
423.19        70.94624
423.64        70.31474
424.08        70.55061
424.53        71.49884
424.98        72.06753
425.42        72.10854
425.87        72.42152
426.31        72.95736
426.76          72.814
427.21        72.27047
427.65        72.62339
428.10        73.71914
428.54        74.54093
428.99        75.01702
429.44         75.0034
429.88         74.6953
430.33        75.71297
430.77        77.19296
431.22         76.0405
431.66        72.90103
432.11          71.119
432.56        71.15895
433.00        72.14054
433.45        73.90155
433.89        76.25519
434.34        77.44209
434.78        78.95384
435.23        74.42361
435.67         71.7382
436.12        74.62027
436.57        75.78029
437.01        76.27792
437.46        76.59829
437.90        76.97832
438.35        76.08108
438.79        76.94032
439.24         76.7757
439.68         76.5065
440.13        76.08782
440.57        75.88486
441.02        76.66336
441.46        78.03883
441.91        79.13229
442.35        79.50782
442.80         78.4322
443.24        76.57458
443.69        77.27357
444.13        80.02015
444.58        80.27193
445.02        78.22449
445.47         77.8238
445.91        79.02332
446.36        79.35255
446.80        78.75534
447.24         78.5015
447.69        78.66924
448.13        78.82399
448.58        79.00534
449.02         79.3988
449.47        79.89802
449.91        80.21122
450.36        80.29158
450.80        80.24711
451.25        80.11298
451.69        79.86948
452.13        79.57375
452.58        79.26198
453.02        79.00732
453.47        78.95052
453.91        79.08916
454.36        79.40207
454.80        79.78256
455.24         79.8721
455.69        79.61589
456.13        79.37797
456.58        79.33099
457.02         78.5826
457.46        78.46164
457.91        78.85857
458.35        79.80295
458.79        80.19665
459.24        80.02035
459.68        79.62547
460.13        79.04216
460.57        78.81392
461.01        78.98592
461.46        77.57497
461.90        77.18121
462.34        78.37757
462.79        77.51539
463.23        77.85373
463.68        78.27606
464.12        78.77457
464.56        79.23116
465.01        79.26611
465.45        78.89891
465.89        78.87313
466.34        78.94902
466.78        77.86133
467.22        76.30975
467.67        75.00691
468.11         76.8271
468.55        77.61051
468.99          77.782
469.44        77.43934
469.88        76.80177
470.32        76.72401
470.77        77.13403
471.21        77.11551
471.65        76.63016
472.10        76.38246
472.54        76.44128
472.98        76.52174
473.42        76.59421
473.87        76.96742
474.31        77.40981
474.75        77.09438
475.20        76.23907
475.64        76.02667
476.08        76.49364
476.52        76.48273
476.97        75.93726
477.41        75.99745
477.85          76.769
478.29        75.59179
478.74        77.01639
479.18        76.86815
479.62        75.77067
480.06        76.34679
480.50        76.72548
480.95        77.30789
481.39        77.36938
481.83        76.20659
482.27        76.45984
482.72        76.30032
483.16        74.81113
483.60        75.06377
484.04        76.59895
484.48        76.93437
484.93        76.53757
485.37        78.39781
485.81        79.37402
486.25        77.47337
486.69        106.3174
487.14        86.26904
487.58        53.19319
488.02        64.88751
488.46        73.76594
488.90        73.22685
489.34        75.03862
489.79        74.05859
490.23        76.40407
490.67        77.25561
491.11         76.0896
491.55        75.95751
491.99        76.42583
492.43        76.20042
492.88        75.39402
493.32        75.41538
493.76        75.69267
494.20        75.97381
494.64        75.96608
495.08        76.05045
495.52        76.24895
495.96        75.94554
496.41        75.26154
496.85        75.75896
497.29        77.04614
497.73        75.95763
498.17        73.55025
498.61        73.65752
499.05         76.3279
499.49        76.98048
499.93        77.17376
500.37        76.86272
500.82        75.99094
501.26        75.85446
501.70        76.25021
502.14        76.57751
502.58        76.61639
503.02        76.51073
503.46        76.23199
503.90        75.73135
504.34        75.19057
504.78        74.84449
505.22        74.80065
505.66        75.19167
506.10        75.82175
506.54        76.10986
506.98         75.9403
507.42        75.70557
507.86        75.36879
508.30        75.14039
508.74        75.31608
509.18        75.58398
509.62        75.89753
510.06        76.04208
510.50        75.96964
510.94        75.75404
511.38        75.50169
511.82        75.37872
512.26        75.42912
512.70        75.59361
513.14        75.80553
513.58        75.96313
514.02        76.02484
514.46        76.01419
514.90        75.95935
515.34        75.89671
515.78        75.83684
516.22           75.79
516.66        75.80186
517.10        75.65248
517.54        75.35828
517.98        75.43819
518.42        75.24915
518.86        75.37274
519.30        75.59337
519.74        75.99372
520.18        76.43554
520.62        76.54797
521.06        76.35894
521.50        76.25517
521.93        76.27694
522.37        76.20139
522.81        76.05939
523.25        76.01434
523.69        76.07738
524.13        76.17926
524.57        76.31116
525.01        76.48994
525.45        76.68192
525.89        76.82926
526.32        76.90325
526.76         76.9054
527.20        76.84457
527.64        76.76358
528.08        76.69694
528.52        76.57717
528.96        76.37493
529.40        76.26627
529.83        76.29362
530.27        75.62286
530.71        75.80511
531.15        75.73575
531.59        75.87215
532.03        76.13026
532.46        76.46506
532.90        76.76762
533.34        76.97846
533.78        77.11948
534.22        77.17988
534.66        77.15715
535.09        77.04896
535.53        76.88524
535.97        76.68279
536.41        76.49512
536.85        76.34605
537.28        76.23378
537.72        76.15782
538.16        76.12527
538.60        76.13272
539.04        76.12041
539.47         76.0722
539.91        76.16666
540.35        76.31617
540.79        76.20924
541.22        75.90688
541.66        75.81572
542.10        75.94936
542.54        76.07542
542.97        76.16871
543.41        76.31017
543.85        76.47384
544.29        76.66736
544.72        76.77885
545.16        76.66795
545.60        76.31749
546.04        75.76821
546.47        75.25199
546.91        75.15975
547.35        75.53622
547.79        76.27734
548.22        77.04098
548.66        77.26105
549.10        76.85075
549.53        76.07084
549.97        75.26714
550.41        74.82829
550.84         74.8673
551.28        75.30458
551.72        75.94106
552.15        76.31203
552.59        76.29346
553.03        76.40276
553.46        76.06683
553.90        76.01046
554.34        76.07848
554.77        76.11914
555.21        76.11084
555.65        76.25159
556.08         76.5639
556.52        76.17004
556.96        76.74859
557.39        76.42918
557.83        75.88784
558.27         75.6923
558.70        75.89778
559.14        76.07506
559.57        76.18064
560.01        76.48162
560.45        76.87835
560.88        77.05901
561.32        76.98862
561.75        76.78564
562.19        76.53732
562.63        76.00121
563.06        75.40624
563.50        75.52158
563.93        76.19387
564.37        76.58641
564.80        76.55781
565.24        76.46634
565.68        76.36227
566.11        76.25911
566.55        76.35063
566.98        76.30244
567.42        76.17247
567.85        76.46584
568.29        77.11223
568.72        76.98286
569.16        76.29165
569.60        77.18987
570.03        77.46651
570.47        77.70499
570.90        77.20487
571.34        76.00712
571.77        76.61629
572.21        77.22544
572.64         76.4959
573.08        75.55102
573.51        71.95787
573.95        74.78397
574.38        79.68253
574.82        77.63872
575.25        76.88945
575.69        74.16292
576.12        73.23587
576.56        72.21857
576.99        73.92191
577.42        77.56201
577.86        77.46423
578.29        76.99944
578.73        81.12214
579.16        74.61261
579.60         68.1852
580.03        71.11812
580.47        75.92055
580.90        77.34102
581.33        75.92798
581.77        75.23517
582.20        83.43947
582.64        83.07047
583.07        70.89002
583.51         69.2683
583.94        67.68589
584.37         70.8976
584.81        74.30558
585.24        78.44275
585.68        80.45966
586.11        78.80263
586.54        73.76391
586.98        70.95953
587.41        71.55397
587.85        75.72061
588.28        78.19972
588.71        74.84502
589.15        72.22929
589.58        73.60766
590.01        74.11058
590.45        75.12498
590.88        75.96806
591.31         75.1926
591.75        74.68845
592.18        74.66435
592.61        76.26696
593.05        76.43771
593.48        80.15833
593.91        81.17013
594.35        74.60157
594.78        73.03744
595.21        72.39073
595.65        75.75969
596.08        79.12582
596.51        75.59547
596.94        73.50042
597.38        74.06917
597.81        77.13873
598.24        78.98093
598.68        77.40323
599.11        76.16727
599.54        79.21947
599.97        80.86064
600.41        75.08508
600.84        75.18594
601.27        76.75277
601.70        75.80351
602.14        75.70175
602.57        74.69718
603.00        75.43894
603.43         77.1134
603.87        78.70737
604.30        78.18525
604.73        76.02142
605.16        74.25909
605.60        75.28113
606.03        76.37612
606.46        77.40085
606.89        77.32605
607.32        75.05468
607.76        74.93179
608.19        77.16148
608.62        76.78217
609.05        74.85419
609.48        75.57931
609.92         75.8282
610.35        75.01094
610.78        77.25945
611.21        78.02772
611.64        74.50543
612.07        75.37282
612.50        75.90975
612.94        76.39352
613.37        75.60677
613.80        76.16344
614.23        76.65951
614.66        76.20528
615.09        76.53587
615.52        76.51267
615.96        76.52799
616.39        76.65938
616.82        75.64006
617.25        75.08115
617.68        75.85399
618.11        76.59111
618.54         77.2556
618.97        76.67101
619.40        75.33229
619.84        75.09431
620.27         76.3816
620.70        77.24954
621.13        77.55428
621.56        76.92446
621.99        75.69388
622.42         76.4735
622.85        78.79313
623.28        77.85353
623.71         77.3092
624.14        77.17362
624.57        77.15678
625.00        76.35098
625.43        76.98545
625.86        76.27523
626.29        76.39381
626.72        77.06162
627.15        76.72388
627.58        76.92116
628.01        77.00397
628.44        77.28423
628.87        77.45235
629.30        77.64711
629.73        77.59655
630.16        78.27544
630.59        77.38545
631.02        76.94375
631.45        76.44398
631.88        76.10016
632.31        75.95173
632.74        76.16997
633.17        76.34017
633.60        76.56789
634.03        76.69151
634.46        76.78236
634.89        76.83168
635.32        76.80021
635.75         76.7185
636.18        76.64619
636.61        76.61605
637.04        76.62862
637.47        76.68819
637.89        76.82102
638.32        76.95242
638.75        76.99982
639.18        76.94206
639.61        76.80433
640.04        76.63682
640.47        76.52475
640.90        76.49438
641.33         76.5132
641.76        76.53218
642.18        76.58243
642.61        76.64865
643.04        76.55692
643.47        76.27898
643.90        76.75889
644.33        76.41991
644.76        76.53078
645.18        76.59888
645.61         76.6114
646.04        76.54268
646.47        76.39342
646.90        76.25661
647.33         76.2244
647.75        76.33905
648.18        76.62124
648.61        76.87289
649.04         76.7962
649.47        76.36967
649.89        75.53184
650.32        74.71291
650.75        74.81635
651.18        75.75731
651.61        76.57111
652.03        76.87889
652.46        76.85065
652.89        76.82925
653.32        76.13288
653.74        75.23553
654.17        76.73907
654.60        77.38103
655.03        74.86922
655.46        76.06544
655.88        79.84501
656.31        85.48685
656.74        196.3501
657.16        128.1171
657.59        44.85595
658.02        33.39559
658.45        57.48428
658.87        73.81778
659.30        76.69647
659.73        76.21037
660.15        73.50989
660.58        76.24245
661.01        78.13786
661.44        75.61326
661.86        74.73293
662.29        74.64133
662.72        75.48316
663.14        76.96071
663.57        76.91785
664.00        75.63052
664.42        75.37576
664.85        76.22597
665.27        76.69482
665.70        76.56556
666.13        76.34206
666.55        76.01518
666.98        75.43398
667.41        74.80797
667.83        74.54559
668.26        74.73105
668.69        75.21053
669.11        75.72723
669.54        76.23199
669.96        75.92369
670.39        75.50837
670.82        75.00399
671.24        74.79904
671.67        75.02095
672.09        75.53815
672.52         76.0513
672.94        76.64395
673.37        75.97137
673.80        75.72008
674.22        75.59377
674.65        75.45116
675.07        75.30029
675.50        75.09258
675.92        74.91099
676.35        74.95189
676.77        75.22962
677.20        75.60317
677.62        75.97613
678.05        76.19473
678.47        76.20356
678.90        76.06043
679.32        75.86768
679.75         75.6495
680.17        75.74567
680.60        75.87064
681.02        76.00881
681.45        75.96684
681.87         75.7236
682.30        75.34764
682.72        74.98832
683.15        74.87791
683.57        75.08714
684.00        75.48866
684.42        76.04489
684.85         76.3343
685.27        76.31144
685.70        76.08937
686.12        75.77791
686.54        75.59595
686.97        75.58669
687.39        75.69781
687.82         75.8302
688.24        75.88152
688.66        75.79888
689.09        75.63324
689.51        75.47028
689.94         75.4051
690.36        75.46899
690.78        75.63982
691.21        75.85906
691.63        75.97617
692.06        75.95175
692.48        76.08186
692.90        75.96394
693.33        76.01831
693.75        76.12596
694.17         76.2819
694.60        76.44372
695.02        76.52876
695.44        76.48325
695.87        76.52847
696.29        76.69168
696.71        76.37096
697.14        75.80769
697.56        76.39864
697.98        77.80385
698.41        77.67574
698.83        76.79283
699.25        76.17684
699.68        76.17017
700.10        76.05104
700.52        75.85668
700.94          75.991
701.37        76.37101
701.79        76.74368
702.21        77.01054
702.64        77.25275
703.06        77.39758
703.48        77.32053
703.90        77.03359
704.33        76.57148
704.75        76.08303
705.17        75.90859
705.59        76.12671
706.01         76.5157
706.44        76.89676
706.86        77.63772
707.28        77.62518
707.70        77.72907
708.12        77.67625
708.55        77.53109
708.97        77.30215
709.39        76.97869
709.81        76.67893
710.23        76.59585
710.66        76.76936
711.08        77.18283
711.50        77.62333
711.92        77.75957
712.34        77.52353
712.76         77.0018
713.19        76.43189
713.61        76.23996
714.03        76.50775
714.45        77.10041
714.87        77.75324
715.29        78.04646
715.71        77.88042
716.13        77.39641
716.56        76.80646
716.98        76.48293
717.40         76.5216
717.82        76.80158
718.24        77.18258
718.66        77.43194
719.08        77.47401
719.50        77.38933
719.92        77.22887
720.34        77.08889
720.76        77.01043
721.19        76.83248
721.61        76.81595
722.03        76.85014
722.45        77.00362
722.87        77.25862
723.29        77.55272
723.71        77.76884
724.13        77.86882
724.55        77.87521
724.97        77.83096
725.39        77.81614
725.81        77.85212
726.23        77.91214
726.65        77.96864
727.07        77.97675
727.49        77.93391
727.91        77.87589
728.33        77.82321
728.75        77.80519
729.17        77.83067
729.59        77.87483
730.01        77.96831
730.43        78.15102
730.85        78.42116
731.27        78.79337
731.69        79.14143
732.10        79.23801
732.52        79.04295
732.94        78.66648
733.36         78.3274
733.78        78.23142
734.20        78.43279
734.62        79.19984
735.04        80.22485
735.46        80.20103
735.88        79.36893
736.30        79.56706
736.72        80.76079
737.13        81.16428
737.55        80.53927
737.97        80.41747
738.39          80.819
738.81        80.04584
739.23        78.62851
739.65        79.63129
740.06         82.4314
740.48        82.80488
740.90        80.81716
741.32        79.78811
741.74        80.07688
742.16        80.21214
742.57        80.28304
742.99        81.12563
743.41        82.42142
743.83        83.16137
744.25        83.15901
744.67        82.67589
745.08        82.03638
745.50        81.77057
745.92        82.03613
746.34        82.63939
746.75        83.33796
747.17        83.73551
747.59        83.75632
748.01        83.54295
748.42        83.31062
748.84        83.43555
749.26        84.01776
749.68        84.71365
750.09        85.38418
750.51        86.26328
750.93        87.05774
751.35        86.76033
751.76         85.6554
752.18        85.26189
752.60        85.61589
753.01        85.64292
753.43        85.35355
753.85        85.47649
754.27        86.04055
754.68        86.76359
755.10        87.45523
755.52        87.97115
755.93        88.21254
756.35        88.16015
756.77        88.02992
757.18         87.9827
757.60        88.06403
758.02        88.74443
758.43        89.60966
758.85        88.85607
759.26         87.0806
759.68        86.95155
760.10        88.36769
760.51        89.09846
760.93        88.89617
761.34        87.03874
761.76        87.12279
762.18         86.2588
762.59        85.69596
763.01        85.84677
763.42        86.73838
763.84        87.47012
764.26        87.90254
764.67        88.41327
765.09        88.81139
765.50        88.80406
765.92        88.31602
766.33        86.84303
766.75        85.01952
767.16        84.47912
767.58        85.41231
768.00        87.17129
768.41        89.28011
768.83        90.76631
769.24        91.05957
769.66        90.24423
770.07        88.84752
770.49        87.16196
770.90        85.68883
771.32        86.43446
771.73        88.71844
772.15        88.14896
772.56        85.24593
772.97        84.85293
773.39        86.81579
773.80         87.5192
774.22        86.69126
774.63         86.4915
775.05        86.92503
775.46        87.11866
775.88         86.9956
776.29        86.80421
776.70        86.61652
777.12        86.58178
777.53        86.74776
777.95        87.00606
778.36        87.23371
778.77        87.21149
779.19         86.9417
779.60        86.49113
780.02        86.05657
780.43        86.04415
780.84        86.58135
781.26        87.04477
781.67        87.38777
782.09        88.58076
782.50        90.01714
782.91         88.9734
783.33        86.22927
783.74        85.33304
784.15        86.47144
784.57        87.36156
784.98        87.61528
785.39        87.72402
785.81        87.59873
786.22        87.02289
786.63        86.38752
787.04        86.35323
787.46        87.00063
787.87        88.14433
788.28        89.36286
788.70         89.9082
789.11        89.60908
789.52        88.74596
789.93          87.715
790.35        87.03732
790.76        86.88278
791.17        87.20627
791.58        87.77986
792.00        88.07896
792.41        87.96906
792.82        87.71967
793.23        87.54658
793.65         87.2968
794.06        87.25991
794.47        88.50672
794.88        90.15633
795.29        90.36357
795.71        87.45285
796.12        85.42602
796.53        84.36629
796.94        83.83781
797.35        84.02101
797.76         85.3979
798.18        87.32178
798.59        88.44306
799.00        88.34294
799.41        87.34166
799.82        85.97026
800.23        85.13618
800.64        85.07606
801.06        85.41963
801.47        86.01459
801.88        86.49808
802.29        86.71808
802.70        86.82319
803.11        86.82132
803.52        86.69231
803.93        86.47511
804.34        86.13217
804.75        85.79406
805.17        85.78104
805.58        86.19112
805.99        86.64744
806.40        86.97047
806.81        87.57291
807.22         88.0207
807.63        86.78521
808.04        84.49527
808.45         83.5216
808.86        84.09641
809.27        85.06657
809.68        85.99772
810.09        86.56938
810.50         86.5554
810.91        86.08576
811.32        85.42109
811.73         84.9811
812.14        84.88899
812.55        84.96684
812.96        85.19564
813.37        85.53543
813.78        85.92545
814.19        86.44448
814.60        86.82169
815.01        86.62396
815.42        85.81236
815.83        84.46352
816.24        83.12174
816.65        82.74841
817.05        83.61245
817.46        85.40963
817.87         87.3989
818.28          88.255
818.69         87.6228
819.10        85.83674
819.51        83.74696
819.92          82.797
820.33        83.36349
820.74        85.00765
821.14        86.92133
821.55        87.67952
821.96        86.96854
822.37        85.29536
822.78        83.38299
823.19        82.28951
823.60        82.30146
824.00        83.13178
824.41         84.3102
824.82        85.15789
825.23        85.37167
825.64        85.19521
826.04        84.81301
826.45        84.48392
826.86        84.29366
827.27        84.09974
827.68        83.90849
828.08        83.80436
828.49         83.7285
828.90        83.77022
829.31        83.81548
829.72        83.62474
830.12        83.19749
830.53        82.59878
830.94        82.11137
831.35        82.12095
831.75        82.73126
832.16         83.7557
832.57        84.95477
832.97        85.81839
833.38        86.07964
833.79        85.87508
834.20        85.42965
834.60        85.09283
835.01        85.00179
835.42        85.05566
835.82        85.12902
836.23        84.93133
836.64        84.45605
837.04        83.83843
837.45        83.30485
837.86         83.2014
838.26        83.60365
838.67        84.34509
839.08        85.20029
839.48        85.76166
839.89        85.84735
840.29        85.58528
840.70        85.09578
841.11        84.54793
841.51        84.02912
841.92        83.47954
842.33        82.98232
842.73        82.68651
843.14        82.58714
843.54        82.71486
843.95        82.91068
844.35        82.96148
844.76        82.79494
845.17        82.47323
845.57        82.12579
845.98        81.97408
846.38        82.06422
846.79        82.29802
847.19        82.58104
847.60        82.65122
848.00        82.48795
848.41        82.15691
848.81        81.80614
849.22        81.57653
849.62        81.56664
850.03        81.73816
850.43        82.08774
850.84        82.49452
851.24        82.95333
851.65        83.30058
852.05        83.70849
852.46        84.27248
852.86        84.99303
853.27        85.85362
853.67        86.33887
854.07        85.80214
854.48        84.27807
854.88        81.99122
855.29        79.80421
855.69        78.95755
856.10        79.68186
856.50        81.84441
856.90         84.6068
857.31         86.0577
857.71        85.63313
858.12        83.84158
858.52        81.67735
858.92         80.4465
859.33        80.41573
859.73        81.25108
860.13        82.58646
860.54        83.64404
860.94        84.17112
861.34        84.34386
861.75        84.34276
862.15        84.55253
862.55        85.03033
862.96        85.59635
863.36        86.11404
863.76         86.3319
864.17        86.19621
864.57        85.88782
864.97        85.55624
865.38         85.3997
865.78        85.51712
866.18        85.74876
866.58        86.09005
866.99        86.51855
867.39         87.0573
867.79        87.76795
868.19        88.31889
868.60        88.08392
869.00        86.99254
869.40        85.22471
869.80        83.66817
870.21        83.71604
870.61         85.7243
871.01        89.24796
871.41        93.15948
871.81        95.52054
872.22        95.75986
872.62        94.43115
873.02        92.51302
873.42        91.61686
873.82        92.07452
874.22        93.30603
874.63        94.76629
875.03        95.35712
875.43        94.60616
875.83        93.42368
876.23        91.84489
876.63        91.49015
877.03        92.60951
877.44        95.50229
877.84        99.91003
878.24        102.9679
878.64        102.2971
879.04        99.86255
879.44        97.18938
879.84        95.84782
880.24        97.49014
880.64        99.31858
881.04        101.4872
881.44        102.7074
881.84        101.9217
882.24        99.77683
882.65        97.58121
883.05        96.82978
883.45        97.78124
883.85        100.1117
884.25        102.9393
884.65        104.5762
885.05        104.4641
885.45        103.1838
885.85        101.6163
886.25        100.9668
886.65        101.4941
887.05        102.7683
887.45        104.3167
887.85        105.3082
888.25        105.4419
888.65        105.0619
889.04        104.3614
889.44        103.6672
889.84        103.1104
890.24        102.5352
890.64        102.1333
891.04        102.2293
891.44        102.8207
891.84        103.8602
892.24        104.8695
892.64        104.9606
893.04        104.0158
893.44        102.4285
893.83        100.8383
894.23        100.1817
894.63        100.6265
895.03        101.8325
895.43        103.5525
895.83        105.2929
896.23        106.7395
896.63        108.0015
897.02        108.7354
897.42        108.4113
897.82        107.0609
898.22        104.8869
898.62         102.635
899.01        101.4137
899.41        101.4785
899.81         102.481
900.21        103.8839
900.61        104.7745
901.00        104.8652
901.40        104.4479
901.80        103.7802
902.20        103.2645
902.59        103.0436
902.99        102.9546
903.39        102.9291
903.79        102.8754
904.18        102.7701
904.58        102.7269
904.98        102.7871
905.38        102.9952
905.77        103.3115
906.17        103.6522
906.57        103.9833
906.96        104.3195
907.36        104.5848
907.76        104.8081
908.15        104.8195
908.55        104.2345
908.95        103.0816
909.34        101.4561
909.74        99.89111
910.14        99.03419
910.53        99.08161
910.93         99.9482
911.33        101.2125
911.72        102.0919
912.12        102.2746
912.52        101.9228
912.91        101.5478
913.31        101.8607
913.70        103.0384
914.10        104.9468
914.49        106.9342
914.89        107.2371
915.29        105.3716
915.68        102.0303
916.08        98.88913
916.47        97.55175
916.87        98.18054
917.26        100.2484
917.66        102.6585
918.05        103.6192
918.45        102.6533
918.84        100.3981
919.24        97.96115
919.64         96.9523
920.03        97.79575
920.42          99.975
920.82        102.6541
921.21        104.5179
921.61        104.9377
922.00        104.3809
922.40        103.3073
922.79        102.2975
923.19        101.5745
923.58        100.9833
923.98        100.4435
924.37        99.76509
924.77        99.10011
925.16        98.32153
925.55        98.27581
925.95        98.97186
926.34         100.614
926.74        102.7338
927.13        104.8144
927.52        105.8145
927.92        105.6041
928.31        104.5131
928.70         102.849
929.10        101.1538
929.49        99.63968
929.89        98.21169
930.28         97.3055
930.67        97.64845
931.07        99.17706
931.46        101.7205
931.85        104.2719
932.24         105.304
932.64        104.5032
933.03         102.185
933.42        99.00864
933.82         96.5533
934.21        95.38734
934.60        95.15573
934.99        95.43631
935.39        95.69264
935.78        95.81573
936.17        95.96396
936.56         95.9624
936.96        96.15228
937.35        95.32846
937.74        94.55923
938.13        94.05022
938.53        94.43685
938.92        95.72894
939.31        97.87631
939.70        100.2681
940.09        101.2247
940.49        100.1777
940.88        97.82694
941.27        95.30718
941.66        93.95287
942.05        93.94807
942.44         94.8388
942.84        96.20764
943.23        97.43672
943.62        98.14598
944.01        98.51891
944.40        98.55049
944.79        98.21228
945.18        97.51521
945.57        96.35806
945.97        94.86452
946.36        93.58842
946.75        92.89289
947.14        92.74951
947.53        92.97121
947.92        93.28788
948.31        93.64915
948.70        94.16257
949.09        94.81081
949.48        95.47896
949.87        96.05119
950.26        96.41101
950.65        96.65665
951.04        97.02802
951.43        97.54254
951.82        98.11172
952.21        98.39188
952.60        97.86015
952.99        96.46541
953.38        94.43737
953.77        92.32204
954.16        90.87333
954.55        90.27851
954.94        90.43553
955.33        90.84775
955.72        90.65571
956.11        89.66756
956.50        88.08914
956.89         86.7154
957.28        86.96972
957.66        89.23264
958.05        92.77334
958.44        96.38785
958.83        98.32289
959.22        98.17178
959.61        96.38206
960.00        93.88844
960.39        92.24332
960.78        91.91197
961.16        92.51893
961.55        93.29128
961.94        92.91972
962.33        91.15344
962.72        88.62187
963.11        86.20638
963.49        84.98686
963.88        85.16088
964.27        86.44103
964.66        88.28149
965.04        89.52534
965.43         89.5624
965.82        88.76054
966.21        87.76151
966.60        87.43141
966.98        87.93689
967.37        88.94624
967.76        89.94099
968.15        89.97879
968.53        88.85383
968.92        86.97303
969.31        85.02869
969.69        83.86765
970.08        83.67732
970.47        84.23899
970.86         85.1347
971.24        85.63282
971.63        85.46452
972.02        84.79332
972.40        84.09851
972.79         84.1969
973.17        85.42045
973.56        87.38157
973.95        89.37189
974.33         90.0699
974.72        89.06447
975.11        86.85318
975.49        84.44073
975.88        83.16136
976.26        83.22008
976.65         84.3732
977.04        85.83881
977.42        85.74872
977.81        83.54864
978.19        80.04108
978.58        77.20838
978.96        77.11172
979.35        80.03264
979.74         85.5014
980.12        92.32657
980.51        96.48833
980.89        96.60908
981.28        93.81754
981.66        89.82914
982.05        86.83649
982.43        85.33418
982.82        84.68814
983.20        84.82412
983.59        85.76707
983.97        87.50967
984.35        90.23101
984.74        93.32861
985.12        95.57344
985.51        95.99429
985.89        94.64964
986.28        91.98936
986.66        88.94078
987.04        86.31911
987.43        84.23553
987.81        82.64039
988.20        81.29767
988.58        79.98252
988.96        78.52528
989.35        77.43011
989.73        78.65155
990.12        82.60404
990.50        87.98341
990.88        91.92439
991.27        92.75906
991.65        90.99438
992.03        87.12973
992.42        82.68049
992.80        80.38633
993.18        81.14694
993.56        83.53384
993.95        86.23129
994.33        88.13847
994.71        88.93268
995.10        89.31715
995.48        89.13868
995.86        87.94437
996.24        85.71474
996.63        82.17198
997.01        78.44975
997.39         77.8171
997.77        81.47533
998.15        88.47387
998.54        95.47459
998.92        98.08255
999.30        95.06447
999.68        87.60508
1000.06        77.62561
1000.45         70.0359
1000.83        67.09158
1001.21        67.32084
1001.59        69.67831
1001.97        73.12434
1002.35        77.33984
1002.73        83.39175
1003.12         89.8449
1003.50        91.79154
1003.88        86.96111
1004.26         77.5429
1004.64        68.34256
1005.02         63.5426
1005.40        63.39149
1005.78        67.53617
1006.16        76.36469
1006.54        84.98666
1006.92        87.73018
1007.30        86.48186
1007.69        84.36962
1008.07        83.63309
1008.45        84.56973
1008.83        86.98132
1009.21        91.77153
1009.59        97.70536
1009.97        91.53379
1010.35        55.42077
1010.73        31.47674
1011.11        35.74292
1011.49        45.15827
1011.86        54.89644
1012.24        61.04813
1012.62        63.90242
1013.00        64.73981
1013.38        64.02626
1013.76        63.53487
1014.14        68.62491
1014.52        83.37379
1014.90        108.9352
1015.28        137.9147
1015.66        150.6147
1016.04        135.7975
1016.41        98.07993
1016.79        58.29119
1017.17        38.05416
1017.55        35.92963
1017.93        41.01076
1018.31        48.13837
1018.69        55.37332
1019.06        63.37403
1019.44        74.15344
1019.82        90.67606
1020.20        114.1212
1020.58        144.9589
1020.95        185.8133
1021.33          252.44
1021.71       -714.8159
1022.09        60.21576
1022.46        103.3531
1022.84        119.3688
1023.22         131.875
1023.60        154.4941
1023.97        351.0418
1024.35        23.14661
1024.73        62.83006
