SpectraSmart Spectrum 2.9.0.0
--------- Device Information -----------
Spectrum Name :  反射率_0
Saving Time :  2024/04/26 02:06:58
Spectro-Module Model Name : SE2030-DUVN
Spectro-Module Serial Number : OS361AC55029948
Wavelength Start : 200
Wavelength End : 1025
Wavelength Unit : Wavelength(nm)
Spectrum Unit : Reflectance(%)
-----------Spectrum Setting ------------
Integration Time : 20ms
Average : 10
Boxcar : 0
Background removal :  enabled
linearity correction :  enabled
SC :  disabled
Intensity correction :  disabled
DWT denoise :  enabled
savitzky-golay :  disabled
FFT :  disabled
Running average :  disabled
Kalman :  disabled
High pass :  disabled
---------------BEGIN--------------------
Wavelength(nm)             Reflectance(%)
200.29               0
200.75        88.65611
201.21        87.25964
201.67        84.65652
202.13        81.25654
202.58        77.37438
203.04        73.33568
203.50        69.94359
203.96        68.89618
204.42        70.27632
204.88        72.98011
205.34        76.15198
205.80        79.41045
206.26        83.34497
206.72        89.90602
207.18        100.9148
207.64        108.3307
208.10        98.56204
208.55        83.07439
209.01        73.78983
209.47         70.6049
209.93        70.79751
210.39        73.36339
210.85        76.68425
211.31        77.30188
211.77        74.23196
212.23        68.77916
212.69        63.69575
213.14        63.36086
213.60        68.22405
214.06        76.91553
214.52        86.40644
214.98        92.13174
215.44        92.86331
215.90         90.0872
216.36        85.69722
216.81        82.23206
217.27        80.76373
217.73        80.47157
218.19        80.18246
218.65        78.29723
219.11        74.04432
219.57        66.71868
220.02        57.20573
220.48        51.49559
220.94         52.7118
221.40        59.46251
221.86        65.29101
222.32        63.38338
222.77        54.92475
223.23        44.23411
223.69        35.55431
224.15        33.20256
224.61        36.59111
225.06        43.39671
225.52        50.55474
225.98        54.31114
226.44        53.86628
226.90        50.73036
227.36        46.73168
227.81        44.29699
228.27        44.26645
228.73        45.60021
229.19        47.34694
229.65        48.18837
230.10        47.88203
230.56        47.05867
231.02        46.29302
231.48        46.17426
231.93        46.68645
232.39        47.53015
232.85        48.31019
233.31        48.49791
233.77        47.95641
234.22        46.87259
234.68        45.48045
235.14        44.22362
235.60        43.38418
236.05        42.92794
236.51        42.84829
236.97        43.06584
237.43        43.59712
237.88        44.65033
238.34        46.28363
238.80        48.47615
239.26        50.98735
239.71        53.66772
240.17        56.12249
240.63        58.39877
241.08         60.5629
241.54         62.4344
242.00        64.12929
242.46        66.08923
242.91        69.20255
243.37          75.136
243.83        92.22739
244.28        148.2788
244.74        213.5733
245.20        179.3686
245.66        146.5626
246.11        135.9501
246.57        136.8988
247.03        149.9107
247.48        184.7421
247.94        138.8994
248.40        94.51027
248.85        84.37252
249.31        83.15029
249.77         85.4072
250.22         90.3298
250.68        98.81372
251.14        110.8886
251.59        119.2616
252.05        116.1834
252.51        104.8277
252.96        91.56343
253.42        82.62217
253.88        77.69753
254.33        74.81061
254.79        74.59542
255.25        77.29758
255.70        81.69622
256.16         87.0363
256.62        90.76901
257.07        90.32861
257.53        86.62913
257.99        80.67603
258.44        74.55579
258.90         71.6169
259.35        71.01622
259.81        71.51428
260.27        71.17953
260.72        68.17197
261.18        63.25071
261.63         57.2498
262.09        51.77607
262.55        48.00662
263.00        45.89231
263.46        44.91147
263.91        44.15937
264.37        42.93246
264.83        41.04613
265.28        38.68132
265.74         36.4174
266.19        34.89767
266.65        34.33706
267.11        34.35553
267.56        34.42976
268.02        33.93307
268.47        32.74486
268.93        31.08277
269.38        29.25679
269.84        28.02438
270.30        27.58632
270.75        27.72729
271.21        28.04857
271.66        27.95903
272.12         27.3042
272.57        26.28346
273.03        25.21824
273.48        24.50843
273.94        24.26765
274.39        24.30737
274.85        24.40698
275.31        24.24687
275.76        23.75294
276.22        23.07667
276.67        22.36002
277.13        21.88272
277.58        21.65671
278.04        21.60228
278.49        21.57172
278.95         21.4114
279.40         21.0631
279.86        20.63498
280.31         20.1606
280.77        19.78668
281.22        19.51163
281.68         19.3132
282.13        19.16259
282.59        19.04735
283.04        18.95266
283.50        18.91129
283.95        18.87743
284.41        18.79129
284.86        18.64121
285.32        18.45067
285.77        18.30158
286.22        18.37424
286.68        18.66347
287.13        19.08366
287.59         19.4648
288.04        19.55463
288.50        19.33165
288.95        18.87205
289.41        18.35326
289.86        17.94348
290.32        17.74845
290.77        17.71005
291.22        17.81536
291.68        18.00433
292.13         18.2657
292.59        18.62675
293.04        19.10984
293.50        19.74129
293.95        20.50322
294.40        21.34861
294.86        22.21713
295.31        23.03571
295.77        23.79623
296.22          24.529
296.68        25.26394
297.13        26.01826
297.58        26.82258
298.04        27.68664
298.49        28.65747
298.95           29.85
299.40        31.26806
299.85        32.87638
300.31        34.56046
300.76        36.13615
301.21        37.52736
301.67         38.7984
302.12          39.977
302.58        41.19521
303.03        42.46764
303.48        43.77817
303.94        45.17131
304.39        46.66253
304.84        48.25742
305.30        49.95135
305.75        51.62603
306.20         53.1161
306.66         54.4085
307.11        55.50755
307.57        56.56391
308.02        57.70637
308.47          59.014
308.93        60.44537
309.38        61.90568
309.83        63.28947
310.29        64.54646
310.74        65.67585
311.19        66.72192
311.65        67.75539
312.10        68.78773
312.55        69.81163
313.00        70.73962
313.46        71.43766
313.91        71.87087
314.36        72.09883
314.82        72.30779
315.27        72.73956
315.72        73.47637
316.18        74.45226
316.63        75.49529
317.08        76.27862
317.53        76.70935
317.99        76.86102
318.44        76.94974
318.89         77.3326
319.35        78.06905
319.80          79.075
320.25        80.05223
320.70        80.50784
321.16        80.33921
321.61        79.71564
322.06        78.99144
322.51         78.7192
322.97        79.01225
323.42        79.73614
323.87        80.60484
324.32        81.12373
324.78        81.14018
325.23        80.85123
325.68        80.44696
326.13        80.25823
326.59         80.3727
327.04        80.70219
327.49           81.17
327.94        81.68451
328.39        82.18964
328.85        82.70329
329.30        83.21318
329.75         83.5407
330.20        83.67415
330.66        83.64334
331.11        83.63595
331.56        83.89478
332.01        84.49386
332.46        85.34605
332.92        86.32948
333.37        87.37545
333.82        88.32726
334.27         89.2074
334.72        89.87864
335.17        90.12935
335.63        89.95345
336.08        89.46964
336.53        88.93919
336.98        88.82606
337.43        89.25401
337.88        90.09637
338.34        91.17487
338.79        92.26624
339.24        93.21618
339.69        94.09484
340.14        94.80315
340.59        95.17439
341.05        95.20577
341.50        94.92905
341.95        94.57996
342.40        94.54336
342.85        94.90696
343.30        95.58089
343.75        96.37778
344.20         96.9471
344.66        97.18507
345.11        97.17409
345.56          97.034
346.01        96.94579
346.46        96.97142
346.91        97.05415
347.36        97.15057
347.81        97.20391
348.26        97.20841
348.72        97.21912
349.17        97.25714
349.62        97.39799
350.07        97.64645
350.52        97.95715
350.97        98.27684
351.42        98.53361
351.87        98.70156
352.32        98.79838
352.77        98.81422
353.22        98.73982
353.67        98.58232
354.13        98.35236
354.58        98.07751
355.03        97.86111
355.48        97.71643
355.93        97.61897
356.38        97.48653
356.83        97.18374
357.28         96.6856
357.73         96.0417
358.18        95.34159
358.63        94.72461
359.08         94.2336
359.53        93.83576
359.98         93.4725
360.43        93.04984
360.88        92.53763
361.33        91.95667
361.78        91.36312
362.23        90.84577
362.68        90.42803
363.13        90.09184
363.58        89.74715
364.03        89.25401
364.48        88.58953
364.93        87.79192
365.38        87.00127
365.83        86.44543
366.28        86.15846
366.73         86.0529
367.18        85.95322
367.63        85.57526
368.08        84.86548
368.53        83.95135
368.98        82.96848
369.43        82.11218
369.88        81.44877
370.33        80.91219
370.78        80.51835
371.23        80.29674
371.68        80.22369
372.13         80.2893
372.58        80.36555
373.03        80.23091
373.48        79.83684
373.93        79.24383
374.38        78.58315
374.83        78.06458
375.28        77.73919
375.72        77.53255
376.17        77.39211
376.62        77.20275
377.07         76.9213
377.52        76.57759
377.97        76.18948
378.42        75.78095
378.87        75.37341
379.32        74.97563
379.77        74.56841
380.22        74.12266
380.67        73.63042
381.11        73.09093
381.56        72.58057
382.01        72.22814
382.46         72.0639
382.91        72.07401
383.36        72.09019
383.81        71.84612
384.26        71.30061
384.71        70.52374
385.15        69.76067
385.60        69.44138
386.05        69.58433
386.50        70.04939
386.95        70.50181
387.40        70.38184
387.85        69.62099
388.29        68.45522
388.74        67.32885
389.19        66.58211
389.64        66.27526
390.09        66.24403
390.54        66.41794
390.98        66.67707
391.43        66.93118
391.88        67.19195
392.33        67.32382
392.78        67.06098
393.23        66.41837
393.67        65.64496
394.12        64.99718
394.57        64.27105
395.02        63.70178
395.47        64.04449
395.91        65.12691
396.36        65.75132
396.81        65.74561
397.26        65.67507
397.71        65.59076
398.15        65.25674
398.60        64.79326
399.05        64.36509
399.50         63.9888
399.95        63.31565
400.39        62.75394
400.84        62.53184
401.29        62.69783
401.74        62.89557
402.18        63.01992
402.63        62.96322
403.08        62.83009
403.53        62.94159
403.97        63.31001
404.42        63.70412
404.87        63.96577
405.32        63.93557
405.76          63.575
406.21        62.99652
406.66        62.37944
407.11        62.04606
407.55        62.08106
408.00        62.22182
408.45        62.39269
408.90        62.78723
409.34        63.15187
409.79         62.7348
410.24        61.78905
410.68        61.35342
411.13         61.5181
411.58         61.7241
412.03        61.89731
412.47        62.15761
412.92        62.41653
413.37        62.67044
413.81        62.84918
414.26        62.88412
414.71        62.75288
415.15        62.46534
415.60        62.13285
416.05        61.95564
416.49        61.98677
416.94         62.1973
417.39        62.42064
417.83        62.35694
418.28         61.9659
418.73        61.35348
419.17         60.7831
419.62         60.6692
420.07        61.05544
420.51         61.8007
420.96        62.61173
421.41        62.96972
421.85        62.72728
422.30        62.21783
422.74        61.62124
423.19         61.1138
423.64        60.83392
424.08        61.13062
424.53        61.82633
424.98        62.25872
425.42        62.31613
425.87        62.41574
426.31        62.61643
426.76        62.61996
427.21        62.58961
427.65        63.05575
428.10        63.87972
428.54         64.5993
428.99        65.15891
429.44        65.28134
429.88        65.04743
430.33        65.72014
430.77        66.67466
431.22        65.45731
431.66        62.71502
432.11        61.55722
432.56        62.21454
433.00        63.08335
433.45         63.9409
433.89        65.63584
434.34        66.95532
434.78         67.6835
435.23        64.33495
435.67        62.64258
436.12        64.78067
436.57        65.93517
437.01         66.5211
437.46        66.92092
437.90        67.31126
438.35        66.21414
438.79        67.00625
439.24        66.82751
439.68        66.68996
440.13        66.64391
440.57        66.85371
441.02        67.48985
441.46        68.32693
441.91        69.19205
442.35        69.72427
442.80        69.13686
443.24         67.8264
443.69        68.13577
444.13        69.77843
444.58        69.72343
445.02        68.21262
445.47        68.13347
445.91        69.36607
446.36        69.85964
446.80        69.51947
447.24        69.40136
447.69         69.5727
448.13        69.70959
448.58        69.83084
449.02         69.9755
449.47        70.13358
449.91        70.30587
450.36        70.48723
450.80        70.65656
451.25        70.78315
451.69        70.78989
452.13         70.6861
452.58        70.49584
453.02        70.29942
453.47        70.26468
453.91        70.40398
454.36        70.67217
454.80         70.9544
455.24        70.99539
455.69        70.77087
456.13        70.43341
456.58        70.13884
457.02        69.82124
457.46        69.64572
457.91        69.95459
458.35        70.57596
458.79        70.91991
459.24        70.94624
459.68        70.88171
460.13        70.74648
460.57        70.53628
461.01        70.34679
461.46        69.67584
461.90        69.22488
462.34        69.47566
462.79         69.1326
463.23        69.54101
463.68        70.08118
464.12        70.44058
464.56        70.50541
465.01        70.37263
465.45        70.05445
465.89        69.97066
466.34        69.97417
466.78        69.16185
467.22         67.9911
467.67         67.3641
468.11        68.35952
468.55        69.10085
468.99        69.53178
469.44        69.35274
469.88        68.74718
470.32        68.72683
470.77        69.23737
471.21        69.31651
471.65        68.92245
472.10        68.73045
472.54         68.7943
472.98         68.8563
473.42        68.90543
473.87        69.17934
474.31        69.50278
474.75          69.298
475.20        68.73523
475.64        68.51167
476.08        69.03602
476.52         69.0331
476.97        68.56198
477.41        68.84644
477.85        69.04404
478.29        68.51891
478.74         69.0985
479.18          68.901
479.62        68.16698
480.06        68.74294
480.50        69.08112
480.95        69.42644
481.39        69.31824
481.83        68.74648
482.27        69.06266
482.72        68.55276
483.16         67.7068
483.60        67.97993
484.04         69.3351
484.48        69.69592
484.93        69.66956
485.37        70.68589
485.81        71.27313
486.25        70.44746
486.69        94.69593
487.14        76.24827
487.58        47.68393
488.02         58.9972
488.46        66.70725
488.90        66.03828
489.34        68.10307
489.79        67.40902
490.23        69.39827
490.67         70.2019
491.11        69.26546
491.55        69.28413
491.99        69.83163
492.43        69.71003
492.88        69.01004
493.32        69.01545
493.76        69.22697
494.20        69.49499
494.64        69.57452
495.08        69.69656
495.52        69.88602
495.96        69.82381
496.41         69.5106
496.85        69.84039
497.29         70.5647
497.73         69.4665
498.17        67.51187
498.61        67.76511
499.05        70.21511
499.49        70.75402
499.93        70.86594
500.37        70.60779
500.82        69.92505
501.26         69.9483
501.70          70.428
502.14        70.66116
502.58        70.49387
503.02        70.33357
503.46         70.1805
503.90        69.79087
504.34        69.32857
504.78         69.1698
505.22        69.36754
505.66        69.81273
506.10        70.32848
506.54        70.60049
506.98        70.53842
507.42        70.26708
507.86        69.94685
508.30        69.68119
508.74        69.75974
509.18        69.92598
509.62        70.15001
510.06        70.27271
510.50        70.25514
510.94        70.15916
511.38        70.05148
511.82        70.03165
512.26        70.12537
512.70        70.28959
513.14        70.48409
513.58        70.65119
514.02        70.76104
514.46        70.82449
514.90        70.84792
515.34        70.82749
515.78        70.75862
516.22        70.70212
516.66        70.66624
517.10        70.49706
517.54         70.2051
517.98         70.4144
518.42        70.27594
518.86        70.40479
519.30        70.53687
519.74        70.72736
520.18         70.9481
520.62        71.14398
521.06        71.30261
521.50        71.43169
521.93         71.4964
522.37         71.4428
522.81        71.28086
523.25        71.03626
523.69        70.80862
524.13        70.75111
524.57        70.89008
525.01        71.17608
525.45        71.50762
525.89        71.71614
526.32        71.74425
526.76        71.64044
527.20        71.46002
527.64         71.3101
528.08        71.24397
528.52        71.17447
528.96        71.05934
529.40        71.03558
529.83        71.13525
530.27        70.60265
530.71        70.86756
531.15        70.85892
531.59        70.99834
532.03        71.21376
532.46        71.49109
532.90        71.77579
533.34        72.01964
533.78         72.2298
534.22        72.35177
534.66        72.31361
535.09        72.10679
535.53        71.79097
535.97        71.43551
536.41        71.17287
536.85        71.04447
537.28        71.02029
537.72          71.068
538.16        71.12908
538.60        71.17634
539.04        71.20563
539.47        71.19587
539.91        71.22544
540.35        71.25671
540.79        71.17199
541.22        71.00117
541.66        70.94118
542.10        71.00253
542.54        71.01397
542.97        71.09409
543.41          71.168
543.85        71.25536
544.29        71.36753
544.72         71.4379
545.16        71.37571
545.60        71.16407
546.04        70.87153
546.47        70.63274
546.91        70.58467
547.35        70.80786
547.79        71.45161
548.22        72.21545
548.66        72.50202
549.10        72.17474
549.53        71.31993
549.97        70.33176
550.41         69.8614
550.84        70.02554
551.28        70.60062
551.72        71.34452
552.15        71.73336
552.59        71.60819
553.03        71.75591
553.46        71.17198
553.90        71.01116
554.34        71.00516
554.77        71.02253
555.21        71.01274
555.65        71.14577
556.08        71.44848
556.52        71.02192
556.96        71.50323
557.39        71.44771
557.83        71.38806
558.27        71.37502
558.70        71.45137
559.14        71.57243
559.57        71.70542
560.01        71.92072
560.45        72.12119
560.88        72.10666
561.32        71.89578
561.75        71.57378
562.19        71.28342
562.63        71.00999
563.06        70.84348
563.50        71.06449
563.93        71.51726
564.37        71.72978
564.80        71.62615
565.24        71.47256
565.68        71.32714
566.11        71.23604
566.55        71.27862
566.98        71.31931
567.42        71.37689
567.85        71.69578
568.29         72.1961
568.72         72.1769
569.16        71.85566
569.60        72.11559
570.03        72.64352
570.47         72.5144
570.90        71.96466
571.34        70.54275
571.77        71.11681
572.21        71.21546
572.64         70.9734
573.08        69.83453
573.51        67.02192
573.95        69.51193
574.38        73.65324
574.82        71.89266
575.25         71.2819
575.69        68.89359
576.12        67.95547
576.56        67.21416
576.99         68.9879
577.42        71.59355
577.86        71.59472
578.29         71.0806
578.73        74.80367
579.16        68.93906
579.60        63.24303
580.03        66.08866
580.47        70.44748
580.90        72.05438
581.33        70.74542
581.77        69.81348
582.20        76.43975
582.64        76.15302
583.07         64.8812
583.51        63.79881
583.94        62.90673
584.37        65.88903
584.81        69.08346
585.24        72.65951
585.68        74.36539
586.11        72.76764
586.54        67.90813
586.98        65.50482
587.41        66.75702
587.85        70.10196
588.28        72.63873
588.71        68.78821
589.15        66.98207
589.58        68.35226
590.01        69.05867
590.45        69.72188
590.88        70.64072
591.31        69.86464
591.75        69.43987
592.18         69.5249
592.61        71.06333
593.05        71.45879
593.48        74.37988
593.91        75.23312
594.35        68.96646
594.78        67.70734
595.21        67.50612
595.65        70.55817
596.08        73.07825
596.51        70.22153
596.94        68.30327
597.38        68.91921
597.81        71.41487
598.24        73.81133
598.68         71.9418
599.11         70.9849
599.54        73.54226
599.97        74.97608
600.41        69.83022
600.84         69.7949
601.27          71.453
601.70        70.45681
602.14        70.68367
602.57         69.6362
603.00        70.07886
603.43        71.58616
603.87        73.13967
604.30        73.15035
604.73        70.83363
605.16         68.9971
605.60        70.44574
606.03        71.51571
606.46        72.32614
606.89        72.30823
607.32        70.19061
607.76        69.79508
608.19        72.34975
608.62        71.35239
609.05        70.06915
609.48        70.53967
609.92        70.42854
610.35        70.03888
610.78        72.27476
611.21        72.84781
611.64        69.83218
612.07        70.65429
612.50        71.14146
612.94        71.66993
613.37        71.17258
613.80        71.14998
614.23        71.66006
614.66        71.49734
615.09        71.70679
615.52        71.69205
615.96        71.58308
616.39        71.70609
616.82        70.86047
617.25          70.493
617.68        71.45068
618.11         72.0419
618.54        72.33966
618.97        71.85748
619.40        71.04076
619.84        70.78471
620.27        72.00622
620.70        72.67846
621.13         72.8797
621.56        72.17537
621.99        70.95534
622.42        71.82752
622.85        74.26427
623.28        73.74036
623.71        72.97185
624.14        72.98237
624.57        72.66453
625.00        72.03463
625.43        72.66125
625.86        72.04795
626.29        72.06524
626.72        73.12492
627.15        72.49574
627.58        72.68774
628.01        72.74586
628.44        72.90644
628.87        72.93749
629.30        73.12925
629.73        73.29203
630.16        73.70082
630.59        73.36803
631.02        72.85367
631.45         72.7035
631.88        72.43934
632.31        72.31645
632.74        72.30099
633.17        72.37714
633.60        72.46973
634.03        72.54707
634.46        72.63995
634.89        72.72038
635.32        72.74353
635.75         72.7047
636.18        72.60355
636.61        72.49644
637.04        72.48312
637.47        72.57915
637.89        72.76408
638.32        72.93902
638.75        72.98788
639.18        72.88006
639.61        72.66261
640.04        72.40014
640.47         72.1915
640.90        72.07539
641.33        72.02348
641.76        71.99979
642.18        72.04872
642.61        72.15574
643.04        72.14655
643.47        71.98326
643.90        72.53966
644.33        72.31276
644.76        72.50002
645.18        72.61435
645.61        72.61103
646.04        72.46659
646.47        72.21003
646.90        71.94131
647.33        71.84311
647.75        71.97066
648.18         72.2808
648.61        72.56692
649.04        72.62831
649.47        72.36259
649.89        71.46065
650.32        70.41696
650.75        70.37531
651.18        71.29108
651.61        72.28345
652.03         72.8908
652.46        72.74548
652.89        72.27151
653.32        71.66324
653.74        71.28339
654.17        72.57645
654.60         73.5772
655.03         70.7917
655.46        72.03755
655.88        76.02711
656.31         79.6105
656.74        176.1805
657.16        114.3314
657.59        40.63369
658.02        30.89877
658.45         54.0733
658.87        69.54062
659.30        72.78537
659.73        71.49428
660.15        69.56635
660.58        72.03808
661.01        73.98167
661.44        71.53944
661.86         70.8241
662.29        70.99642
662.72        71.87508
663.14        73.17667
663.57        73.00451
664.00        71.67436
664.42        71.33586
664.85        72.08015
665.27        72.53194
665.70        72.47499
666.13        72.34121
666.55        72.10818
666.98        71.64508
667.41        71.14005
667.83        70.95857
668.26        71.17358
668.69        71.63837
669.11        72.10258
669.54        72.52109
669.96        72.13719
670.39        71.61052
670.82        70.98647
671.24        70.71169
671.67        70.89875
672.09         71.3485
672.52         71.7764
672.94        72.28646
673.37        71.63337
673.80        71.46814
674.22        71.49546
674.65        71.47788
675.07         71.4065
675.50        71.29187
675.92        71.20021
676.35        71.27299
676.77        71.51929
677.20        71.81308
677.62        72.08615
678.05        72.22772
678.47        72.19001
678.90        72.05093
679.32        71.88521
679.75        71.59657
680.17        71.48526
680.60        71.62678
681.02         71.5005
681.45        71.44038
681.87        71.27308
682.30        71.08677
682.72        70.95831
683.15        70.92835
683.57        71.08731
684.00        71.52727
684.42        72.21268
684.85        72.52947
685.27        72.36481
685.70        72.02617
686.12        71.63516
686.54        71.38198
686.97        71.33107
687.39        71.48349
687.82        71.71696
688.24         71.8437
688.66        71.79654
689.09         71.6533
689.51        71.52663
689.94        71.55045
690.36        71.75707
690.78        72.10118
691.21        72.46964
691.63        72.63019
692.06        72.52985
692.48        72.48988
692.90        72.17933
693.33        72.09331
693.75        72.14494
694.17        72.30164
694.60        72.50498
695.02        72.64906
695.44        72.66548
695.87        72.76057
696.29        72.93922
696.71        72.62744
697.14        72.03708
697.56        72.43348
697.98        73.55025
698.41        73.31909
698.83        72.49866
699.25        71.99361
699.68        72.09279
700.10        72.06873
700.52        71.93553
700.94        72.08676
701.37        72.45788
701.79        72.83475
702.21        73.12725
702.64        73.39487
703.06        73.55688
703.48        73.47992
703.90        73.17295
704.33        72.68338
704.75        72.15272
705.17        71.89997
705.59        72.00554
706.01        72.26591
706.44        72.54255
706.86        73.21734
707.28        73.24104
707.70        73.45689
708.12        73.56363
708.55        73.45259
708.97        73.16576
709.39        72.95061
709.81        72.86921
710.23        72.80259
710.66        72.77302
711.08        72.92962
711.50        73.16378
711.92        73.24368
712.34        73.12971
712.76        72.87115
713.19        72.60715
713.61        72.59441
714.03        72.86716
714.45        73.34535
714.87        73.81321
715.29        73.93315
715.71        73.64033
716.13         73.0462
716.56        72.38853
716.98         72.0822
717.40        72.22308
717.82        72.68716
718.24        73.26249
718.66        73.58742
719.08        73.55762
719.50        73.28872
719.92        72.91853
720.34        72.68299
720.76        72.65602
721.19         72.6403
721.61        72.81569
722.03        72.96529
722.45        73.11791
722.87         73.2955
723.29        73.48099
723.71        73.60123
724.13        73.68775
724.55        73.70229
724.97        73.67274
725.39        73.63384
725.81        73.59917
726.23        73.56403
726.65         73.5295
727.07        73.49326
727.49         73.4604
727.91        73.44576
728.33        73.44994
728.75        73.46995
729.17        73.50191
729.59         73.5347
730.01        73.59035
730.43        73.69625
730.85        73.85564
731.27         74.0846
731.69        74.30238
732.10        74.35696
732.52        74.22216
732.94        73.98622
733.36        73.80303
733.78        73.77769
734.20        73.94083
734.62        74.57209
735.04        75.43347
735.46        75.38358
735.88        74.66983
736.30        74.98892
736.72        76.27367
737.13        76.78481
737.55        76.27174
737.97        76.16483
738.39        76.49849
738.81        75.78716
739.23        74.50436
739.65        75.31165
740.06        77.67921
740.48        77.96046
740.90        76.25702
741.32        75.37347
741.74        75.90273
742.16        76.11298
742.57         76.1507
742.99        76.81554
743.41        77.89705
743.83        78.58683
744.25        78.73808
744.67        78.55755
745.08        78.24019
745.50        78.10497
745.92        78.26121
746.34        78.58771
746.75        78.97008
747.17        79.21709
747.59        79.30013
748.01        79.28637
748.42        79.29255
748.84        79.52605
749.26        80.03449
749.68        80.57341
750.09        81.03613
750.51        81.61813
750.93        82.10612
751.35        81.68372
751.76        80.62563
752.18        80.25237
752.60        80.59301
753.01        80.71312
753.43        80.59042
753.85        80.81104
754.27        81.37908
754.68        82.04481
755.10        82.65835
755.52        83.13766
755.93        83.40593
756.35         83.4301
756.77        83.37608
757.18        83.34475
757.60        83.36185
758.02        83.87051
758.43        84.54651
758.85        83.78564
759.26        82.14403
759.68        82.18372
760.10        83.68152
760.51        84.25061
760.93        83.67538
761.34        81.97749
761.76        81.88166
762.18        81.33846
762.59        81.23141
763.01        81.67046
763.42        82.59674
763.84        83.32833
764.26        83.71551
764.67        83.96614
765.09        84.01721
765.50        83.79195
765.92        83.30683
766.33        82.19553
766.75        80.91779
767.16        80.65433
767.58        81.52951
768.00        83.02069
768.41        84.73523
768.83        86.08671
769.24        86.51365
769.66        85.44529
770.07        83.57626
770.49        82.16412
770.90        81.53427
771.32        82.56557
771.73        84.55959
772.15        84.01248
772.56        81.41498
772.97        80.97165
773.39        82.58353
773.80        83.10558
774.22        82.33338
774.63        82.23834
775.05        82.78256
775.46        83.05746
775.88        82.96077
776.29        82.76219
776.70        82.55637
777.12        82.51583
777.53        82.69559
777.95         82.9808
778.36        83.22463
778.77        83.17467
779.19        82.82535
779.60        82.25819
780.02        81.70468
780.43        81.60857
780.84        82.10183
781.26         82.5965
781.67        83.00329
782.09        84.11526
782.50        85.36269
782.91        84.29704
783.33        81.67824
783.74        80.81477
784.15        81.89054
784.57        82.76437
784.98        83.05595
785.39        83.22727
785.81        83.16129
786.22        82.56808
786.63        81.84411
787.04        81.73775
787.46        82.33697
787.87        83.40204
788.28        84.53304
788.70        85.05116
789.11        84.79603
789.52        84.01922
789.93        83.08662
790.35        82.50365
790.76        82.41504
791.17        82.71507
791.58        83.21742
792.00        83.53715
792.41        83.54861
792.82        83.44222
793.23        83.39396
793.65        83.14401
794.06        82.92363
794.47        83.94663
794.88        85.49194
795.29        84.92871
795.71        82.52433
796.12        80.48956
796.53        79.44645
796.94        79.11251
797.35        79.60436
797.76        81.02853
798.18        82.74722
798.59        83.80946
799.00        83.82842
799.41        82.90938
799.82        81.55161
800.23        80.70927
800.64        80.61751
801.06        80.90807
801.47        81.45468
801.88        81.93787
802.29        82.21711
802.70         82.4284
803.11        82.55884
803.52        82.54877
803.93        82.41521
804.34        82.12938
804.75        81.81528
805.17        81.75137
805.58        82.02922
805.99        82.38605
806.40        82.66293
806.81        83.04882
807.22        83.24567
807.63        82.29634
808.04        80.65802
808.45        79.93497
808.86        80.29601
809.27        80.97689
809.68        81.66031
810.09        82.07484
810.50        82.05146
810.91        81.68788
811.32        81.18839
811.73         80.8824
812.14        80.85976
812.55        80.98419
812.96        81.19575
813.37        81.38636
813.78        81.50397
814.19        81.64307
814.60        81.68338
815.01        81.42239
815.42        80.85435
815.83        79.99705
816.24        79.19981
816.65        79.07714
817.05        79.79757
817.46        81.14758
817.87        82.58862
818.28         83.1484
818.69        82.57536
819.10        81.10505
819.51        79.41318
819.92        78.64968
820.33        79.11047
820.74        80.46124
821.14        82.03477
821.55        82.63326
821.96        82.00523
822.37        80.56709
822.78        78.94613
823.19        78.07106
823.60        78.18002
824.00        79.01502
824.41        80.13147
824.82        80.88048
825.23        80.98602
825.64        80.69921
826.04        80.19168
826.45        79.69926
826.86        79.31895
827.27        78.92605
827.68         78.6204
828.08        78.63433
828.49        78.93687
828.90         79.5625
829.31        80.23724
829.72        80.42499
830.12        80.02714
830.53        79.18878
830.94        78.33076
831.35        78.04936
831.75        78.50816
832.16        79.46317
832.57        80.65111
832.97        81.51722
833.38        81.77814
833.79          81.603
834.20        81.19154
834.60        80.84236
835.01        80.68095
835.42        80.59898
835.82        80.51837
836.23        80.24538
836.64        79.79205
837.04        79.27271
837.45        78.82756
837.86        78.66296
838.26        78.82913
838.67         79.2071
839.08         79.6968
839.48        80.10766
839.89        80.32227
840.29        80.40362
840.70        80.33202
841.11        80.06794
841.51        79.64489
841.92        79.05413
842.33        78.48028
842.73        78.24017
843.14        78.36586
843.54        78.82271
843.95         79.3365
844.35         79.5067
844.76        79.21976
845.17        78.61131
845.57        77.92908
845.98         77.5642
846.38        77.60713
846.79        77.90969
847.19        78.31739
847.60        78.46505
848.00        78.29648
848.41        77.92633
848.81        77.51863
849.22        77.23227
849.62        77.17354
850.03        77.27869
850.43        77.57877
850.84        78.03935
851.24        78.65208
851.65        79.22825
852.05        79.81667
852.46        80.31557
852.86        80.69764
853.27        81.03491
853.67        80.95971
854.07         80.0387
854.48        78.36985
854.88        76.12932
855.29        74.11335
855.69        73.46828
856.10        74.39281
856.50        76.76276
856.90        79.76615
857.31        81.51159
857.71        81.38931
858.12        79.85799
858.52        77.82465
858.92        76.49757
859.33        76.14572
859.73        76.46002
860.13         77.2018
860.54        77.87484
860.94        78.34248
861.34        78.74577
861.75        79.13905
862.15        79.67655
862.55        80.34564
862.96        81.02625
863.36        81.63784
863.76        82.03939
864.17        82.18503
864.57        82.16895
864.97        82.08672
865.38        82.07521
865.78        82.21719
866.18        82.39996
866.58        82.59552
866.99         82.7346
867.39         82.8554
867.79        83.04068
868.19        83.11913
868.60        82.75736
869.00        81.94647
869.40         80.7813
869.80        79.92346
870.21        80.39155
870.61        82.43173
871.01        85.70692
871.41        89.20463
871.81        91.19663
872.22        91.21935
872.62        89.77053
873.02        87.84349
873.42        87.12546
873.82        87.88308
874.22        89.41734
874.63        91.20047
875.03        92.08066
875.43        91.51694
875.83        90.57299
876.23        88.84065
876.63        88.17618
877.03        88.71899
877.44        90.65337
877.84         101.744
878.24        97.70746
878.64        97.80311
879.04         96.7389
879.44        93.97581
879.84        92.63634
880.24        94.96056
880.64        96.69326
881.04        98.12124
881.44        98.57146
881.84        97.28764
882.24        94.82317
882.65        92.50524
883.05        91.70805
883.45        92.63219
883.85        95.10308
884.25         98.1397
884.65        99.75595
885.05        99.35374
885.45         97.6228
885.85        95.61187
886.25        94.76733
886.65        95.39571
887.05        96.97817
887.45        98.98619
887.85        100.4824
888.25        101.0754
888.65         101.105
889.04        100.6911
889.44        100.0463
889.84         99.3147
890.24        98.41815
890.64        97.62837
891.04        97.39768
891.44        97.77776
891.84        98.67358
892.24        99.73322
892.64        100.2587
893.04        100.0963
893.44         99.5376
893.83        98.86605
894.23        98.52324
894.63        98.60623
895.03         98.8918
895.43        99.48803
895.83        100.5812
896.23        102.0818
896.63        103.9306
897.02        105.4435
897.42        105.4945
897.82         103.961
898.22        101.2785
898.62        98.45387
899.01        96.96645
899.41        97.16135
899.81        98.53009
900.21         100.437
900.61        101.8352
901.00        102.3554
901.40        102.3189
901.80        101.9258
902.20        101.4831
902.59        101.1227
902.99        100.6952
903.39        100.2173
903.79        99.76665
904.18        99.39106
904.58        99.19402
904.98        99.18443
905.38        99.33057
905.77        99.58006
906.17        99.88412
906.57        100.2336
906.96        100.6771
907.36        101.1278
907.76        101.5677
908.15         101.803
908.55        101.4174
908.95        100.4194
909.34        98.92166
909.74        97.39732
910.14        96.40602
910.53        96.13443
910.93        96.50126
911.33        97.26132
911.72        97.95248
912.12        98.32311
912.52        98.43855
912.91        98.51038
913.31        98.84818
913.70         99.5505
914.10        100.5246
914.49        101.3952
914.89        101.1777
915.29        99.68248
915.68        97.32561
916.08        95.19672
916.47        94.24072
916.87        94.55479
917.26        95.83641
917.66        97.35017
918.05        97.92606
918.45        97.25733
918.84        95.75607
919.24         94.1917
919.64        93.67516
920.03        94.48949
920.42        96.26385
920.82        98.37579
921.21        99.89091
921.61        100.3175
922.00        100.0007
922.40        99.22395
922.79        98.35378
923.19        97.59057
923.58         96.8135
923.98        96.05096
924.37        95.51468
924.77        95.41854
925.16        94.77155
925.55        95.50394
925.95        96.47277
926.34        98.15477
926.74        100.1622
927.13        101.9434
927.52        102.3821
927.92        101.3941
928.31        99.35602
928.70        96.89474
929.10        95.07433
929.49        94.18201
929.89        93.95906
930.28         94.3918
930.67        95.43458
931.07        96.81975
931.46        98.61398
931.85        100.1705
932.24        100.5361
932.64        99.57276
933.03        97.39957
933.42        94.60767
933.82        92.61302
934.21         91.8548
934.60         92.0381
934.99         92.5983
935.39         92.8588
935.78        92.70504
936.17        92.13869
936.56        91.04991
936.96        91.34141
937.35          90.534
937.74         90.6215
938.13        90.84708
938.53        91.45444
938.92        92.46027
939.31         93.9423
939.70        95.48714
940.09        95.92462
940.49        94.92578
940.88        92.97924
941.27        90.99783
941.66        90.06136
942.05        90.30042
942.44         91.3768
942.84        92.83144
943.23        93.95045
943.62        94.35979
944.01        94.23611
944.40        93.79024
944.79        93.34309
945.18        92.99657
945.57        92.64795
945.97        92.10928
946.36        91.15006
946.75        89.92978
947.14        88.75916
947.53        88.01785
947.92        87.99854
948.31        88.66699
948.70         89.9622
949.09        91.56158
949.48        92.65126
949.87        92.83946
950.26        92.26485
950.65        91.41943
951.04        91.11731
951.43          91.545
951.82        92.44238
952.21        93.33981
952.60        93.49172
952.99        92.72303
953.38        91.32068
953.77        89.76138
954.16        88.69763
954.55        88.29579
954.94         88.4172
955.33        88.67096
955.72        88.40577
956.11        87.47858
956.50         86.0798
956.89         84.8117
957.28        84.73598
957.66        86.19989
958.05        88.65509
958.44        91.27175
958.83        92.82847
959.22        93.00577
959.61        92.05264
960.00        90.59906
960.39        89.69621
960.78        89.63142
961.16        90.16283
961.55        90.58432
961.94         89.7317
962.33         87.4649
962.72        84.38271
963.11        81.48768
963.49         80.0173
963.88        80.18829
964.27        81.72829
964.66        83.97932
965.04        85.48765
965.43        85.54067
965.82        84.57331
966.21        83.41026
966.60        83.18333
966.98        84.10027
967.37        85.74269
967.76        87.42554
968.15        87.87702
968.53        86.78597
968.92        84.68706
969.31        82.43678
969.69         81.1115
970.08        80.95016
970.47        81.64133
970.86        82.74175
971.24        83.47216
971.63        83.53499
972.02        83.14919
972.40        82.68333
972.79        82.74003
973.17        83.62617
973.56        85.01388
973.95        86.49429
974.33        87.29229
974.72        87.06812
975.11        86.03668
975.49         84.8448
975.88        84.44621
976.26        84.98122
976.65          86.311
977.04         87.6163
977.42        86.99989
977.81        83.98781
978.19        79.46351
978.58        75.61481
978.96        74.65176
979.35        76.84689
979.74        81.75907
980.12        88.16721
980.51        92.01331
980.89        91.94961
981.28        89.09711
981.66        85.29408
982.05        82.89564
982.43        82.33092
982.82        82.81391
983.20        83.97281
983.59        85.40765
983.97         87.0061
984.35         89.0052
984.74        90.98896
985.12        92.26784
985.51        92.18846
985.89        90.71425
986.28        88.16754
986.66        85.15523
987.04        82.40884
987.43        80.22363
987.81        78.52837
988.20        76.99541
988.58        75.36857
988.96        73.33059
989.35        71.61676
989.73        73.06258
990.12        78.49926
990.50        85.96884
990.88        91.49921
991.27        92.66932
991.65        90.12558
992.03        84.66335
992.42        78.27909
992.80        74.74499
993.18        75.34732
993.56        78.22265
993.95        81.72337
994.33        84.43346
994.71        85.89782
995.10        86.91397
995.48        87.22111
995.86        86.15635
996.24        83.64053
996.63        79.37294
997.01        74.55235
997.39        72.80775
997.77        75.64289
998.15        82.20543
998.54         89.1241
998.92        91.81905
999.30        88.97424
999.68        81.77312
1000.06        72.28896
1000.45        65.62126
1000.83        63.86273
1001.21        65.30936
1001.59        68.45009
1001.97        71.74542
1002.35        74.82863
1002.73         78.7655
1003.12        82.52802
1003.50        82.82746
1003.88        78.45122
1004.26        71.04033
1004.64        64.28399
1005.02        61.46477
1005.40        62.85858
1005.78        68.49567
1006.16        78.74831
1006.54        87.88686
1006.92        89.83804
1007.30        87.20882
1007.69        83.66746
1008.07         81.3942
1008.45        80.21661
1008.83        78.90789
1009.21        76.22529
1009.59        68.76659
1009.97        49.92227
1010.35        28.22152
1010.73         35.6096
1011.11        48.89505
1011.49        57.07214
1011.86        63.49025
1012.24        66.74268
1012.62        67.43879
1013.00        66.47195
1013.38        63.72647
1013.76        60.86255
1014.14        64.04971
1014.52        78.45383
1014.90        105.9385
1015.28        139.6918
1015.66        159.2803
1016.04        151.5779
1016.41        119.0038
1016.79        79.20623
1017.17        53.04229
1017.55        43.08751
1017.93        41.14798
1018.31        42.69539
1018.69        45.58662
1019.06         49.5098
1019.44        55.02418
1019.82        64.16415
1020.20        78.74657
1020.58        100.6666
1020.95        135.5773
1021.33        194.0125
1021.71       -447.0773
1022.09        83.49929
1022.46        118.4963
1022.84         134.133
1023.22          148.12
1023.60        175.0701
1023.97        419.5279
1024.35        12.10607
1024.73        64.79025
