SpectraSmart Spectrum 2.9.0.0
--------- Device Information -----------
Spectrum Name :  反射率_0
Saving Time :  2024/04/26 01:23:52
Spectro-Module Model Name : SE2030-DUVN
Spectro-Module Serial Number : OS361AC55029948
Wavelength Start : 200
Wavelength End : 1025
Wavelength Unit : Wavelength(nm)
Spectrum Unit : Reflectance(%)
-----------Spectrum Setting ------------
Integration Time : 20ms
Average : 10
Boxcar : 0
Background removal :  enabled
linearity correction :  enabled
SC :  disabled
Intensity correction :  disabled
DWT denoise :  enabled
savitzky-golay :  disabled
FFT :  disabled
Running average :  disabled
Kalman :  disabled
High pass :  disabled
---------------BEGIN--------------------
Wavelength(nm)             Reflectance(%)
200.29               0
200.75        91.91396
201.21         84.7112
201.67        76.00732
202.13        70.83602
202.58        69.91377
203.04        72.11919
203.50        75.55467
203.96        77.08867
204.42         76.0281
204.88        73.63688
205.34        71.60081
205.80        71.67201
206.26        74.67298
206.72        82.47727
207.18        97.80128
207.64        109.7064
208.10        98.04603
208.55        78.02641
209.01        66.37035
209.47        63.79535
209.93        66.73625
210.39         73.6154
210.85        81.49519
211.31        83.74847
211.77        78.25705
212.23         67.5817
212.69        56.79221
213.14        53.67247
213.60        59.50803
214.06        71.95272
214.52        86.07838
214.98        94.34272
215.44        94.74256
215.90        89.74288
216.36        82.54439
216.81        77.50856
217.27        76.02415
217.73        76.59634
218.19        77.03684
218.65        74.40634
219.11          67.513
219.57        55.61774
220.02        40.46494
220.48        31.79583
220.94        35.11916
221.40        47.75653
221.86        59.95572
222.32        61.62221
222.77        53.91074
223.23        42.35633
223.69        32.49697
224.15        29.94402
224.61         34.0714
225.06        41.96573
225.52        49.84853
225.98        52.94453
226.44          50.425
226.90        44.47807
227.36        37.59786
227.81        33.07127
228.27        32.00666
228.73        33.07763
229.19        35.41109
229.65        37.74634
230.10        39.47867
230.56        40.89856
231.02        42.00747
231.48        42.73598
231.93        43.14398
232.39        43.26954
232.85         43.1086
233.31        42.75459
233.77        42.25222
234.22        41.53681
234.68        40.91925
235.14        40.89731
235.60        41.57682
236.05        42.87827
236.51        44.19933
236.97        44.60223
237.43        43.94279
237.88        42.43523
238.34        40.77574
238.80        41.00957
239.26         44.0976
239.71        49.53879
240.17        56.02251
240.63        61.61624
241.08        65.49549
241.54        67.86416
242.00        69.11113
242.46        70.02534
242.91        71.42877
243.37        73.65468
243.83        80.73147
244.28        110.5664
244.74        157.3298
245.20        147.7543
245.66        132.6561
246.11        132.0236
246.57        144.2426
247.03        182.4533
247.48        295.4744
247.94        253.5741
248.40        137.2047
248.85        99.62232
249.31        87.54066
249.77        84.92484
250.22        87.07339
250.68        93.22247
251.14        103.1996
251.59        110.7329
252.05        109.2254
252.51        101.5042
252.96        92.06651
253.42         85.6802
253.88        82.15011
254.33        79.67706
254.79        79.54688
255.25        82.92237
255.70        88.56687
256.16        95.41315
256.62        100.2815
257.07        99.99715
257.53        95.70219
257.99        88.73103
258.44        81.80202
258.90        79.00855
259.35        79.23508
259.81        80.75724
260.27        81.07659
260.72        77.83154
261.18        71.99438
261.63        64.75507
262.09        58.06825
262.55        53.44468
263.00         50.8705
263.46        49.67996
263.91          48.859
264.37        47.64185
264.83        45.78697
265.28        43.47754
265.74        41.25745
266.19        39.68878
266.65        38.99696
267.11        38.82994
267.56        38.68742
268.02        37.98119
268.47        36.58495
268.93        34.70821
269.38        32.68139
269.84        31.30845
270.30        30.80493
270.75        30.94178
271.21         31.2849
271.66        31.18185
272.12        30.46248
272.57        29.34269
273.03        28.16162
273.48        27.34044
273.94        27.01001
274.39        26.97994
274.85        27.03258
275.31        26.85193
275.76        26.35619
276.22        25.68043
276.67        24.97608
277.13        24.54401
277.58        24.38052
278.04        24.39967
278.49        24.38319
278.95         24.0859
279.40        23.45383
279.86        22.65135
280.31        21.81702
280.77        21.26019
281.22        21.00658
281.68        20.97311
282.13        21.05187
282.59        21.12159
283.04        21.13282
283.50        21.15352
283.95        21.14556
284.41        21.06511
284.86        20.90876
285.32        20.68999
285.77        20.50973
286.22        20.58636
286.68        20.91923
287.13        21.41251
287.59        21.86946
288.04        21.98843
288.50        21.74463
288.95        21.23377
289.41        20.66036
289.86        20.22852
290.32        20.05387
290.77        20.05873
291.22        20.22698
291.68        20.49345
292.13        20.84044
292.59        21.30333
293.04        21.87962
293.50        22.55668
293.95        23.31469
294.40        24.11988
294.86        24.96682
295.31        25.86612
295.77        26.82785
296.22        27.86206
296.68        28.93483
297.13        29.95638
297.58        30.92875
298.04        31.88778
298.49        32.94846
298.95        34.33809
299.40        36.07998
299.85        38.10012
300.31        40.20225
300.76         42.0691
301.21        43.59977
301.67        44.91652
302.12        46.12382
302.58        47.47796
303.03        49.01616
303.48        50.67893
303.94        52.47155
304.39        54.34437
304.84        56.27913
305.30        58.28961
305.75        60.24207
306.20        61.95313
306.66        63.41167
307.11        64.61626
307.57        65.75789
308.02         67.0127
308.47        68.48336
308.93        70.13412
309.38        71.83228
309.83        73.41457
310.29        74.82103
310.74        76.05359
311.19        77.22863
311.65         78.5298
312.10        79.97186
312.55        81.50337
313.00        82.90066
313.46        83.80896
313.91        84.15081
314.36        84.06935
314.82         83.9066
315.27        84.13228
315.72        84.89685
316.18        86.07024
316.63        87.40592
317.08         88.4453
317.53        89.04503
317.99          89.316
318.44        89.49767
318.89        89.98398
319.35         90.8408
319.80        91.96277
320.25        93.02688
320.70        93.51112
321.16        93.31162
321.61        92.62025
322.06        91.82336
322.51        91.51781
322.97        91.83031
323.42        92.62389
323.87        93.60081
324.32        94.24445
324.78        94.38432
325.23        94.21621
325.68        93.92654
326.13        93.84704
326.59        94.05912
327.04        94.48074
327.49        95.00223
327.94        95.48727
328.39        95.87749
328.85        96.19904
329.30        96.52864
329.75        96.81451
330.20        97.07806
330.66         97.3198
331.11        97.62782
331.56        98.07176
332.01        98.68681
332.46        99.42996
332.92        100.2779
333.37        101.3768
333.82        102.6177
334.27        103.9562
334.72        105.1364
335.17        105.7479
335.63        105.7138
336.08        105.2108
336.53        104.5689
336.98        104.3712
337.43        104.7852
337.88        105.6545
338.34        106.7737
338.79         107.887
339.24         108.832
339.69        109.7102
340.14        110.4477
340.59        110.9098
341.05        111.0954
341.50        110.9966
341.95        110.8296
342.40        110.9654
342.85        111.4807
343.30          112.29
343.75        113.1605
344.20        113.6671
344.66        113.7135
345.11        113.4249
345.56          113.02
346.01        112.8249
346.46        112.9334
346.91        113.2414
347.36        113.6437
347.81        113.9831
348.26        114.2117
348.72        114.4007
349.17        114.5609
349.62        114.7517
350.07         114.975
350.52        115.1766
350.97        115.3341
351.42        115.4313
351.87        115.4596
352.32        115.4392
352.77        115.3363
353.22         115.094
353.67        114.7218
354.13        114.2602
354.58        113.7874
355.03        113.4871
355.48        113.3839
355.93        113.4156
356.38        113.4482
356.83        113.2666
357.28        112.8145
357.73        112.1578
358.18        111.3855
358.63        110.6426
359.08         109.981
359.53        109.3631
359.98        108.7642
360.43        108.1425
360.88        107.4828
361.33        106.8072
361.78         106.131
362.23        105.4729
362.68        104.8447
363.13        104.2457
363.58        103.6579
364.03         103.051
364.48        102.4188
364.93         101.768
365.38        101.1294
365.83        100.5571
366.28        100.0485
366.73        99.56201
367.18        99.06107
367.63        98.49147
368.08        97.84948
368.53        97.18797
368.98        96.48462
369.43        95.69115
369.88        94.81821
370.33        93.87478
370.78        93.01501
371.23        92.49739
371.68         92.3646
372.13        92.53948
372.58        92.78345
373.03        92.68756
373.48        92.15616
373.93        91.32595
374.38        90.41657
374.83        89.76606
375.28        89.45361
375.72        89.34158
376.17        89.33408
376.62        89.25739
377.07        89.03309
377.52        88.70725
377.97        88.26172
378.42         87.6629
378.87        86.94569
379.32        86.15778
379.77        85.36296
380.22        84.64919
380.67         84.0336
381.11        83.48359
381.56        83.03754
382.01        82.75641
382.46        82.64019
382.91        82.68897
383.36        82.72499
383.81        82.46804
384.26        81.87826
384.71        81.02555
385.15        80.16917
385.60        79.77769
386.05        79.87111
386.50        80.29727
386.95        80.72322
387.40        80.58846
387.85        79.82343
388.29        78.66371
388.74        77.53908
389.19        76.73603
389.64        76.30844
390.09        76.08978
390.54        76.07855
390.98        76.27515
391.43        76.61082
391.88        77.06305
392.33        77.36909
392.78        77.08038
393.23        76.20557
393.67        75.05275
394.12        74.04872
394.57        73.24064
395.02         72.8831
395.47        73.53436
395.91        74.94232
396.36        75.85262
396.81        76.02354
397.26        75.98211
397.71        75.80832
398.15        75.32657
398.60        74.69778
399.05        74.11963
399.50        73.60179
399.95        72.68276
400.39        71.86559
400.84        71.51797
401.29        71.70853
401.74        72.00909
402.18        72.25047
402.63        72.17725
403.08        71.92163
403.53        72.01543
403.97         72.4707
404.42        72.90335
404.87        73.12595
405.32        72.98431
405.76        72.43992
406.21        71.69574
406.66        70.93585
407.11        70.34989
407.55        70.11097
408.00         70.2422
408.45        70.65798
408.90        71.32877
409.34        71.87859
409.79        71.42567
410.24        70.28697
410.68        69.78294
411.13        70.02488
411.58        70.27274
412.03        70.42046
412.47        70.63733
412.92        70.82552
413.37        70.96886
413.81        71.03482
414.26        71.01501
414.71        70.89207
415.15        70.66185
415.60        70.37708
416.05        70.14115
416.49        69.99076
416.94        69.92777
417.39        69.86388
417.83        69.62643
418.28        69.21455
418.73        68.70456
419.17        68.28116
419.62        68.24523
420.07         68.6002
420.51        69.22771
420.96        69.90737
421.41        70.19527
421.85        69.95591
422.30        69.63528
422.74        69.27458
423.19        68.56761
423.64        67.77433
424.08         67.9864
424.53        69.03119
424.98        69.59322
425.42        69.52434
425.87        69.67894
426.31        70.06854
426.76        70.03803
427.21        69.76453
427.65        70.02748
428.10        70.74171
428.54        71.37742
428.99        71.88159
429.44        72.05039
429.88        71.93552
430.33        72.58406
430.77        73.39359
431.22        72.31763
431.66        69.85895
432.11        68.45763
432.56        68.44683
433.00        69.13165
433.45        70.42078
433.89        72.45663
434.34        73.66405
434.78         75.2167
435.23        70.68127
435.67        68.81578
436.12         70.9899
436.57         72.2923
437.01        73.10805
437.46        73.40485
437.90        73.30923
438.35        73.05521
438.79        73.27049
439.24         73.1486
439.68        72.90876
440.13        72.54091
440.57        72.35662
441.02        73.20354
441.46        74.69624
441.91        75.62189
442.35        75.68693
442.80        74.81572
443.24        73.50562
443.69        74.13031
444.13        76.23981
444.58        76.23216
445.02        74.33609
445.47        73.91312
445.91        74.92123
446.36        75.19979
446.80        74.70274
447.24        74.55833
447.69        74.82384
448.13        75.12106
448.58         75.4409
449.02        75.82055
449.47        76.20109
449.91        76.49643
450.36        76.67694
450.80        76.76301
451.25         76.7486
451.69        76.53983
452.13        76.20841
452.58        75.92075
453.02        75.74117
453.47        75.69588
453.91        75.77757
454.36        76.01724
454.80        76.33691
455.24        76.40154
455.69        76.16037
456.13        75.98956
456.58         75.9727
457.02        75.16049
457.46        74.63078
457.91        74.80769
458.35        75.69194
458.79          76.034
459.24        75.77591
459.68         75.5274
460.13        75.34888
460.57        75.05772
461.01        74.74857
461.46        74.29786
461.90        73.79466
462.34        74.08006
462.79        73.75861
463.23         74.0294
463.68        74.37868
464.12        74.99926
464.56        75.62379
465.01        75.48512
465.45        74.64974
465.89        74.40582
466.34        74.60764
466.78        73.59013
467.22        71.90258
467.67        71.56232
468.11        72.92962
468.55        73.73612
468.99        73.74947
469.44        73.40835
469.88        72.92781
470.32        72.97551
470.77        73.47029
471.21        73.52219
471.65        73.08366
472.10        72.83772
472.54        72.84634
472.98        72.83979
473.42        72.80563
473.87        73.02173
474.31        73.31974
474.75        73.05358
475.20        72.41518
475.64        72.34908
476.08        72.82183
476.52        72.93934
476.97        72.66924
477.41        72.63072
477.85        72.89156
478.29        72.66669
478.74        73.25285
479.18        73.20136
479.62        72.27515
480.06         72.8276
480.50        73.13121
480.95        73.38061
481.39        73.13071
481.83        72.39431
482.27        72.57586
482.72         72.2269
483.16        71.20952
483.60        71.51474
484.04        72.92216
484.48        73.28056
484.93        73.17395
485.37        74.11404
485.81        75.05109
486.25        73.65386
486.69        99.33935
487.14        80.56432
487.58        50.11644
488.02        61.45169
488.46        70.13572
488.90        69.71381
489.34         71.3835
489.79        70.43443
490.23        72.60511
490.67        73.47598
491.11        72.48647
491.55        72.42666
491.99        72.87284
492.43         72.6915
492.88        71.98528
493.32         72.0057
493.76        72.22177
494.20        72.49138
494.64        72.54651
495.08        72.67332
495.52        72.89243
495.96        72.71076
496.41         72.1973
496.85        72.65545
497.29         73.7392
497.73        72.63074
498.17         70.3729
498.61          70.535
499.05        73.15118
499.49        73.89049
499.93        74.20069
500.37        73.87854
500.82         72.9116
501.26        72.77958
501.70         73.2813
502.14        73.63142
502.58        73.60944
503.02        73.50262
503.46        73.28966
503.90        72.80349
504.34        72.25833
504.78        72.06839
505.22        72.30062
505.66         72.8362
506.10         73.4386
506.54        73.70557
506.98        73.53232
507.42        73.05367
507.86        72.49249
508.30        72.18893
508.74        72.23049
509.18        72.50407
509.62        72.86622
510.06        73.08733
510.50        73.09823
510.94        72.98524
511.38        72.82523
511.82        72.72704
512.26        72.72764
512.70        72.78044
513.14        72.86346
513.58        72.95361
514.02        73.03001
514.46        73.09711
514.90        73.14772
515.34        73.15147
515.78        73.09673
516.22        73.05008
516.66        73.01342
517.10        72.83816
517.54        72.53369
517.98        72.66946
518.42          72.493
518.86        72.61926
519.30        72.80843
519.74        73.10999
520.18        73.43597
520.62        73.61491
521.06        73.63024
521.50        73.56767
521.93        73.47112
522.37         73.3755
522.81        73.31447
523.25         73.2888
523.69        73.31599
524.13        73.41103
524.57        73.56812
525.01        73.78528
525.45        73.99976
525.89         74.1068
526.32        74.07516
526.76        73.92847
527.20        73.73338
527.64        73.61889
528.08        73.63182
528.52        73.67644
528.96        73.66211
529.40        73.65321
529.83        73.67051
530.27        72.95921
530.71        73.04563
531.15        72.89871
531.59        72.97638
532.03        73.18367
532.46        73.49232
532.90        73.81984
533.34        74.10539
533.78        74.36784
534.22         74.5405
534.66        74.53285
535.09        74.33244
535.53          73.995
535.97        73.61491
536.41        73.36921
536.85        73.30808
537.28        73.39178
537.72        73.54044
538.16        73.63184
538.60        73.62798
539.04        73.50829
539.47         73.3248
539.91        73.35163
540.35        73.52615
540.79        73.51376
541.22        73.31509
541.66        73.23254
542.10        73.26489
542.54        73.22977
542.97        73.16048
543.41        73.22098
543.85        73.40647
544.29        73.68821
544.72         73.9286
545.16        73.94745
545.60        73.70696
546.04        73.25939
546.47        72.80997
546.91        72.70725
547.35        72.99759
547.79         73.5882
548.22        74.19415
548.66        74.34991
549.10        73.98333
549.53        73.30724
549.97        72.61961
550.41        72.25281
550.84        72.30698
551.28        72.68976
551.72        73.20495
552.15         73.4982
552.59        73.47746
553.03        73.26751
553.46        72.98118
553.90        72.83514
554.34        72.86911
554.77        72.96423
555.21        73.07106
555.65        73.10453
556.08        73.42374
556.52        72.90757
556.96        73.33546
557.39        73.08607
557.83        72.78234
558.27        72.75624
558.70        73.02738
559.14        73.27274
559.57         73.4343
560.01        73.73833
560.45        74.06218
560.88        74.08774
561.32        73.82712
561.75        73.41094
562.19        73.00681
562.63        72.61915
563.06        72.36787
563.50        72.55866
563.93         73.0324
564.37        73.30973
564.80         73.2795
565.24         73.1398
565.68        72.96671
566.11         72.8643
566.55        72.90948
566.98        73.01077
567.42        73.13783
567.85        73.26766
568.29        73.46982
568.72        73.41042
569.16        73.31421
569.60        73.71117
570.03        74.27508
570.47         74.2438
570.90        73.85437
571.34        72.38673
571.77        73.22905
572.21         72.9157
572.64        72.52785
573.08        71.45168
573.51        68.39565
573.95        71.00597
574.38        75.29527
574.82        73.65413
575.25        73.15116
575.69        70.61086
576.12        69.40199
576.56        68.74039
576.99        70.67007
577.42        73.40827
577.86        73.47884
578.29        72.55476
578.73        76.27076
579.16        70.55636
579.60        64.70325
580.03        67.50951
580.47        72.08092
580.90        73.66483
581.33        72.28282
581.77        71.38519
582.20          78.239
582.64        77.76003
583.07        66.58572
583.51        65.41077
583.94        64.28184
584.37        67.32773
584.81        70.97442
585.24        74.67153
585.68        76.13725
586.11        74.64987
586.54        69.75809
586.98        67.57172
587.41        67.83292
587.85        71.77594
588.28        74.20002
588.71        70.81647
589.15        68.42641
589.58        70.04288
590.01        70.35905
590.45        71.54437
590.88        72.40221
591.31        71.76037
591.75        71.34366
592.18        71.40507
592.61        72.93507
593.05        73.31045
593.48        76.21565
593.91        77.06466
594.35        70.46387
594.78        69.04697
595.21        68.75238
595.65        72.00526
596.08        74.89184
596.51        71.97815
596.94        69.75054
597.38        70.36944
597.81        73.23323
598.24        75.23074
598.68        73.60243
599.11        72.45947
599.54        75.34747
599.97         76.8441
600.41        71.16326
600.84        71.21102
601.27        72.75932
601.70        71.92418
602.14        72.07371
602.57         71.0149
603.00        71.33862
603.43        73.20067
603.87        74.63457
604.30        74.22612
604.73        71.87605
605.16        70.40628
605.60        71.53622
606.03        72.78639
606.46        73.94184
606.89        73.29324
607.32        71.05703
607.76        71.20018
608.19        73.40732
608.62        72.57265
609.05        71.36748
609.48        72.01572
609.92        72.06903
610.35        71.48946
610.78         73.5241
611.21        74.19062
611.64        70.91302
612.07        71.76099
612.50        72.29724
612.94        72.75367
613.37        71.98425
613.80        72.44623
614.23        72.61054
614.66        72.51828
615.09        72.74738
615.52        72.77245
615.96        72.69991
616.39        72.76742
616.82        71.75215
617.25        71.40977
617.68         72.1519
618.11        72.68107
618.54        72.93672
618.97        72.54962
619.40        71.76926
619.84        71.51677
620.27        72.79276
620.70        73.53558
621.13        73.83091
621.56        73.27371
621.99        72.20735
622.42        72.92733
622.85        74.90598
623.28        74.50239
623.71        73.68905
624.14        73.67717
624.57        73.34922
625.00        73.24156
625.43         73.2755
625.86        72.65784
626.29        72.91655
626.72        73.19381
627.15        73.10933
627.58        73.29974
628.01        73.51346
628.44        73.69714
628.87        73.84191
629.30        74.04735
629.73        74.31506
630.16        74.28899
630.59        73.98291
631.02        73.54038
631.45        73.09731
631.88        72.82047
632.31        72.76337
632.74        72.87815
633.17        73.08331
633.60         73.2527
634.03        73.34196
634.46        73.31165
634.89        73.32628
635.32        73.30434
635.75         73.3042
636.18        73.29568
636.61         73.2972
637.04        73.34724
637.47        73.44434
637.89        73.59126
638.32        73.71638
638.75        73.74722
639.18        73.66761
639.61        73.51042
640.04        73.32032
640.47        73.16843
640.90        73.08293
641.33        73.03829
641.76        73.01348
642.18        73.07803
642.61        73.22064
643.04        73.25865
643.47        73.12031
643.90        73.64008
644.33        73.28959
644.76        73.30887
645.18         73.2607
645.61        73.19267
646.04        73.10098
646.47        72.96941
646.90        72.87571
647.33        72.88829
647.75        73.03249
648.18        73.33274
648.61        73.59201
649.04        73.48729
649.47         72.9921
649.89        72.12913
650.32        71.31126
650.75        71.23284
651.18        71.88961
651.61        72.76377
652.03        73.44611
652.46        73.51924
652.89        73.26241
653.32        72.55573
653.74        71.87949
654.17        72.80906
654.60        73.73013
655.03        71.21942
655.46        72.07341
655.88        75.96014
656.31        81.11705
656.74        181.2909
657.16        117.1407
657.59        41.27021
658.02        31.43624
658.45        54.78438
658.87        70.31094
659.30        73.60196
659.73        72.98022
660.15        69.77322
660.58        72.82251
661.01        74.61993
661.44        72.28972
661.86        71.39053
662.29        71.17996
662.72        72.03477
663.14         73.6392
663.57        73.66364
664.00        72.35473
664.42         72.0813
664.85        72.91979
665.27        73.36012
665.70        73.20865
666.13        73.00302
666.55        72.73813
666.98         72.2587
667.41        71.74056
667.83        71.52837
668.26        71.69195
668.69        72.09966
669.11        72.52134
669.54        72.93536
669.96         72.5836
670.39        72.13103
670.82        71.59577
671.24        71.34939
671.67        71.51067
672.09        71.97028
672.52        72.43459
672.94        72.93088
673.37        72.20361
673.80        71.96124
674.22        71.92478
674.65        71.86723
675.07        71.78664
675.50        71.69463
675.92        71.63158
676.35        71.69502
676.77        71.88803
677.20        72.09929
677.62        72.29318
678.05        72.41876
678.47        72.44748
678.90        72.40787
679.32        72.34003
679.75        72.17564
680.17        72.21918
680.60        72.22937
681.02        72.24107
681.45        72.15108
681.87        71.95863
682.30        71.68957
682.72        71.44772
683.15        71.41495
683.57         71.6318
684.00        71.94804
684.42        72.37102
684.85        72.54794
685.27        72.46125
685.70         72.1967
686.12        71.85464
686.54         71.6434
686.97        71.60521
687.39        71.69466
687.82        71.83781
688.24        71.96711
688.66        72.03161
689.09        72.06081
689.51        72.09341
689.94        72.16014
690.36        72.27666
690.78        72.41093
691.21         72.5266
691.63        72.58918
692.06        72.58532
692.48        72.51653
692.90        72.42674
693.33        72.38479
693.75        72.41156
694.17        72.49488
694.60        72.59586
695.02        72.65814
695.44        72.63464
695.87        72.63753
696.29        72.72614
696.71         72.5715
697.14        72.41187
697.56        72.83804
697.98        73.67581
698.41        73.39927
698.83         72.7842
699.25         72.4188
699.68        72.55565
700.10        72.54227
700.52        72.38245
700.94        72.48827
701.37        72.75686
701.79        73.05312
702.21        73.28581
702.64        73.51854
703.06         73.6725
703.48        73.61366
703.90        73.34483
704.33        72.90395
704.75          72.428
705.17        72.22867
705.59        72.38054
706.01        72.68153
706.44        72.95987
706.86        73.56422
707.28        73.44798
707.70        73.43902
708.12        73.31326
708.55        73.18042
708.97        73.05177
709.39         72.9028
709.81        72.78778
710.23        72.78897
710.66        72.91728
711.08        73.18223
711.50        73.44517
711.92        73.49704
712.34        73.29762
712.76        72.89421
713.19        72.45857
713.61        72.30633
714.03        72.49223
714.45        72.92404
714.87        73.38727
715.29        73.53774
715.71        73.30216
716.13        72.79922
716.56        72.22702
716.98        71.93371
717.40        72.00411
717.82        72.32732
718.24        72.75867
718.66        73.05031
719.08        73.12038
719.50        73.05781
719.92        72.91737
720.34        72.77335
720.76        72.68375
721.19        72.56406
721.61        72.63369
722.03        72.68038
722.45        72.75715
722.87        72.89942
723.29        73.08193
723.71        73.22772
724.13        73.31365
724.55        73.35449
724.97        73.35402
725.39        73.32684
725.81        73.28268
726.23        73.21828
726.65        73.15324
727.07        73.11678
727.49        73.12162
727.91         73.1757
728.33        73.25779
728.75        73.32787
729.17        73.37104
729.59        73.38316
730.01        73.41331
730.43        73.53268
730.85        73.75237
731.27        74.07458
731.69        74.37898
732.10        74.45166
732.52        74.25368
732.94        73.89157
733.36         73.5693
733.78        73.47549
734.20        73.66294
734.62         74.3838
735.04        75.34788
735.46        75.34853
735.88         74.6162
736.30        74.81167
736.72        75.90952
737.13        76.40797
737.55        76.02001
737.97        75.79509
738.39         75.8109
738.81        75.01019
739.23        73.85425
739.65        74.67109
740.06        76.93505
740.48        77.18796
740.90        75.51996
741.32        74.80342
741.74        75.28138
742.16        75.49453
742.57        75.48872
742.99        76.07468
743.41        77.07277
743.83        77.73688
744.25          77.938
744.67        77.85749
745.08        77.67392
745.50        77.67536
745.92        77.95229
746.34        78.39127
746.75        78.84756
747.17        79.08145
747.59        79.05963
748.01        78.86578
748.42        78.67982
748.84        78.79139
749.26        79.27224
749.68        79.92735
750.09        80.59138
750.51        81.19379
750.93        81.56898
751.35        81.28465
751.76        80.56422
752.18         80.3436
752.60        80.63292
753.01        80.70601
753.43        80.55794
753.85        80.71072
754.27        81.17953
754.68        81.73531
755.10        82.24842
755.52        82.66936
755.93        82.92662
756.35        82.96825
756.77        82.92592
757.18        82.89645
757.60        82.91062
758.02        83.32088
758.43        83.80151
758.85        83.20222
759.26        81.49506
759.68        81.39973
760.10        82.61595
760.51        83.25739
760.93        82.96211
761.34        81.91583
761.76         81.2086
762.18        80.75463
762.59        80.91403
763.01        81.27529
763.42        81.78327
763.84        82.31359
764.26        82.80965
764.67        83.02473
765.09        82.95617
765.50        83.12061
765.92        83.30899
766.33        82.17393
766.75        80.27107
767.16        79.75065
767.58        80.79458
768.00        82.28097
768.41        83.82003
768.83         85.1799
769.24        85.77135
769.66        84.88605
770.07        83.13383
770.49        81.55034
770.90        80.56541
771.32        81.52928
771.73        83.72913
772.15        83.21744
772.56        80.46605
772.97        79.93115
773.39        81.53204
773.80        82.05142
774.22        81.28619
774.63        81.21808
775.05        81.78741
775.46        82.05621
775.88        81.91693
776.29        81.64132
776.70        81.35301
777.12        81.27882
777.53        81.48198
777.95        81.82512
778.36        82.13759
778.77        82.12778
779.19        81.78336
779.60        81.20942
780.02        80.63358
780.43        80.51709
780.84        81.00303
781.26        81.42157
781.67        81.74023
782.09         83.0307
782.50        84.64438
782.91        83.69627
783.33        80.93912
783.74        80.01482
784.15        81.11067
784.57        81.87788
784.98        81.96433
785.39        81.99171
785.81        81.87012
786.22        81.28014
786.63        80.58244
787.04        80.46455
787.46        81.00301
787.87        81.97891
788.28        83.03945
788.70        83.58016
789.11        83.44795
789.52        82.85819
789.93         82.1089
790.35        81.60644
790.76        81.47954
791.17        81.65952
791.58        82.00666
792.00        82.23511
792.41        82.24973
792.82        82.16197
793.23        82.15582
793.65        82.07789
794.06        82.10778
794.47        83.25789
794.88        84.77142
795.29        84.18592
795.71        81.77585
796.12        79.50874
796.53        78.12901
796.94        77.92638
797.35        78.94794
797.76        80.55869
798.18        82.04967
798.59        83.00489
799.00        83.04808
799.41        81.92455
799.82        80.24149
800.23        79.31441
800.64         79.4147
801.06        80.06344
801.47        81.00979
801.88        81.71719
802.29        81.97794
802.70        82.01014
803.11        81.87486
803.52        81.63177
803.93        81.34777
804.34        80.95105
804.75        80.59288
805.17         80.5809
805.58        80.99327
805.99        81.61707
806.40        82.17886
806.81        82.53975
807.22        82.42149
807.63        81.20334
808.04        79.41845
808.45        78.55348
808.86        78.80482
809.27        79.52435
809.68        80.35339
810.09        80.85692
810.50        80.83348
810.91        80.44241
811.32        79.91347
811.73        79.61388
812.14        79.64704
812.55        79.84193
812.96        80.15532
813.37          80.516
813.78        80.85574
814.19        81.24763
814.60        81.48113
815.01        81.21943
815.42        80.44212
815.83        79.21323
816.24        77.99266
816.65        77.59227
817.05        78.24673
817.46        79.69644
817.87        81.33316
818.28        82.05614
818.69        81.56593
819.10        80.13786
819.51         78.4581
819.92        77.69407
820.33        78.15112
820.74        79.47021
821.14        81.00275
821.55         81.5976
821.96        81.00231
822.37        79.61628
822.78        78.02766
823.19        77.09366
823.60        77.04707
824.00        77.67614
824.41        78.56045
824.82        79.10229
825.23        79.06327
825.64        78.66412
826.04        78.16473
826.45        77.93391
826.86        78.06111
827.27        78.38172
827.68        78.75108
828.08        78.98207
828.49        78.94094
828.90        78.76289
829.31        78.48334
829.72         78.1561
830.12        77.86283
830.53        77.56641
830.94        77.39967
831.35        77.53375
831.75        78.02293
832.16        78.76263
832.57        79.59338
832.97        80.15437
833.38        80.25246
833.79        79.97276
834.20        79.52281
834.60         79.2237
835.01        79.19212
835.42        79.35069
835.82        79.52291
836.23        79.32999
836.64         78.7466
837.04        77.91775
837.45        77.16596
837.86        76.99703
838.26         77.5164
838.67        78.52486
839.08        79.67028
839.48        80.31724
839.89         80.2401
840.29        79.65391
840.70        78.83127
841.11        78.17538
841.51         77.8217
841.92        77.61655
842.33        77.54475
842.73        77.59702
843.14        77.70252
843.54        77.93594
843.95        78.12539
844.35        78.03241
844.76        77.61343
845.17        76.95618
845.57         76.2838
845.98        75.95876
846.38        76.05853
846.79         76.4483
847.19        76.99171
847.60        77.34142
848.00         77.4196
848.41        77.30602
848.81        77.09688
849.22        76.86074
849.62        76.69353
850.03        76.56865
850.43        76.57341
850.84        76.78624
851.24        77.25039
851.65        77.75233
852.05         78.3594
852.46        78.98936
852.86        79.58833
853.27        80.20995
853.67        80.37824
854.07        79.49535
854.48         77.6377
854.88        75.03609
855.29        72.59957
855.69        71.64553
856.10        72.42153
856.50        74.76685
856.90        77.83148
857.31        79.62799
857.71        79.51067
858.12        77.98457
858.52        75.98749
858.92        74.76817
859.33        74.60305
859.73        75.14338
860.13        76.13982
860.54        77.06905
860.94         77.7524
861.34        78.33244
861.75        78.78799
862.15        79.16464
862.55        79.43986
862.96        79.51797
863.36        79.48869
863.76        79.50586
864.17        79.61327
864.57        79.85989
864.97        80.13851
865.38        80.25359
865.78        80.22725
866.18         80.0428
866.58        79.90828
866.99        80.16219
867.39        80.92761
867.79        82.13486
868.19        83.33221
868.60        83.67368
869.00        82.95479
869.40        81.41009
869.80        79.85963
870.21        79.59358
870.61        80.99506
871.01        83.67432
871.41        86.71025
871.81        88.52752
872.22        88.67423
872.62        87.60209
873.02        86.14355
873.42         85.7384
873.82        86.57055
874.22        87.97273
874.63        89.44422
875.03        89.95694
875.43        89.08407
875.83        88.00802
876.23        86.01761
876.63        85.28392
877.03        85.90409
877.44        88.14331
877.84        102.3409
878.24        96.41034
878.64        96.44173
879.04        95.24519
879.44        91.58499
879.84        89.52753
880.24        92.29548
880.64        93.97415
881.04        94.95972
881.44        95.26918
881.84        94.31908
882.24         92.5105
882.65        90.89616
883.05        90.51039
883.45        91.51569
883.85        93.79597
884.25        96.52129
884.65        98.00164
885.05        97.72269
885.45        96.28088
885.85        94.52167
886.25        93.60486
886.65        93.79767
887.05        94.68616
887.45        95.95892
887.85        97.06297
888.25        97.72863
888.65        98.17744
889.04        98.31834
889.44         98.0312
889.84        97.36327
890.24        96.33008
890.64        95.32825
891.04        95.00014
891.44        95.44527
891.84        96.49868
892.24        97.71801
892.64        98.26107
893.04        97.94378
893.44        97.12819
893.83        96.18889
894.23        95.68285
894.63        95.72236
895.03        96.02543
895.43        96.65326
895.83        97.70824
896.23        99.07664
896.63        100.7615
897.02        102.0478
897.42        101.7599
897.82        99.79971
898.22        96.61322
898.62         93.4032
899.01        91.94439
899.41        92.58107
899.81        94.68848
900.21        97.32089
900.61        98.92458
901.00        99.05226
901.40        98.24326
901.80        96.98569
902.20        96.03246
902.59        95.65405
902.99        95.55099
903.39        95.70801
903.79        96.13591
904.18        96.75512
904.58        97.63282
904.98        98.50491
905.38        98.92871
905.77        98.80833
906.17        98.24862
906.57        97.53661
906.96        97.17866
907.36        97.22725
907.76        97.56228
908.15        97.92805
908.55        97.78515
908.95         97.0779
909.34         95.9647
909.74         94.8569
910.14        94.20349
910.53        94.16077
910.93        94.63969
911.33        95.43011
911.72        96.16766
912.12        96.62038
912.52        96.81283
912.91        96.94582
913.31        97.31313
913.70        98.00975
914.10         98.9662
914.49         99.7766
914.89        99.40396
915.29        97.68095
915.68        95.08587
916.08          92.786
916.47        91.81213
916.87        92.25147
917.26        93.75725
917.66        95.55716
918.05        96.40926
918.45        95.95645
918.84         94.6167
919.24        93.11112
919.64        92.48141
920.03        93.00832
920.42        94.33967
920.82        95.95409
921.21        97.11679
921.61        97.41301
922.00        97.14771
922.40        96.51436
922.79        95.75612
923.19        95.04424
923.58        94.25266
923.98        93.42255
924.37        92.91068
924.77        92.96834
925.16        92.07819
925.55        93.02573
925.95        93.91109
926.34        95.47608
926.74        97.33814
927.13        98.99883
927.52        99.39662
927.92        98.45058
928.31        96.52595
928.70        94.21286
929.10        92.51893
929.49        91.70535
929.89        91.51804
930.28        91.94685
930.67        92.95798
931.07        94.28871
931.46        96.00497
931.85        97.45036
932.24        97.65289
932.64        96.48154
933.03        94.06495
933.42        91.04992
933.82        88.96087
934.21          88.261
934.60        88.60165
934.99        89.33404
935.39        89.73631
935.78        89.69522
936.17        89.15971
936.56        87.96481
936.96        88.52099
937.35        87.43954
937.74        87.46408
938.13        87.67416
938.53        88.47553
938.92        89.89249
939.31         91.9892
939.70        94.21053
940.09        94.95398
940.49        93.72729
940.88        91.21559
941.27        88.58411
941.66        87.19796
942.05        87.23952
942.44        88.26778
942.84         89.8451
943.23        91.28065
943.62        92.16582
944.01        92.67674
944.40        92.83279
944.79        92.66485
945.18        92.19434
945.57        91.29898
945.97         90.0096
946.36        88.66547
946.75         87.6207
947.14        86.98788
947.53        86.73615
947.92        86.70725
948.31        86.83949
948.70        87.19424
949.09        87.73679
949.48        88.33517
949.87        88.86552
950.26          89.219
950.65        89.47717
951.04        89.84662
951.43        90.33861
951.82        90.87677
952.21        91.11628
952.60        90.53979
952.99        89.10683
953.38        87.04023
953.77         84.9316
954.16        83.60823
954.55        83.25308
954.94        83.72902
955.33        84.45099
955.72        84.40788
956.11        83.37048
956.50         81.5974
956.89        79.93945
957.28         79.9398
957.66        82.03784
958.05        85.46037
958.44        89.04653
958.83        91.10926
959.22        91.21993
959.61        89.80573
960.00        87.63484
960.39         85.9732
960.78        85.24248
961.16        85.16915
961.55        85.19503
961.94        84.39893
962.33         82.6497
962.72        80.42563
963.11        78.49379
963.49        77.79376
963.88        78.46161
964.27        80.27019
964.66        82.52749
965.04        83.75033
965.43        83.29371
965.82        81.68651
966.21        79.89432
966.60        79.18554
966.98        79.80608
967.37        81.32807
967.76        83.15816
968.15        84.14589
968.53        83.90605
968.92         82.8185
969.31         81.4891
969.69        80.68439
970.08         80.5935
970.47        81.00265
970.86        81.53153
971.24        81.54306
971.63        80.84213
972.02        79.61957
972.40        78.42847
972.79        78.19981
973.17         79.3068
973.56        81.38289
973.95        83.70485
974.33        84.87354
974.72        84.37926
975.11        82.65917
975.49        80.62673
975.88        79.54175
976.26        79.59628
976.65        80.52304
977.04        81.55051
977.42         80.9296
977.81        78.22292
978.19        74.28082
978.58        71.01852
978.96        70.31049
979.35         72.4043
979.74        76.92435
980.12        82.86435
980.51        86.70739
980.89        87.24126
981.28        85.31612
981.66        82.47723
982.05        80.74333
982.43        80.48715
982.82         81.0414
983.20        82.06707
983.59        83.18288
983.97        84.29256
984.35        85.58875
984.74         86.7628
985.12        87.41219
985.51         87.0906
985.89        85.78162
986.28         83.6967
986.66          81.135
987.04        78.70457
987.43        76.72213
987.81        75.20923
988.20        74.00977
988.58        72.92237
988.96          71.626
989.35        70.76797
989.73        72.50482
990.12        77.23846
990.50        83.52943
990.88        87.85323
991.27         87.9472
991.65        84.44738
992.03        77.98604
992.42        71.11934
992.80        68.58655
993.18        71.50939
993.56        77.35004
993.95        83.30196
994.33        86.64831
994.71        86.96755
995.10        85.57259
995.48        83.10233
995.86        80.30788
996.24         77.5323
996.63        74.21589
997.01        71.05748
997.39        70.39269
997.77        73.03574
998.15        78.47838
998.54        84.00315
998.92        85.96779
999.30        83.31992
999.68        77.00138
1000.06        68.61158
1000.45        62.31189
1000.83        59.94048
1001.21        60.21735
1001.59        62.36528
1001.97        65.67788
1002.35        69.94955
1002.73        76.19418
1003.12        82.94689
1003.50        85.07996
1003.88        80.26849
1004.26        70.79478
1004.64        61.70247
1005.02        57.48491
1005.40        58.53632
1005.78        64.69425
1006.16        76.17728
1006.54        86.10072
1006.92         87.5746
1007.30        83.82717
1007.69        79.37147
1008.07        76.85782
1008.45        76.05087
1008.83        75.98556
1009.21          75.192
1009.59        64.78663
1009.97        19.17467
1010.35       -62.51291
1010.73       -65.54587
1011.11       -21.09865
1011.49        15.24533
1011.86        41.92247
1012.24        57.31544
1012.62        64.08433
1013.00        65.69404
1013.38        63.92554
1013.76        60.76369
1014.14        62.59907
1014.52        74.65179
1014.90        97.61587
1015.28        125.5112
1015.66        141.0857
1016.04        133.2203
1016.41         105.048
1016.79        70.96577
1017.17        47.18399
1017.55        36.73505
1017.93        33.34071
1018.31        33.59004
1018.69        36.13383
1019.06        40.55421
1019.44        47.09725
1019.82          57.714
1020.20        73.14801
1020.58        93.60165
1020.95         123.398
1021.33        165.2681
1021.71       -200.2944
1022.09        109.6322
1022.46        133.8724
1022.84        146.1995
1023.22        157.7893
1023.60        180.4409
1023.97        384.2134
1024.35        45.05419
1024.73         87.3189
