SpectraSmart Spectrum 2.9.0.0
--------- Device Information -----------
Spectrum Name :  反射率_0
Saving Time :  2024/04/26 01:39:14
Spectro-Module Model Name : SE2030-DUVN
Spectro-Module Serial Number : OS361AC55029948
Wavelength Start : 200
Wavelength End : 1025
Wavelength Unit : Wavelength(nm)
Spectrum Unit : Reflectance(%)
-----------Spectrum Setting ------------
Integration Time : 20ms
Average : 10
Boxcar : 0
Background removal :  enabled
linearity correction :  enabled
SC :  disabled
Intensity correction :  disabled
DWT denoise :  enabled
savitzky-golay :  disabled
FFT :  disabled
Running average :  disabled
Kalman :  disabled
High pass :  disabled
---------------BEGIN--------------------
Wavelength(nm)             Reflectance(%)
200.29               0
200.75        102.8108
201.21        95.71088
201.67        86.73677
202.13         79.9077
202.58        75.94048
203.04        74.11954
203.50        74.05611
203.96        75.16781
204.42        76.82217
204.88        78.83475
205.34        80.96385
205.80        83.29394
206.26        86.39782
206.72        91.60725
207.18        99.99268
207.64        104.3661
208.10        94.51057
208.55        81.03986
209.01        73.41628
209.47        70.99602
209.93        71.37346
210.39        73.85495
210.85        76.65385
211.31        76.00191
211.77        71.10083
212.23        63.55333
212.69        56.69585
213.14        55.77692
213.60        61.46318
214.06        72.12668
214.52        84.47118
214.98        93.42509
215.44        97.26942
215.90        97.35555
216.36        94.95512
216.81        91.74492
217.27        88.92846
217.73        86.18647
218.19        83.13462
218.65        79.02774
219.11        73.19872
219.57        64.77071
220.02        54.54913
220.48        48.36364
220.94        49.43433
221.40        56.56446
221.86        63.35779
222.32         63.0141
222.77        56.32011
223.23        47.12975
223.69         39.3885
224.15        37.15932
224.61        39.93959
225.06        45.69283
225.52        51.42314
225.98        53.44883
226.44         51.1867
226.90         46.2987
227.36        41.00961
227.81        38.27791
228.27        38.97608
228.73        41.81401
229.19        45.48477
229.65        48.07287
230.10        49.05619
230.56        49.17033
231.02        48.95961
231.48        49.01537
231.93        49.41246
232.39        49.87652
232.85        50.26464
233.31        50.45346
233.77        50.39514
234.22        50.22561
234.68        49.88343
235.14        49.19048
235.60        48.23236
236.05        47.14757
236.51        46.33224
236.97        46.30023
237.43        47.23759
237.88        49.28673
238.34        52.21832
238.80        55.20247
239.26        57.49128
239.71        59.03156
240.17        59.90055
240.63        61.09785
241.08        63.03112
241.54        65.36678
242.00        67.64452
242.46        69.36581
242.91        70.87057
243.37        72.54539
243.83         79.0284
244.28        116.4217
244.74        189.8666
245.20        186.4127
245.66        165.4505
246.11        159.6179
246.57        164.8732
247.03        185.6981
247.48        234.9537
247.94        162.4151
248.40        98.45421
248.85        84.36398
249.31        82.36171
249.77        84.51195
250.22        89.54959
250.68        98.65313
251.14        111.9126
251.59        121.3873
252.05        118.6542
252.51        106.9809
252.96        93.48458
253.42        85.33365
253.88        82.27965
254.33        81.93185
254.79        84.41068
255.25        89.17377
255.70        94.77592
256.16        100.8536
256.62        105.1222
257.07        105.2763
257.53        102.2804
257.99        96.89391
258.44        91.03865
258.90        88.02966
259.35        86.96956
259.81        86.86168
260.27        85.80173
260.72        81.93687
261.18        76.18339
261.63        69.39428
262.09        63.28183
262.55        59.06665
263.00        56.67106
263.46        55.54326
263.91        54.74187
264.37        53.62804
264.83        51.94476
265.28        49.82322
265.74        47.71172
266.19        46.00826
266.65        44.98067
267.11         44.3844
267.56        43.84255
268.02         42.9157
268.47        41.46716
268.93        39.64606
269.38        37.73557
269.84        36.45417
270.30        35.98038
270.75        36.11883
271.21        36.40659
271.66        36.14136
272.12        35.17032
272.57        33.72852
273.03        32.26306
273.48        31.35684
273.94        31.15988
274.39        31.40775
274.85        31.77291
275.31         31.7671
275.76        31.26435
276.22        30.46391
276.67        29.55788
277.13        28.92018
277.58        28.57589
278.04        28.43006
278.49         28.2806
278.95        27.91997
279.40        27.28556
279.86        26.53291
280.31        25.76206
280.77        25.23119
281.22        24.94415
281.68        24.83213
282.13        24.79647
282.59        24.74057
283.04        24.62206
283.50        24.51656
283.95        24.37881
284.41        24.16128
284.86        23.86555
285.32        23.51337
285.77        23.24066
286.22        23.31833
286.68        23.74564
287.13        24.39987
287.59        25.02005
288.04        25.20499
288.50        24.91362
288.95        24.26757
289.41        23.53542
289.86        23.01161
290.32        22.83554
290.77        22.90277
291.22        23.14787
291.68        23.42989
292.13        23.71673
292.59        24.07252
293.04        24.55282
293.50        25.23414
293.95        26.11281
294.40        27.12388
294.86        28.19227
295.31        29.22419
295.77         30.2037
296.22        31.16371
296.68        32.13843
297.13        33.14727
297.58        34.21807
298.04        35.35948
298.49        36.59708
298.95        38.02538
299.40        39.64259
299.85        41.41231
300.31        43.26072
300.76        45.06187
301.21        46.74517
301.67        48.36687
302.12        49.86958
302.58        51.27907
303.03        52.59722
303.48        53.85459
303.94        55.21554
304.39         56.8695
304.84        58.84631
305.30          61.069
305.75        63.28176
306.20        65.11376
306.66        66.50972
307.11        67.54402
307.57        68.46162
308.02        69.51209
308.47        70.82171
308.93        72.30638
309.38        73.86415
309.83        75.38869
310.29        76.81552
310.74         78.1427
311.19        79.36421
311.65        80.46732
312.10        81.44343
312.55        82.30042
313.00        83.01277
313.46        83.55804
313.91        83.93296
314.36        84.17566
314.82        84.40761
315.27        84.75795
315.72        85.29373
316.18        85.98397
316.63        86.75088
317.08         87.4149
317.53        87.91711
317.99        88.28857
318.44        88.63165
318.89        89.12683
319.35        89.78883
319.80        90.58267
320.25        91.32592
320.70        91.72496
321.16        91.72261
321.61        91.41654
322.06        91.02571
322.51        90.90034
322.97        91.10399
323.42        91.57108
323.87        92.12242
324.32        92.44701
324.78        92.44904
325.23        92.27165
325.68        92.02557
326.13        91.91821
326.59        91.99279
327.04        92.20535
327.49        92.51675
327.94        92.89664
328.39        93.31318
328.85        93.76361
329.30        94.22198
329.75        94.47268
330.20         94.5016
330.66        94.35822
331.11        94.27519
331.56        94.55438
332.01        95.28236
332.46        96.35158
332.92        97.58244
333.37        98.82761
333.82        99.88692
334.27        100.7992
334.72        101.4579
335.17        101.7134
335.63        101.5791
336.08        101.1547
336.53        100.6856
336.98         100.619
337.43        101.0699
337.88          101.92
338.34        102.9885
338.79        104.0506
339.24        104.9552
339.69         105.785
340.14        106.4391
340.59        106.7513
341.05        106.7273
341.50        106.3899
341.95        106.0182
342.40        106.0616
342.85        106.6105
343.30        107.5598
343.75        108.6181
344.20        109.2574
344.66        109.3414
345.11        109.0058
345.56        108.5245
346.01        108.3122
346.46        108.4785
346.91        108.8979
347.36        109.3808
347.81        109.6395
348.26         109.614
348.72         109.427
349.17        109.2302
349.62        109.3102
350.07        109.7149
350.52        110.3094
350.97        110.9106
351.42        111.2585
351.87        111.2804
352.32        111.0619
352.77        110.6769
353.22        110.2426
353.67        109.8183
354.13        109.3943
354.58        108.9683
355.03        108.5992
355.48        108.2896
355.93        108.0306
356.38        107.7888
356.83         107.497
357.28        107.1283
357.73        106.6959
358.18        106.1848
358.63        105.5766
359.08        104.8877
359.53        104.1392
359.98        103.3865
360.43        102.7172
360.88        102.1429
361.33         101.622
361.78        101.1326
362.23        100.6362
362.68        100.1154
363.13        99.59883
363.58        99.02074
364.03         98.2719
364.48        97.35439
364.93        96.30449
365.38        95.28603
365.83         94.5709
366.28        94.19845
366.73        94.05963
367.18        93.97383
367.63        93.64081
368.08        92.98904
368.53        92.15234
368.98        91.19703
369.43        90.21396
369.88        89.26268
370.33        88.30427
370.78        87.48896
371.23        87.07523
371.68        87.08826
372.13        87.45065
372.58        87.87649
373.03        87.86869
373.48        87.30936
373.93        86.36018
374.38        85.27557
374.83        84.45216
375.28        83.99739
375.72         83.7674
376.17        83.68978
376.62        83.62324
377.07        83.49132
377.52        83.33013
377.97        83.08317
378.42        82.65105
378.87        82.04205
379.32        81.30767
379.77        80.52539
380.22        79.81058
380.67        79.18867
381.11        78.62056
381.56        78.13453
382.01        77.77667
382.46        77.55167
382.91        77.47588
383.36        77.40264
383.81        77.09588
384.26        76.52445
384.71        75.74234
385.15        74.98124
385.60         74.6629
386.05        74.79697
386.50        75.24202
386.95        75.66963
387.40         75.5308
387.85         74.7579
388.29        73.57854
388.74        72.42436
389.19        71.60289
389.64        71.16887
390.09        70.96037
390.54        70.94886
390.98        71.08927
391.43        71.31987
391.88        71.64002
392.33        71.84768
392.78        71.61404
393.23        70.95016
393.67        70.02005
394.12        69.18767
394.57        68.63145
395.02        68.48006
395.47        68.88419
395.91        69.69285
396.36        70.25999
396.81        70.44319
397.26        70.47698
397.71        70.36151
398.15        69.96217
398.60        69.40859
399.05        68.77078
399.50        68.15159
399.95        67.47366
400.39        67.08807
400.84        66.82167
401.29        66.73535
401.74        66.77048
402.18         66.8858
402.63        66.93145
403.08        66.96858
403.53        67.18342
403.97        67.56482
404.42        67.97778
404.87        68.24866
405.32        68.13056
405.76        67.58724
406.21        66.79597
406.66        65.98875
407.11        65.49275
407.55        65.42708
408.00        65.67258
408.45        66.10021
408.90        66.55896
409.34        66.80907
409.79        66.47558
410.24        65.77219
410.68        65.42521
411.13        65.52039
411.58        65.64951
412.03        65.78452
412.47        66.05748
412.92        66.38972
413.37        66.77473
413.81        67.07451
414.26        67.11624
414.71        66.86216
415.15        66.35956
415.60        65.79436
416.05        65.48821
416.49        65.52601
416.94        65.83842
417.39        66.21227
417.83        66.26448
418.28        65.92658
418.73        65.33799
419.17        64.76898
419.62        64.64568
420.07         65.0197
420.51        65.74007
420.96        66.54971
421.41        66.97727
421.85        66.86987
422.30        66.58561
422.74         66.2292
423.19        65.77439
423.64        65.39925
424.08        65.73083
424.53        66.57989
424.98        67.05362
425.42        67.03671
425.87        67.03751
426.31        67.15088
426.76        67.19958
427.21        67.29758
427.65        67.66434
428.10        68.21664
428.54        68.90915
428.99        69.70908
429.44        70.02753
429.88        69.91013
430.33        70.79472
430.77        71.98129
431.22        70.65595
431.66        67.94044
432.11        66.46431
432.56        66.73524
433.00        67.76443
433.45        69.33826
433.89        71.38761
434.34        72.48805
434.78        73.56356
435.23        70.26933
435.67        67.89922
436.12        70.66988
436.57         71.5783
437.01        71.78571
437.46        72.17294
437.90        72.28712
438.35         71.8437
438.79        72.55518
439.24        72.61051
439.68        72.57721
440.13        72.43693
440.57        72.49039
441.02        73.33518
441.46        74.62462
441.91        75.68176
442.35        76.06351
442.80          74.939
443.24        73.00471
443.69        73.53343
444.13        76.01067
444.58        76.61975
445.02        74.38146
445.47        74.08268
445.91        75.33184
446.36        75.75835
446.80        75.29194
447.24          75.136
447.69        75.37312
448.13        75.63743
448.58        75.93728
449.02        76.30006
449.47        76.66959
449.91        76.98512
450.36        77.22807
450.80        77.35565
451.25        77.35259
451.69        77.26749
452.13        77.15896
452.58        76.66428
453.02        76.55824
453.47        76.46043
453.91        76.57442
454.36         76.8367
454.80         77.1847
455.24        77.31477
455.69        77.16328
456.13        77.21106
456.58        77.24611
457.02         76.6004
457.46        75.82905
457.91        76.02517
458.35        77.03249
458.79        77.42484
459.24        77.18672
459.68        76.92257
460.13        76.64817
460.57        76.48045
461.01        76.60054
461.46        75.12302
461.90        75.16039
462.34         75.2752
462.79        74.87994
463.23         74.9035
463.68        75.56475
464.12        75.95718
464.56        76.15853
465.01        76.25508
465.45        76.13409
465.89        76.00388
466.34        75.76521
466.78         74.6925
467.22        73.37798
467.67        72.80989
468.11        74.33073
468.55        75.09264
468.99        75.14516
469.44        74.77506
469.88        74.20737
470.32        74.15645
470.77         74.5565
471.21        74.56232
471.65        74.13304
472.10        73.93055
472.54        74.01588
472.98        74.09806
473.42        74.15689
473.87        74.51306
474.31        74.92814
474.75        74.58524
475.20        73.77345
475.64        73.41795
476.08         74.3003
476.52        74.41264
476.97        73.91556
477.41        74.05784
477.85        74.56011
478.29        73.86834
478.74        74.80263
479.18        74.69701
479.62        73.32029
480.06        73.76105
480.50        74.10282
480.95        74.59505
481.39        74.74001
481.83        73.57946
482.27        73.94122
482.72        73.69894
483.16        72.34595
483.60        72.67722
484.04        74.28583
484.48        74.78381
484.93        74.65581
485.37        76.19859
485.81        76.96252
486.25         75.4103
486.69        102.9144
487.14        82.96957
487.58        51.61045
488.02        63.19112
488.46        71.91396
488.90         71.6012
489.34        73.01107
489.79        71.98783
490.23        74.35601
490.67        75.31747
491.11        74.31688
491.55        74.24387
491.99        74.67811
492.43        74.47396
492.88        73.74429
493.32        73.74857
493.76        73.95837
494.20        74.27522
494.64        74.43259
495.08        74.69386
495.52        75.05175
495.96        75.00027
496.41        74.56268
496.85        74.97745
497.29        75.94775
497.73        74.70834
498.17        72.35958
498.61         72.6581
499.05         75.5293
499.49         76.0523
499.93        75.82987
500.37        75.25912
500.82        74.38223
501.26        74.45472
501.70        75.17964
502.14         75.6037
502.58        75.52008
503.02        75.48286
503.46        75.46761
503.90        75.09927
504.34        74.56225
504.78        74.32165
505.22        74.40507
505.66        74.80822
506.10        75.41337
506.54        75.50076
506.98        74.87494
507.42        75.60751
507.86        74.70186
508.30        74.33035
508.74         74.6207
509.18        74.77766
509.62        74.97723
510.06        75.06367
510.50        75.03447
510.94        74.90073
511.38        74.75459
511.82        74.75479
512.26         74.9277
512.70        75.21664
513.14        75.51836
513.58        75.67109
514.02        75.62865
514.46        75.43851
514.90        75.19507
515.34        75.03278
515.78        74.98126
516.22        75.05444
516.66        75.18517
517.10        75.11969
517.54        74.83294
517.98        74.89165
518.42         74.6385
518.86        74.68891
519.30        74.84052
519.74        75.10702
520.18        75.41499
520.62        75.64295
521.06        75.76113
521.50        75.80175
521.93        75.77714
522.37        75.70578
522.81        75.61326
523.25        75.49844
523.69        75.40895
524.13        75.42005
524.57        75.54161
525.01         75.7501
525.45        75.98731
525.89        76.15509
526.32        76.21236
526.76        76.17974
527.20        76.08045
527.64        75.97319
528.08         75.8986
528.52        75.78636
528.96        75.60091
529.40        75.50143
529.83        75.53026
530.27        74.87822
530.71        75.08141
531.15        75.03416
531.59        75.18732
532.03        75.46223
532.46        75.80856
532.90        76.10583
533.34        76.29478
533.78        76.40486
534.22        76.43006
534.66        76.37505
535.09        76.24037
535.53        76.05188
535.97        75.83633
536.41        75.66102
536.85        75.55116
537.28        75.50542
537.72        75.49558
538.16        75.48383
538.60        75.45979
539.04        75.37406
539.47        75.25773
539.91          75.361
540.35        75.60446
540.79        75.65101
541.22        75.49808
541.66        75.44895
542.10        75.50127
542.54        75.46996
542.97        75.38245
543.41        75.39942
543.85        75.51924
544.29        75.71845
544.72        75.88874
545.16        75.88081
545.60        75.65696
546.04        75.29867
546.47        74.96999
546.91        74.84415
547.35        75.00701
547.79        75.63644
548.22        76.40532
548.66        76.56779
549.10        76.05047
549.53        75.22779
549.97        74.46766
550.41         74.1432
550.84        74.36789
551.28        75.02713
551.72        75.84777
552.15        76.34277
552.59        76.37649
553.03        76.10661
553.46        75.68899
553.90        75.41661
554.34        75.36313
554.77        75.38644
555.21        75.42979
555.65        75.48205
556.08        75.82847
556.52        75.29462
556.96        75.72663
557.39        75.67936
557.83        75.70885
558.27        75.74782
558.70        75.82372
559.14        75.99573
559.57        76.22654
560.01         76.4368
560.45        76.57641
560.88        76.72424
561.32        76.80756
561.75        76.50113
562.19        75.96519
562.63         75.4813
563.06        75.19862
563.50        75.34422
563.93        75.76762
564.37        76.00666
564.80        75.95213
565.24        75.81397
565.68         75.6509
566.11        75.55738
566.55         75.6204
566.98        75.68909
567.42        75.77364
567.85        76.09859
568.29        76.59106
568.72        76.57264
569.16        76.29795
569.60        76.62303
570.03        77.19309
570.47        77.18383
570.90        76.89175
571.34        75.10438
571.77        75.82524
572.21        76.09168
572.64        75.64172
573.08        74.49873
573.51        71.44137
573.95         74.2111
574.38        78.88232
574.82        76.65144
575.25        76.28087
575.69        73.71423
576.12        72.62069
576.56        71.82761
576.99        72.88476
577.42        76.83808
577.86        77.08383
578.29        75.90237
578.73        80.48783
579.16        73.95881
579.60        67.66698
580.03         70.6284
580.47        75.26159
580.90        76.80393
581.33        75.51877
581.77        74.44072
582.20        81.91883
582.64         81.7096
583.07        69.76987
583.51        68.22926
583.94        67.20839
584.37        70.12691
584.81        73.58711
585.24        77.44583
585.68        79.23165
586.11        78.17203
586.54        72.80271
586.98        70.28371
587.41        71.11901
587.85        75.03382
588.28        77.65861
588.71         73.8952
589.15        71.49768
589.58        72.94653
590.01        73.25462
590.45        74.33647
590.88        75.22044
591.31        74.40635
591.75         73.7463
592.18        73.84009
592.61        75.78806
593.05        75.84242
593.48        79.33499
593.91        80.19296
594.35        73.84207
594.78        71.93372
595.21        71.67201
595.65        74.97875
596.08        78.16525
596.51        74.99789
596.94        72.78802
597.38        73.39648
597.81        76.34566
598.24        78.60641
598.68        76.69232
599.11        75.70903
599.54        78.52674
599.97        79.93256
600.41        74.76006
600.84        74.89526
601.27        76.26189
601.70        75.27813
602.14        75.18514
602.57        74.01942
603.00        74.48729
603.43        76.36044
603.87        78.09501
604.30        77.79512
604.73        75.69887
605.16        73.93694
605.60        74.76292
606.03        75.86351
606.46        77.05651
606.89        77.09611
607.32        74.61646
607.76        74.51125
608.19        77.13126
608.62        76.18317
609.05         74.8517
609.48        75.35782
609.92        75.23162
610.35        74.66633
610.78        77.52434
611.21        77.66724
611.64        74.58112
612.07        75.21902
612.50        75.57597
612.94        76.04855
613.37         75.5189
613.80         75.6594
614.23        76.35668
614.66        76.19775
615.09          76.283
615.52        76.29816
615.96        76.35722
616.39        76.46504
616.82        75.31719
617.25         74.9382
617.68        75.60075
618.11        76.28382
618.54        76.83955
618.97        76.40711
619.40        75.36331
619.84        75.31211
620.27        76.21573
620.70        76.92766
621.13        77.22798
621.56        76.62889
621.99        75.47548
622.42        76.43897
622.85        78.20626
623.28        77.81676
623.71        77.26522
624.14        77.16995
624.57        77.24657
625.00        76.86361
625.43        77.11069
625.86         76.2015
626.29        76.03114
626.72        76.71186
627.15        76.26535
627.58        76.67619
628.01        77.04211
628.44        77.17253
628.87        77.19615
629.30        76.83898
629.73        77.40063
630.16        77.91427
630.59        77.11737
631.02        76.52191
631.45        76.25473
631.88        75.98428
632.31        75.87745
632.74        75.94913
633.17        76.15775
633.60        76.36665
634.03        76.52608
634.46         76.6664
634.89        76.76067
635.32        76.77448
635.75        76.70992
636.18        76.56645
636.61        76.40897
637.04        76.34634
637.47        76.39121
637.89        76.56007
638.32        76.77746
638.75        76.84556
639.18        76.70557
639.61         76.8711
640.04        76.55042
640.47        76.45276
640.90        76.36002
641.33        76.27458
641.76        76.17543
642.18        76.15835
642.61        76.23079
643.04        76.19026
643.47        75.99091
643.90        76.54176
644.33         76.2563
644.76        76.41147
645.18        76.49972
645.61        76.48186
646.04        76.33393
646.47        76.06641
646.90        75.82472
647.33        75.76289
647.75        75.93409
648.18        76.37917
648.61        76.85881
649.04        76.75969
649.47        76.44171
649.89         75.4772
650.32        74.49104
650.75        74.46527
651.18        75.35474
651.61         76.3222
652.03        76.89729
652.46        76.79514
652.89        76.41892
653.32        75.73914
653.74        75.16226
654.17        76.70276
654.60        77.00684
655.03        74.61845
655.46        76.15192
655.88         80.0125
656.31        84.97752
656.74        192.1495
657.16        124.9501
657.59         44.0558
658.02        33.12642
658.45        57.39854
658.87        73.61948
659.30        77.14067
659.73        75.99258
660.15        73.05537
660.58        75.89246
661.01        77.88881
661.44        75.56091
661.86        74.87854
662.29        74.93703
662.72        75.67782
663.14        76.85983
663.57        76.70301
664.00        75.51678
664.42        75.29087
664.85        76.10948
665.27        76.69305
665.70        76.79582
666.13        76.75056
666.55        76.52056
666.98        76.00372
667.41        75.40253
667.83        75.10998
668.26        75.21716
668.69        75.57183
669.11        75.94454
669.54        76.34332
669.96        75.98126
670.39        75.53833
670.82        75.02204
671.24        74.83327
671.67        75.07272
672.09        75.55037
672.52        75.97412
672.94        76.50613
673.37        75.75783
673.80        75.54253
674.22        75.52419
674.65        75.45261
675.07        75.32153
675.50         75.1502
675.92        75.01627
676.35        75.07313
676.77        75.33289
677.20        75.66405
677.62          75.984
678.05        76.16262
678.47        76.15146
678.90        76.00513
679.32        75.81235
679.75        75.56769
680.17        75.60572
680.60        75.67223
681.02        75.77033
681.45         75.6824
681.87        75.41327
682.30        75.14582
682.72        74.98407
683.15        74.94041
683.57        75.08951
684.00        75.50796
684.42        76.15189
684.85        76.44216
685.27        76.33309
685.70        76.02812
686.12        75.65242
686.54        75.41206
686.97        75.35928
687.39        75.44981
687.82        75.59331
688.24        75.69933
688.66         75.7138
689.09        75.67628
689.51        75.65032
689.94        75.70895
690.36        75.87688
690.78        76.09058
691.21        76.28925
691.63        76.43874
692.06        76.49622
692.48        76.38755
692.90        76.19333
693.33        76.12065
693.75        76.20073
694.17        76.34628
694.60        76.50857
695.02        76.61419
695.44        76.59832
695.87        76.67689
696.29        76.86475
696.71        76.56171
697.14        75.99609
697.56        76.51997
697.98        77.82841
698.41        77.67352
698.83        76.84348
699.25        76.31586
699.68        76.39672
700.10        76.31163
700.52        76.08321
700.94        76.13721
701.37        76.41921
701.79        76.72536
702.21        76.97215
702.64        77.21708
703.06        77.38241
703.48        77.34052
703.90        77.09312
704.33        76.66357
704.75        76.19344
705.17        75.94433
705.59        76.00087
706.01        76.16735
706.44        76.32689
706.86        76.94433
707.28        76.94135
707.70        77.15265
708.12        77.27036
708.55        77.27747
708.97        77.16962
709.39         77.0087
709.81        76.86536
710.23         76.7998
710.66        76.84115
711.08         77.0274
711.50        77.23732
711.92        77.27496
712.34        77.10416
712.76        76.77142
713.19        76.43272
713.61        76.37286
714.03        76.63259
714.45        77.12418
714.87         77.6259
715.29        77.78717
715.71        77.53576
716.13        76.98822
716.56        76.36577
716.98        76.05757
717.40        76.15878
717.82        76.55454
718.24        77.06717
718.66        77.39379
719.08        77.44247
719.50        77.30594
719.92        77.08743
720.34        76.97147
720.76        77.01286
721.19         77.0168
721.61        77.18206
722.03        77.29534
722.45        77.39913
722.87        77.51195
723.29        77.61932
723.71        77.68266
724.13         77.6945
724.55        77.65762
724.97        77.60794
725.39        77.61183
725.81        77.68101
726.23        77.79593
726.65        77.91331
727.07        77.96014
727.49        77.92619
727.91        77.84667
728.33        77.75732
728.75        77.71902
729.17        77.74774
729.59        77.80944
730.01        77.91472
730.43        78.07254
730.85        78.27747
731.27        78.55136
731.69          78.777
732.10        78.80865
732.52        78.63561
732.94        78.21592
733.36        77.71272
733.78        77.95459
734.20        77.96183
734.62        78.60912
735.04         79.6962
735.46        79.67159
735.88        78.89474
736.30        79.18253
736.72        80.47575
737.13        80.95213
737.55        80.36316
737.97        80.12943
738.39        80.33743
738.81        79.70433
739.23        78.64053
739.65        79.49364
740.06        81.72668
740.48        81.89839
740.90        80.12743
741.32        79.29772
741.74        79.69423
742.16        79.91084
742.57        80.00734
742.99          80.797
743.41         82.0231
743.83        82.78424
744.25        82.91348
744.67        82.63782
745.08        82.20997
745.50        82.03687
745.92        82.25178
746.34        82.71602
746.75        83.23873
747.17        83.50149
747.59        83.44759
748.01        83.18611
748.42        82.95035
748.84        83.08307
749.26        83.66177
749.68        84.54305
750.09        85.47878
750.51         86.0653
750.93        86.20609
751.35        85.95626
751.76        85.49456
752.18        85.31536
752.60        85.41151
753.01        85.30236
753.43        85.04002
753.85        85.11864
754.27        85.56959
754.68        86.25274
755.10        86.85429
755.52        87.37836
755.93        87.69075
756.35         87.7637
756.77        87.75238
757.18        87.75607
757.60        87.80515
758.02        88.31714
758.43        88.96411
758.85        88.26125
759.26        86.54134
759.68        86.56732
760.10        88.39564
760.51        88.89613
760.93        87.87267
761.34        86.86942
761.76        86.22504
762.18        85.69555
762.59        85.48608
763.01        85.70293
763.42        86.56812
763.84        87.28687
764.26        87.83271
764.67        88.28082
765.09        88.48976
765.50        88.44614
765.92        88.04201
766.33        86.51214
766.75        84.51551
767.16        83.91058
767.58        84.88702
768.00        86.67382
768.41        88.78686
768.83         90.2327
769.24        90.46449
769.66        89.77415
770.07         88.6184
770.49        86.89525
770.90        85.18903
771.32        86.00618
771.73        88.62363
772.15        88.18792
772.56        85.19334
772.97         84.6927
773.39        86.55817
773.80        87.39713
774.22         86.5188
774.63         86.4398
775.05        86.99844
775.46        87.27215
775.88        87.15985
776.29        86.91971
776.70        86.66456
777.12        86.60024
777.53        86.78838
777.95        87.10744
778.36        87.37782
778.77        87.28667
779.19        86.82552
779.60        86.10522
780.02         85.4165
780.43        85.28336
780.84        85.85332
781.26        86.52023
781.67        87.15681
782.09        88.43278
782.50        89.76547
782.91        88.82342
783.33        86.32338
783.74         85.4278
784.15        86.31393
784.57        86.88677
784.98        86.85917
785.39        86.84437
785.81        86.77036
786.22        86.30016
786.63        85.75805
787.04        85.78693
787.46        86.44271
787.87        87.51324
788.28        88.62076
788.70         89.1261
789.11        88.87901
789.52        88.10687
789.93        87.17415
790.35        86.58711
790.76        86.49761
791.17        86.82107
791.58        87.35386
792.00        87.69459
792.41        87.71592
792.82        87.54491
793.23        87.43742
793.65        87.36933
794.06        87.52872
794.47        88.86449
794.88        90.53627
795.29        89.94147
795.71        87.36109
796.12        84.87809
796.53        83.28653
796.94        82.91726
797.35        83.82986
797.76        85.33399
798.18        86.73245
798.59        87.67152
799.00        87.76762
799.41        86.73908
799.82         85.1226
800.23        84.13795
800.64        84.04575
801.06        84.39497
801.47        85.04953
801.88        85.67075
802.29        86.10056
802.70        86.49394
803.11        86.81502
803.52        86.92441
803.93        86.81589
804.34        86.52431
804.75        86.24496
805.17        86.01472
805.58         86.5361
805.99        87.03572
806.40        87.42722
806.81         87.7669
807.22        87.71142
807.63        86.23682
808.04        84.00729
808.45        83.06185
808.86        83.63155
809.27         84.7933
809.68        86.03201
810.09        86.74554
810.50        86.64802
810.91        85.93465
811.32        84.98031
811.73        84.39178
812.14         84.3432
812.55        84.61114
812.96        85.05508
813.37        85.42328
813.78        85.60278
814.19        85.74366
814.60        85.74238
815.01        85.41073
815.42        84.75706
815.83        83.78488
816.24        82.87024
816.65        82.68429
817.05        83.41486
817.46        84.84489
817.87        86.40655
818.28         87.0656
818.69        86.55357
819.10        85.11794
819.51        83.46693
819.92        82.81007
820.33        83.44597
820.74         85.0005
821.14        86.75548
821.55        87.43366
821.96        86.76159
822.37        85.18977
822.78        83.36835
823.19         82.2495
823.60        82.09976
824.00        82.68172
824.41        83.59475
824.82        84.28515
825.23        84.50062
825.64        84.44239
826.04        84.25959
826.45        84.16045
826.86         84.2001
827.27        84.24173
827.68        84.25179
828.08        84.24655
828.49        84.15191
828.90        84.07133
829.31        83.93167
829.72        83.58511
830.12        83.06705
830.53        82.41668
830.94        81.92068
831.35         81.9604
831.75        82.63078
832.16        83.76563
832.57        85.05705
832.97        85.86557
833.38        85.90685
833.79        85.35532
834.20        84.58804
834.60        84.18713
835.01        84.32439
835.42        84.82338
835.82        85.38788
836.23        85.43044
836.64        84.85883
837.04        83.89938
837.45        82.91678
837.86        82.47711
838.26        82.72361
838.67        83.42617
839.08        84.31013
839.48        84.87956
839.89        84.92832
840.29        84.64211
840.70        84.14932
841.11        83.61826
841.51         83.1424
841.92        82.63926
842.33         82.2355
842.73        82.16268
843.14        82.41078
843.54        82.97099
843.95        83.56336
844.35        83.77502
844.76        83.49146
845.17        82.84608
845.57        82.09533
845.98        81.65097
846.38         81.6199
846.79        81.86355
847.19        82.24668
847.60        82.42966
848.00        82.35091
848.41        82.08651
848.81        81.79712
849.22        81.64131
849.62        81.71436
850.03        81.96374
850.43        82.31874
850.84        82.55369
851.24        82.64957
851.65        82.48227
852.05        82.36724
852.46        82.63238
852.86        83.33432
853.27        84.39283
853.67        85.15352
854.07        84.74554
854.48         83.1559
854.88         80.6904
855.29        78.29842
855.69        77.35317
856.10         78.1258
856.50        80.42932
856.90        83.41771
857.31        85.14516
857.71        84.99276
858.12        83.46842
858.52        81.49908
858.92        80.30973
859.33        80.17098
859.73        80.76034
860.13        81.80703
860.54        82.74548
860.94        83.39157
861.34        83.85972
861.75        84.20754
862.15        84.61551
862.55        85.07692
862.96        85.47252
863.36        85.70751
863.76        85.60966
864.17         85.1811
864.57        84.59388
864.97        84.04623
865.38        83.80725
865.78        83.98801
866.18        84.42351
866.58        85.05153
866.99        85.74349
867.39        86.47631
867.79        87.30548
868.19        87.93678
868.60         87.8249
869.00        86.90896
869.40        85.34085
869.80        83.89844
870.21        83.80657
870.61        85.40952
871.01        88.33789
871.41        91.66376
871.81         93.7757
872.22        94.18595
872.62        93.33954
873.02         92.0235
873.42        91.56744
873.82        92.22523
874.22        93.50789
874.63        94.92854
875.03        95.50681
875.43        94.81022
875.83        93.65414
876.23        92.11714
876.63        91.83356
877.03        93.07513
877.44        96.21275
877.84        99.61648
878.24           103.6
878.64        102.3747
879.04        99.38032
879.44        96.08279
879.84        94.55766
880.24        96.79774
880.64        99.22935
881.04        102.1197
881.44        103.8072
881.84        102.8938
882.24        100.1647
882.65        97.26737
883.05        96.11614
883.45        97.02376
883.85         99.5625
884.25         102.677
884.65        104.3383
885.05        103.9146
885.45        102.1748
885.85        100.1475
886.25         99.2115
886.65        99.67358
887.05        101.0106
887.45        102.7993
887.85        104.3018
888.25        105.1583
888.65        105.6386
889.04        105.6662
889.44        105.1503
889.84        104.1763
890.24        102.7669
890.64        101.3835
891.04        100.7663
891.44        101.0328
891.84        101.9922
892.24        103.1787
892.64        103.6972
893.04        103.3399
893.44        102.4955
893.83        101.5013
894.23        100.8543
894.63        100.6799
895.03        100.7384
895.43        101.1849
895.83        102.3035
896.23        104.0155
896.63        106.2113
897.02        108.1353
897.42         108.534
897.82        107.2243
898.22        104.6646
898.62        101.8169
899.01        100.1057
899.41        99.90667
899.81        100.7475
900.21          102.15
900.61        103.3181
901.00         103.938
901.40        104.2665
901.80        104.3462
902.20        104.2321
902.59        103.9822
902.99        103.4949
903.39        102.8906
903.79        102.4321
904.18        102.2099
904.58        102.2572
904.98        102.4511
905.38        102.5679
905.77        102.5328
906.17        102.3931
906.57        102.2975
906.96        102.5159
907.36        103.0149
907.76        103.7122
908.15        104.3033
908.55        104.1879
908.95        103.3118
909.34        101.8257
909.74         100.284
910.14        99.38229
910.53        99.33723
910.93        100.0201
911.33        101.0634
911.72        101.7963
912.12        101.9397
912.52        101.6597
912.91        101.3426
913.31        101.5122
913.70         102.303
914.10        103.5789
914.49        104.8792
914.89        104.9411
915.29        103.4613
915.68        100.9595
916.08        98.65786
916.47        97.65266
916.87        98.06723
917.26        99.50549
917.66         101.228
918.05        102.0624
918.45        101.6597
918.84        100.4391
919.24         99.0312
919.64        98.31816
920.03        98.56264
920.42        99.46133
920.82        100.6347
921.21        101.6304
921.61        102.0888
922.00        102.1763
922.40        101.9429
922.79        101.4189
923.19        100.7003
923.58        99.82072
923.98        98.80231
924.37        97.74122
924.77        96.95251
925.16        95.73287
925.55        95.82333
925.95        96.67966
926.34        98.75436
926.74        101.5522
927.13         104.285
927.52        105.4691
927.92        104.9137
928.31        103.0676
928.70        100.6133
929.10        98.71922
929.49        97.72489
929.89        97.33225
930.28        97.57385
930.67        98.49214
931.07        99.84727
931.46        101.7175
931.85        103.4164
932.24        103.9016
932.64        103.0216
933.03        100.9401
933.42        98.27643
933.82         96.4924
934.21        96.00988
934.60        96.45628
934.99        97.30306
935.39        97.89516
935.78        98.11863
936.17        98.19196
936.56        97.95135
936.96         97.5509
937.35        96.44133
937.74        95.35294
938.13        94.59006
938.53        94.66885
938.92        95.54666
939.31        97.19268
939.70        99.02276
940.09        99.49559
940.49        98.17525
940.88        95.74772
941.27        93.32291
941.66        92.19754
942.05        92.53252
942.44         93.8819
942.84         95.7879
943.23        97.53682
943.62        98.68302
944.01        99.37691
944.40        99.64078
944.79        99.52967
945.18        99.06949
945.57        98.13449
945.97        96.70764
946.36        95.09566
946.75        93.70175
947.14        92.74315
947.53        92.26702
947.92        92.16577
948.31        92.36237
948.70        92.87334
949.09        93.67007
949.48        94.60401
949.87        95.48653
950.26        96.18655
950.65        96.62965
951.04        96.80488
951.43        96.71574
951.82        96.37117
952.21        95.69447
952.60         94.6196
952.99        93.23586
953.38        91.63885
953.77        90.21161
954.16        89.46568
954.55        89.47832
954.94        90.16986
955.33        91.03204
955.72        91.18735
956.11        90.43195
956.50        88.96488
956.89         87.4957
957.28        87.33814
957.66        88.91573
958.05        91.59437
958.44        94.46204
958.83        96.17374
959.22        96.36931
959.61        95.34842
960.00        93.75488
960.39        92.64265
960.78        92.33056
961.16        92.60889
961.55        92.80226
961.94        91.81324
962.33        89.52899
962.72        86.50877
963.11        83.79908
963.49        82.71976
963.88        83.47278
964.27        85.75581
964.66        88.69108
965.04        90.34561
965.43        89.87917
965.82        87.96552
966.21         85.7475
966.60        84.73013
966.98        85.19906
967.37        86.60762
967.76        88.33314
968.15        89.19736
968.53         88.8049
968.92         87.6075
969.31        86.12416
969.69        84.96204
970.08        84.31313
970.47        84.00186
970.86        83.88444
971.24        83.75727
971.63        83.54366
972.02        83.33612
972.40        83.36928
972.79        83.96494
973.17        85.27233
973.56        87.00974
973.95        88.70508
974.33         89.4632
974.72         88.9533
975.11        87.46551
975.49         85.6937
975.88        84.62997
976.26        84.41583
976.65        84.85026
977.04        85.36642
977.42        84.66995
977.81        82.45335
978.19        79.35523
978.58        76.92312
978.96        76.61304
979.35        78.61153
979.74         82.6479
980.12        87.89523
980.51        91.26133
980.89        91.75336
981.28        90.06523
981.66        87.59564
982.05        86.19393
982.43        86.17222
982.82        86.95351
983.20        88.15626
983.59         89.3414
983.97         90.4017
984.35        91.48357
984.74         92.3823
985.12        93.00836
985.51        93.02978
985.89        92.46419
986.28         91.1375
986.66        88.71281
987.04         85.7262
987.43        82.72675
987.81         80.3649
988.20        79.28725
988.58         79.5433
988.96        81.11284
989.35        84.31464
989.73        88.65675
990.12        92.13783
990.50        94.29408
990.88        94.55389
991.27        93.18607
991.65        90.68396
992.03        86.91195
992.42        83.09261
992.80        81.43687
993.18        82.56225
993.56        85.26869
993.95        88.13258
994.33         89.8641
994.71        90.17305
995.10        89.75629
995.48        88.71162
995.86        87.03217
996.24        84.80192
996.63        81.69502
997.01        78.55896
997.39        77.93303
997.77        80.74894
998.15         86.3399
998.54        91.92459
998.92        93.87395
999.30        91.11918
999.68        84.57744
1000.06        75.96944
1000.45         69.6619
1000.83        67.51399
1001.21        68.18407
1001.59        70.50219
1001.97        73.24104
1002.35        76.05599
1002.73        79.83983
1003.12         83.5583
1003.50        83.94473
1003.88        79.77106
1004.26         72.7704
1004.64        66.35883
1005.02        63.51974
1005.40        64.51574
1005.78        69.24256
1006.16        78.54971
1006.54        88.56785
1006.92        93.27016
1007.30        93.56091
1007.69        92.10271
1008.07        90.87852
1008.45        90.08564
1008.83        88.58604
1009.21        84.63394
1009.59        73.41558
1009.97        46.42459
1010.35        16.74943
1010.73        29.19247
1011.11        49.56513
1011.49        62.13832
1011.86        71.34971
1012.24        76.59018
1012.62        79.09828
1013.00        80.13326
1013.38        79.77197
1013.76        79.86184
1014.14        85.83768
1014.52        101.5794
1014.90         128.336
1015.28        157.2953
1015.66        165.6731
1016.04         141.468
1016.41        91.85893
1016.79        43.61492
1017.17        22.93071
1017.55        25.08475
1017.93        35.23674
1018.31        46.22138
1018.69        54.97842
1019.06        62.37929
1019.44        70.69057
1019.82        82.11504
1020.20        97.34183
1020.58        116.1514
1020.95        137.8745
1021.33        163.3331
1021.71       -157.8836
1022.09        100.5769
1022.46        116.6165
1022.84        123.6532
1023.22        131.5164
1023.60        148.9148
1023.97        305.3376
1024.35        42.53521
1024.73        71.95933
