SpectraSmart Spectrum 2.9.0.0
--------- Device Information -----------
Spectrum Name :  反射率_0
Saving Time :  2024/04/26 02:04:49
Spectro-Module Model Name : SE2030-DUVN
Spectro-Module Serial Number : OS361AC55029948
Wavelength Start : 200
Wavelength End : 1025
Wavelength Unit : Wavelength(nm)
Spectrum Unit : Reflectance(%)
-----------Spectrum Setting ------------
Integration Time : 20ms
Average : 10
Boxcar : 0
Background removal :  enabled
linearity correction :  enabled
SC :  disabled
Intensity correction :  disabled
DWT denoise :  enabled
savitzky-golay :  disabled
FFT :  disabled
Running average :  disabled
Kalman :  disabled
High pass :  disabled
---------------BEGIN--------------------
Wavelength(nm)             Reflectance(%)
200.29               0
200.75        95.62042
201.21        86.67496
201.67        76.63445
202.13        71.04005
202.58        70.47518
203.04        73.71766
203.50        78.15349
203.96        79.35701
204.42        76.63362
204.88        71.99698
205.34        67.74512
205.80        65.99142
206.26        67.31522
206.72        72.81644
207.18        84.92741
207.64        96.14358
208.10        89.78558
208.55        75.77867
209.01        67.21886
209.47        65.48703
209.93        68.02865
210.39        73.48227
210.85        79.50667
211.31        80.85733
211.77         75.9702
212.23        67.12241
212.69         58.2991
213.14        55.60058
213.60        59.99392
214.06        69.60232
214.52        81.08611
214.98        89.28548
215.44        92.48246
215.90        92.20145
216.36        89.64956
216.81        86.36244
217.27        83.50377
217.73        80.71338
218.19          77.743
218.65        74.10744
219.11         69.2212
219.57          62.269
220.02        53.82362
220.48         48.6499
220.94         49.2873
221.40        54.98079
221.86        60.17449
222.32        58.93679
222.77        52.10518
223.23        43.11595
223.69        35.82189
224.15        34.22938
224.61         37.7297
225.06        44.26957
225.52        50.59617
225.98        52.62523
226.44        49.73745
226.90        43.75336
227.36        37.20399
227.81        33.49579
228.27        33.60695
228.73        36.13778
229.19        39.66511
229.65        42.09261
230.10        42.86988
230.56        42.79626
231.02        42.46414
231.48        42.48524
231.93        42.95678
232.39        43.60574
232.85        44.25274
233.31        44.72916
233.77        44.97756
234.22        45.09438
234.68        45.17643
235.14        45.28911
235.60        45.47884
236.05        45.73742
236.51        46.04005
236.97        46.35538
237.43        46.73295
237.88        47.28402
238.34        48.13406
238.80        49.60516
239.26         51.6851
239.71        54.30851
240.17         56.8508
240.63        58.80974
241.08        60.13998
241.54        60.87752
242.00        61.48672
242.46        62.82387
242.91        65.88508
243.37        72.52847
243.83        92.18373
244.28        154.9332
244.74        224.8445
245.20        185.0382
245.66        148.6745
246.11        137.4075
246.57        139.5406
247.03        156.2994
247.48        205.2399
247.94        165.2798
248.40        108.8331
248.85        93.51775
249.31        89.93093
249.77        90.40439
250.22        93.30655
250.68        98.91758
251.14        106.9681
251.59        111.8274
252.05        108.2535
252.51        99.15777
252.96        89.50453
253.42        84.20888
253.88        82.78195
254.33        83.35232
254.79        86.08343
255.25        90.49307
255.70        95.31483
256.16        100.3172
256.62        103.4261
257.07        102.5254
257.53         98.6786
257.99        92.73756
258.44        86.69106
258.90        83.87186
259.35        83.30973
259.81         83.8091
260.27        83.42911
260.72          80.313
261.18        75.28424
261.63        69.14369
262.09        63.45501
262.55        59.26435
263.00        56.57204
263.46        54.99819
263.91        53.75648
264.37        52.34737
264.83        50.52648
265.28        48.36543
265.74        46.30013
266.19        44.72068
266.65        43.84624
267.11        43.40283
267.56         42.9714
268.02        42.05627
268.47        40.52444
268.93        38.55871
269.38        36.43448
269.84        34.87399
270.30        34.08943
270.75        33.89301
271.21        33.94117
271.66        33.70482
272.12        33.03376
272.57        32.09799
273.03        31.14338
273.48        30.44748
273.94        30.10639
274.39        29.96286
274.85        29.87222
275.31        29.62296
275.76        29.15364
276.22        28.56936
276.67        27.95268
277.13        27.51219
277.58        27.23636
278.04        27.08958
278.49        26.92619
278.95        26.61123
279.40        26.08915
279.86        25.46248
280.31        24.80196
280.77        24.32522
281.22        24.03021
281.68         23.8851
282.13        23.77877
282.59        23.58663
283.04        23.28579
283.50        22.96654
283.95        22.67847
284.41        22.51674
284.86        22.48965
285.32        22.55082
285.77        22.70419
286.22        23.02112
286.68        23.45749
287.13         23.9582
287.59        24.34488
288.04        24.34424
288.50        23.95836
288.95        23.27437
289.41        22.54766
289.86         22.0564
290.32        21.92712
290.77        22.06383
291.22        22.38982
291.68        22.74052
292.13        23.07706
292.59        23.46537
293.04        23.95683
293.50        24.62663
293.95         25.4747
294.40        26.43589
294.86        27.45636
295.31        28.47589
295.77        29.48261
296.22        30.50021
296.68        31.53193
297.13        32.54571
297.58        33.55781
298.04        34.59275
298.49         35.7074
298.95        37.04391
299.40        38.61323
299.85         40.3653
300.31          42.203
300.76        43.96495
301.21        45.57132
301.67        47.08804
302.12        48.48093
302.58        49.80541
303.03        51.06818
303.48         52.2893
303.94        53.60385
304.39        55.15854
304.84         56.9799
305.30        59.00985
305.75        61.03292
306.20        62.74038
306.66         64.0848
307.11        65.11213
307.57        66.03346
308.02        67.05139
308.47         68.2773
308.93        69.64908
309.38        71.06283
309.83        72.40709
310.29        73.63157
310.74        74.74467
311.19         75.7896
311.65        76.82765
312.10        77.86346
312.55        78.88464
313.00        79.80907
313.46        80.51592
313.91        80.96976
314.36        81.22732
314.82         81.4519
315.27        81.84399
315.72        82.48614
316.18        83.32481
316.63        84.23546
317.08        84.96702
317.53        85.44234
317.99        85.71114
318.44        85.93597
318.89        86.38966
319.35        87.10699
319.80         88.0303
320.25        88.89954
320.70        89.28807
321.16        89.11732
321.61        88.53914
322.06        87.87846
322.51         87.6461
322.97        87.93996
323.42        88.63516
323.87        89.47427
324.32        90.01011
324.78        90.09503
325.23        89.91273
325.68        89.59095
326.13        89.36528
326.59        89.30518
327.04        89.35924
327.49        89.53487
327.94        89.88224
328.39        90.38805
328.85        91.03559
329.30        91.74617
329.75        92.20679
330.20         92.3625
330.66        92.27621
331.11        92.19962
331.56        92.47428
332.01         93.2037
332.46        94.27274
332.92        95.49081
333.37          96.691
333.82        97.67451
334.27        98.48811
334.72        99.07469
335.17         99.3596
335.63        99.36598
336.08        99.16824
336.53        98.91914
336.98        98.91834
337.43        99.25136
337.88        99.84274
338.34        100.6148
338.79        101.5152
339.24        102.4411
339.69        103.4247
340.14        104.2847
340.59        104.7115
341.05        104.6651
341.50         104.222
341.95        103.7076
342.40        103.6346
342.85        104.1129
343.30        105.0076
343.75        106.0344
344.20         106.681
344.66        106.8098
345.11        106.5656
345.56        106.1759
346.01        105.9811
346.46         106.081
346.91        106.3635
347.36        106.7166
347.81        106.9797
348.26        107.1076
348.72        107.1765
349.17        107.2272
349.62        107.3652
350.07         107.603
350.52        107.8811
350.97        108.1239
351.42        108.2318
351.87        108.1816
352.32        108.0112
352.77        107.7638
353.22        107.5063
353.67        107.2676
354.13        107.0474
354.58        106.8168
355.03        106.5888
355.48        106.3558
355.93        106.1137
356.38        105.8504
356.83        105.5422
357.28          105.18
357.73         104.771
358.18           104.3
358.63         103.748
359.08        103.1226
359.53         102.435
359.98        101.7385
360.43        101.1141
360.88          100.57
361.33        100.0776
361.78        99.58031
362.23         98.9847
362.68        98.28165
363.13        97.52682
363.58        96.75665
364.03        96.02055
364.48        95.34113
364.93        94.69365
365.38        94.11928
365.83        93.68993
366.28         93.3868
366.73        93.15753
367.18        92.88479
367.63        92.38206
368.08        91.62129
368.53        90.69729
368.98        89.68397
369.43        88.68407
369.88        87.75416
370.33        86.87403
370.78        86.14494
371.23        85.73099
371.68        85.64613
372.13        85.83835
372.58        86.11654
373.03        86.14822
373.48        85.84081
373.93        85.28273
374.38        84.61645
374.83        84.07219
375.28        83.71354
375.72        83.45339
376.17        83.25542
376.62         83.0405
377.07        82.76823
377.52        82.45436
377.97        82.09272
378.42        81.66568
378.87        81.18253
379.32        80.66901
379.77        80.10868
380.22        79.47181
380.67        78.76165
381.11        77.98862
381.56         77.2598
382.01          76.756
382.46        76.52354
382.91        76.53365
383.36        76.60614
383.81           76.45
384.26        76.00478
384.71        75.33846
385.15        74.66409
385.60        74.37406
386.05        74.47938
386.50        74.84602
386.95        75.17628
387.40        74.98081
387.85        74.21032
388.29        73.07491
388.74        71.98732
389.19        71.23356
389.64        70.85836
390.09        70.70116
390.54         70.7285
390.98        70.88545
391.43        71.11231
391.88        71.41679
392.33        71.59142
392.78        71.32085
393.23        70.62679
393.67         69.6187
394.12         68.7034
394.57        68.24399
395.02        68.31091
395.47         68.7534
395.91        69.42471
396.36        69.95196
396.81        70.19886
397.26        70.22936
397.71        70.04543
398.15        69.56799
398.60        68.93337
399.05        68.28355
399.50        67.70446
399.95        66.93723
400.39        66.42045
400.84           66.33
401.29        66.66994
401.74        67.03429
402.18        67.26019
402.63        67.14925
403.08        66.87065
403.53        66.94679
403.97        67.40931
404.42        67.92698
404.87        68.28479
405.32        68.22673
405.76        67.68526
406.21        66.92393
406.66        66.15955
407.11        65.49472
407.55        65.14541
408.00        65.45845
408.45        66.23301
408.90        66.75035
409.34        66.71661
409.79        66.06032
410.24        65.12033
410.68        64.69382
411.13        64.89417
411.58        65.27926
412.03        65.72993
412.47        66.21992
412.92        66.61259
413.37        66.93836
413.81         67.1282
414.26        67.12256
414.71        66.91322
415.15        66.50791
415.60        66.04731
416.05        65.78625
416.49        65.79172
416.94        66.02039
417.39        66.29765
417.83          66.299
418.28         65.9718
418.73        65.43465
419.17        64.91795
419.62        64.79105
420.07        65.09033
420.51        65.68019
420.96        66.34197
421.41        66.66031
421.85        66.50146
422.30         66.2365
422.74        65.92019
423.19        65.39877
423.64        64.86331
424.08        65.08258
424.53        65.91037
424.98        66.39028
425.42        66.41468
425.87        66.60891
426.31        66.98875
426.76        67.07344
427.21        66.99743
427.65          67.342
428.10        68.04078
428.54        68.67968
428.99        69.21151
429.44        69.52789
429.88        69.58409
430.33        70.01296
430.77        70.40237
431.22        69.34418
431.66        67.31452
432.11        66.40859
432.56        66.81369
433.00        67.53648
433.45        68.46972
433.89         70.2316
434.34        71.44283
434.78        72.63365
435.23        68.53156
435.67        66.64593
436.12        69.74871
436.57        70.97195
437.01        71.15616
437.46        71.32774
437.90        71.68491
438.35        71.47112
438.79        71.86504
439.24        71.79974
439.68        71.66645
440.13        71.36025
440.57        71.20309
441.02        72.09406
441.46        73.63798
441.91        74.52536
442.35        74.48993
442.80        73.63705
443.24         72.4221
443.69        72.95189
444.13        74.83539
444.58        74.80878
445.02        73.10493
445.47        72.88773
445.91        74.11662
446.36        74.54108
446.80        74.05479
447.24         74.0886
447.69        74.74982
448.13        74.18671
448.58        74.88746
449.02        74.92177
449.47        75.03729
449.91          75.205
450.36        75.44387
450.80        75.69497
451.25        75.88111
451.69        75.91989
452.13        75.81298
452.58        75.59568
453.02        75.37791
453.47        75.37434
453.91        75.60204
454.36        75.99806
454.80        76.41273
455.24        76.51659
455.69         76.2626
456.13        75.85598
456.58        75.48197
457.02          74.995
457.46        74.67778
457.91        74.98157
458.35        75.68588
458.79        75.95042
459.24        75.71152
459.68        75.35213
460.13        75.00128
460.57        74.62647
461.01        74.32452
461.46         74.0639
461.90        73.79019
462.34         73.9482
462.79        73.49551
463.23          73.784
463.68        74.38571
464.12        74.78603
464.56        74.89245
465.01        75.03062
465.45        75.04943
465.89        74.89847
466.34        74.50539
466.78        73.38052
467.22        72.17812
467.67        71.48301
468.11        73.44328
468.55        74.14131
468.99        73.92677
469.44        73.48813
469.88        73.06601
470.32        73.09671
470.77        73.47316
471.21        73.44023
471.65        72.96041
472.10         72.6834
472.54        72.67897
472.98        72.70256
473.42        72.74074
473.87        73.03481
474.31        73.41451
474.75        73.28146
475.20        72.77672
475.64        72.74537
476.08        73.19156
476.52        73.20805
476.97        72.70144
477.41        72.82761
477.85        73.18642
478.29        72.40074
478.74        72.76292
479.18        73.57436
479.62        71.97331
480.06        72.66927
480.50        73.04963
480.95        73.42398
481.39        73.32813
481.83        72.47069
482.27        72.81853
482.72        72.59331
483.16        71.53326
483.60        71.86225
484.04         73.3327
484.48        73.50928
484.93        72.99236
485.37        74.43633
485.81        75.90448
486.25        74.09729
486.69        99.43432
487.14         81.0806
487.58        50.59888
488.02        61.95439
488.46        70.64114
488.90        70.21705
489.34        71.95529
489.79        71.35548
490.23         73.2016
490.67        74.07847
491.11        73.11944
491.55        72.95309
491.99        73.18818
492.43        72.90489
492.88        72.24143
493.32        72.35573
493.76        72.67902
494.20        73.02932
494.64         73.1234
495.08         73.2738
495.52        73.51357
495.96        73.36884
496.41        72.91296
496.85        73.41259
497.29        74.53601
497.73        73.50679
498.17        71.31615
498.61        71.50511
499.05        74.08398
499.49        74.44906
499.93         74.2224
500.37        73.91051
500.82        73.47076
501.26        73.16685
501.70        73.86071
502.14        74.07916
502.58        73.98833
503.02        73.88212
503.46        73.75749
503.90        73.37492
504.34        72.89966
504.78        72.74387
505.22         72.9628
505.66        73.44347
506.10        74.01008
506.54        74.27504
506.98         74.1289
507.42        73.85251
507.86        73.66516
508.30        73.01844
508.74        73.39211
509.18        73.56733
509.62        73.83659
510.06        73.96377
510.50        73.90601
510.94        73.72863
511.38        73.51376
511.82        73.41724
512.26        73.47633
512.70        73.63662
513.14        73.84136
513.58        74.00549
514.02        74.09029
514.46        74.11246
514.90          74.096
515.34        74.06397
515.78        74.01788
516.22        74.00666
516.66        74.00544
517.10        73.82753
517.54        73.47557
517.98        73.52277
518.42         73.2713
518.86         73.3624
519.30        73.57381
519.74        73.92599
520.18        74.32047
520.62        74.59048
521.06        74.69761
521.50        74.68443
521.93         74.5873
522.37        74.46964
522.81        74.36877
523.25         74.2676
523.69         74.2039
524.13        74.23627
524.57        74.36941
525.01        74.59247
525.45        74.83663
525.89        74.98457
526.32         74.9968
526.76        74.89707
527.20        74.74606
527.64        74.66313
528.08        74.69311
528.52        74.74152
528.96          74.716
529.40        74.68439
529.83        74.67029
530.27        73.90672
530.71        73.95557
531.15        73.79514
531.59        73.89217
532.03          74.148
532.46         74.5041
532.90        74.82619
533.34        75.04606
533.78         75.2007
534.22        75.26896
534.66        75.22982
535.09        75.08085
535.53        74.85122
535.97        74.59077
536.41        74.40623
536.85        74.33048
537.28        74.35005
537.72        74.41071
538.16        74.43202
538.60        74.39272
539.04        74.25682
539.47        74.07932
539.91        74.14291
540.35        74.37753
540.79        74.44078
541.22        74.30939
541.66         74.2495
542.10        74.25446
542.54        74.15678
542.97        74.00765
543.41        74.00342
543.85        74.14985
544.29        74.40436
544.72        74.64523
545.16         74.7131
545.60        74.56801
546.04        74.26894
546.47        73.96449
546.91        73.90249
547.35        74.13805
547.79        74.60771
548.22        75.08046
548.66        75.28699
549.10        75.08774
549.53        74.31899
549.97        73.34446
550.41        72.92101
550.84        73.16661
551.28        73.74377
551.72        74.41048
552.15        74.83364
552.59        74.87871
553.03        74.70677
553.46        74.44134
553.90        74.18277
554.34        73.96118
554.77        74.27842
555.21        73.98282
555.65          74.149
556.08        74.46206
556.52        74.04436
556.96        74.60595
557.39        74.47655
557.83        74.58735
558.27        74.56625
558.70        74.58309
559.14        74.71609
559.57        74.93707
560.01        75.17365
560.45        75.34688
560.88        75.44524
561.32        75.41882
561.75        75.08971
562.19        74.60875
562.63        74.13079
563.06        73.81561
563.50        73.97447
563.93        74.46549
564.37        74.81315
564.80        74.87839
565.24        74.79795
565.68        74.62534
566.11        74.48826
566.55          74.459
566.98        74.39227
567.42        74.38834
567.85        74.37695
568.29        75.16886
568.72        75.15864
569.16        74.86033
569.60        75.16236
570.03        75.71898
570.47        75.72972
570.90        75.51561
571.34        73.40309
571.77        74.73337
572.21         74.4921
572.64        73.98871
573.08        72.94227
573.51        69.78532
573.95        72.73866
574.38        77.74365
574.82        74.95702
575.25        74.26239
575.69        72.13651
576.12        70.96124
576.56        70.18609
576.99         71.9433
577.42        75.35381
577.86        75.17567
578.29        74.24078
578.73        78.00116
579.16        71.84425
579.60        66.13062
580.03        69.02102
580.47        73.65656
580.90        75.15417
581.33        73.60754
581.77        73.00182
582.20        80.42985
582.64        79.42218
583.07        67.91297
583.51        66.64822
583.94        65.76728
584.37        68.82986
584.81        72.09485
585.24        75.78271
585.68        77.47611
586.11         76.4203
586.54         71.0914
586.98        68.69864
587.41        69.41402
587.85        73.12149
588.28        75.76652
588.71         72.3382
589.15        70.02105
589.58        71.39659
590.01        72.02991
590.45        73.06796
590.88        73.84502
591.31        73.08164
591.75        72.67587
592.18        72.70073
592.61        74.14372
593.05         74.8544
593.48        78.14079
593.91        78.65237
594.35        72.40631
594.78        70.76284
595.21        70.30573
595.65        73.56865
596.08        76.73032
596.51        73.47659
596.94        71.52085
597.38        72.14966
597.81        75.06712
598.24        76.81149
598.68         75.3709
599.11         73.8858
599.54        76.78111
599.97        78.50326
600.41        73.25616
600.84        73.32523
601.27        74.91009
601.70        73.92789
602.14        73.72849
602.57        72.74879
603.00          73.521
603.43        75.00816
603.87        76.28166
604.30        75.85133
604.73        73.93654
605.16        72.46626
605.60        73.53721
606.03        74.71329
606.46        75.79765
606.89         75.5994
607.32        73.22588
607.76        72.90412
608.19        75.46927
608.62        74.57062
609.05        73.40437
609.48        73.86886
609.92        73.50459
610.35        73.33994
610.78        75.57772
611.21        76.22083
611.64         72.8953
612.07        73.62469
612.50        74.05277
612.94        74.48881
613.37        73.82447
613.80        74.04234
614.23        74.47942
614.66        74.37075
615.09        74.57267
615.52        74.59381
615.96        74.58647
616.39        74.70072
616.82         73.6537
617.25        73.67687
617.68        74.51271
618.11         75.0451
618.54         75.0988
618.97        74.56263
619.40        73.85487
619.84        73.78186
620.27        74.86443
620.70        75.53349
621.13        75.74426
621.56        75.04655
621.99        73.83554
622.42         74.6605
622.85        76.81201
623.28        76.59569
623.71        75.66337
624.14        75.63026
624.57        75.60383
625.00        74.97473
625.43        75.53292
625.86        74.78728
626.29        74.75378
626.72        75.69682
627.15        75.12536
627.58        75.38445
628.01        75.58588
628.44        75.76501
628.87        75.90118
629.30         76.1626
629.73         76.4661
630.16         76.4707
630.59        76.15764
631.02         75.6838
631.45        75.20041
631.88        74.89916
632.31        74.83763
632.74        74.96605
633.17        75.18451
633.60        75.31571
634.03        75.30732
634.46        75.22065
634.89        75.10548
635.32        75.04305
635.75        75.05953
636.18        75.10915
636.61        75.19241
637.04        75.32134
637.47        75.48461
637.89         75.6949
638.32        75.86214
638.75        75.88728
639.18        75.75095
639.61        75.48456
640.04        75.18307
640.47        74.99896
640.90        74.97264
641.33        75.06081
641.76        75.16201
642.18        75.21246
642.61        75.17913
643.04        74.92546
643.47        74.48857
643.90        74.89127
644.33        74.61996
644.76        74.87865
645.18        75.13633
645.61        75.29955
646.04        75.31371
646.47         75.1996
646.90        75.06997
647.33        75.04834
647.75         75.1893
648.18        75.50407
648.61        75.77963
649.04         75.6962
649.47        75.21877
649.89        74.29801
650.32        73.40051
650.75         73.4115
651.18        74.26149
651.61        75.18804
652.03        75.72174
652.46        75.47751
652.89        74.88905
653.32        74.10062
653.74        73.57534
654.17        75.01133
654.60        75.95841
655.03        73.71052
655.46        74.77052
655.88        78.84987
656.31        83.42952
656.74         185.019
657.16        120.7873
657.59        42.62178
658.02        32.25676
658.45        56.73444
658.87        72.52782
659.30        75.45417
659.73        74.81956
660.15        72.36536
660.58        74.64223
661.01        76.44544
661.44        74.05096
661.86        73.44647
662.29        73.68606
662.72         74.5292
663.14        75.71137
663.57        75.55229
664.00        74.37318
664.42        74.13101
664.85        74.91425
665.27         75.4531
665.70         75.5031
666.13        75.40018
666.55        75.11366
666.98        74.54376
667.41        73.91073
667.83        73.63383
668.26        73.80305
668.69        74.25207
669.11        74.71942
669.54        75.15611
669.96         74.7733
670.39        74.25794
670.82        73.63849
671.24        73.35053
671.67        73.50787
672.09        73.89948
672.52        74.26183
672.94        74.78181
673.37        74.16534
673.80         74.0375
674.22        74.07861
674.65        74.07568
675.07        74.01125
675.50        73.86976
675.92        73.72034
676.35        73.72626
676.77        73.90557
677.20        74.12981
677.62        74.34556
678.05        74.47147
678.47        74.47301
678.90        74.39361
679.32        74.29684
679.75        74.14337
680.17        74.25101
680.60        74.35914
681.02         74.4781
681.45        74.46276
681.87        74.30031
682.30        74.02678
682.72        73.76817
683.15        73.74115
683.57        73.99578
684.00         74.3773
684.42         74.8601
684.85         75.0633
685.27        74.95764
685.70        74.64162
686.12        74.24187
686.54        74.00764
686.97        73.98772
687.39        74.12335
687.82        74.31139
688.24        74.43739
688.66        74.43976
689.09        74.36782
689.51        74.29041
689.94        74.28333
690.36        74.37724
690.78        74.52967
691.21        74.69317
691.63        74.80549
692.06        74.84753
692.48        74.84514
692.90         74.8287
693.33        74.82853
693.75        74.86015
694.17        74.92392
694.60        74.99931
695.02        75.05222
695.44        75.03931
695.87        75.09743
696.29        75.25751
696.71        75.10123
697.14        74.77891
697.56        75.29385
697.98         76.3711
698.41        76.12385
698.83        75.34277
699.25        74.79861
699.68        74.81291
700.10        74.75169
700.52        74.64195
700.94        74.86265
701.37        75.30503
701.79        75.67347
702.21        75.86417
702.64        75.97282
703.06        75.97438
703.48        75.82103
703.90         75.5396
704.33         75.1403
704.75         74.7285
705.17         74.5693
705.59        74.72388
706.01        75.00536
706.44        75.25755
706.86        75.87214
707.28        75.77872
707.70        75.81403
708.12        75.73636
708.55        75.64799
708.97        75.55389
709.39        75.43168
709.81         75.3315
710.23          75.326
710.66        75.42815
711.08        75.65797
711.50         75.8828
711.92        75.90356
712.34        75.68649
712.76        75.27547
713.19        74.86145
713.61        74.78968
714.03        75.11323
714.45         75.7284
714.87        76.37084
715.29        76.61902
715.71        76.38287
716.13        75.79846
716.56        75.11957
716.98        74.79031
717.40         74.9183
717.82        75.36389
718.24        75.92458
718.66        76.25893
719.08        76.26154
719.50        76.04325
719.92        75.71319
720.34        75.45927
720.76        75.34939
721.19        75.20234
721.61        75.23581
722.03        75.27988
722.45        75.38558
722.87        75.55618
723.29        75.77119
723.71        75.97859
724.13        76.15301
724.55        76.29265
724.97        76.38666
725.39        76.43074
725.81        76.42783
726.23        76.38011
726.65        76.31178
727.07        76.26037
727.49        76.24333
727.91        76.26649
728.33        76.31647
728.75        76.36578
729.17        76.40227
729.59        76.42189
730.01        76.45904
730.43        76.55896
730.85        76.72842
731.27        76.97807
731.69        77.20898
732.10        77.24033
732.52        77.04158
732.94        76.71384
733.36        76.43765
733.78        76.35612
734.20        76.50962
734.62        77.17639
735.04         78.0938
735.46          78.053
735.88        77.30336
736.30        77.61149
736.72          78.912
737.13        79.42159
737.55        78.88844
737.97        78.76271
738.39        79.08967
738.81        78.40369
739.23        77.16438
739.65        78.00766
740.06        80.39971
740.48          80.661
740.90        78.89293
741.32        78.11002
741.74        78.58521
742.16         78.8293
742.57        78.89131
742.99        79.60336
743.41        80.72928
743.83        81.40884
744.25        81.49169
744.67        81.19635
745.08        80.76591
745.50        80.59457
745.92        80.80805
746.34        81.26469
746.75        81.78986
747.17         82.0912
747.59        82.11617
748.01        81.96735
748.42        81.82732
748.84        81.98219
749.26        82.50264
749.68        83.19487
750.09        83.90044
750.51        84.53098
750.93         84.9376
751.35        84.75917
751.76        84.16945
752.18        83.97015
752.60        84.15625
753.01        84.05332
753.43        83.72018
753.85        83.77922
754.27        84.27538
754.68        84.95041
755.10         85.6207
755.52        86.14973
755.93         86.4417
756.35        86.47082
756.77        86.38401
757.18        86.34621
757.60        86.40078
758.02        86.81266
758.43        87.22121
758.85        86.85995
759.26        84.72479
759.68        84.87278
760.10        86.61428
760.51        87.06964
760.93        85.99451
761.34        85.24072
761.76        85.04918
762.18        84.73376
762.59        84.45389
763.01        84.63087
763.42        85.30536
763.84        85.92883
764.26        86.43636
764.67         86.9202
765.09        87.19904
765.50        87.12614
765.92        86.62618
766.33        85.14516
766.75        83.30017
767.16        82.71922
767.58        83.58097
768.00        85.20718
768.41        87.15147
768.83        88.54999
769.24        88.85133
769.66        88.09103
770.07        86.76962
770.49        85.13782
770.90        83.70434
771.32        84.53316
771.73        86.92046
772.15        86.40147
772.56        83.47204
772.97        82.95543
773.39        84.75462
773.80        85.41047
774.22        84.68596
774.63        84.67062
775.05        85.30015
775.46        85.59734
775.88        85.45264
776.29        85.14236
776.70        84.81065
777.12        84.72226
777.53        84.95466
777.95        85.36855
778.36        85.76913
778.77        85.81926
779.19        85.48788
779.60        84.87915
780.02        84.26993
780.43        84.16383
780.84        84.70625
781.26        85.31174
781.67        85.84856
782.09        86.96697
782.50        88.11317
782.91        87.01518
783.33        84.43639
783.74         83.5658
784.15        84.58562
784.57        85.40568
784.98        85.67076
785.39        85.85659
785.81         85.8474
786.22        85.34515
786.63        84.69376
787.04        84.56676
787.46        85.04407
787.87        85.91325
788.28        86.84652
788.70        87.27606
789.11        87.06808
789.52        86.46561
789.93        85.76826
790.35        85.30313
790.76         85.2202
791.17        85.61811
791.58        86.29115
792.00         86.6398
792.41        86.52169
792.82        86.29401
793.23         86.1824
793.65        85.79046
794.06        85.45262
794.47        86.76557
794.88        88.83096
795.29         88.4204
795.71        85.77309
796.12        83.30921
796.53        81.82324
796.94        81.49787
797.35        82.39192
797.76        83.85891
798.18        85.23228
798.59        86.20261
799.00        86.39842
799.41        85.51994
799.82        84.05972
800.23        83.17185
800.64        83.09998
801.06        83.41064
801.47        83.98654
801.88         84.5276
802.29         84.8917
802.70        85.21774
803.11        85.46814
803.52        85.53666
803.93        85.43309
804.34        85.13503
804.75        84.79388
805.17          84.769
805.58        85.17002
805.99        85.60909
806.40        85.89358
806.81        86.40948
807.22        86.73009
807.63        85.36745
808.04        82.96564
808.45        81.89547
808.86         82.3951
809.27        83.31324
809.68         84.2307
810.09        84.84936
810.50        84.93821
810.91        84.61124
811.32        84.08128
811.73        83.69377
812.14        83.55572
812.55        83.51131
812.96        83.57346
813.37        83.77086
813.78        84.07025
814.19        84.52375
814.60        84.87406
815.01        84.70404
815.42         83.9678
815.83        82.75224
816.24        81.52283
816.65        81.10034
817.05        81.73188
817.46        83.15213
817.87        84.77049
818.28        85.52017
818.69        85.10567
819.10        83.78343
819.51        82.23045
819.92        81.59668
820.33        82.17036
820.74        83.59602
821.14        85.17888
821.55        85.69138
821.96        84.88688
822.37         83.2066
822.78        81.33255
823.19        80.26275
823.60        80.26238
824.00        81.08131
824.41        82.24613
824.82        83.05226
825.23          83.201
825.64         82.9367
826.04        82.49214
826.45        82.20562
826.86        82.17393
827.27        82.23014
827.68        82.31469
828.08        82.39799
828.49        82.38287
828.90        82.37724
829.31        82.31508
829.72         82.0512
830.12        81.61806
830.53        81.05794
830.94        80.60709
831.35        80.58038
831.75        81.07132
832.16        81.92391
832.57        82.95956
832.97        83.77592
833.38        84.13608
833.79        84.12947
834.20        83.90923
834.60        83.72382
835.01        83.67578
835.42        83.68295
835.82        83.63744
836.23          83.286
836.64        82.64268
837.04        81.84121
837.45        81.10802
837.86        80.78425
838.26        80.95461
838.67         81.4761
839.08        82.16488
839.48        82.67522
839.89        82.84087
840.29        82.76165
840.70        82.51376
841.11        82.20371
841.51        81.89326
841.92        81.52982
842.33        81.18543
842.73        80.99693
843.14        80.95965
843.54        81.09948
843.95        81.28303
844.35        81.34566
844.76        81.22276
845.17         80.9593
845.57        80.65924
845.98        80.49949
846.38        80.51849
846.79        80.64459
847.19         80.7896
847.60        80.70607
848.00        80.39588
848.41        79.92986
848.81        79.49992
849.22        79.31017
849.62        79.46297
850.03        79.90009
850.43         80.5482
850.84        81.16161
851.24        81.67754
851.65        81.94434
852.05        82.17377
852.46        82.54637
852.86        83.09516
853.27        83.79132
853.67         84.0989
854.07        83.33138
854.48        81.53507
854.88        78.98476
855.29         76.5862
855.69        75.63441
856.10        76.37866
856.50        78.65986
856.90        81.66125
857.31        83.48055
857.71        83.49427
858.12        82.16184
858.52        80.36689
858.92        79.30105
859.33        79.22829
859.73        79.83081
860.13        80.83538
860.54        81.67669
860.94        82.18186
861.34        82.48499
861.75        82.66975
862.15        82.94481
862.55        83.32394
862.96        83.70108
863.36        83.99555
863.76        84.05296
864.17        83.85611
864.57        83.53469
864.97        83.26105
865.38        83.27264
865.78        83.66358
866.18        84.28539
866.58        85.00665
866.99        85.58923
867.39         86.0014
867.79        86.31843
868.19        86.43703
868.60        86.16313
869.00        85.52742
869.40        84.59803
869.80        83.87575
870.21        84.12166
870.61        85.56638
871.01        87.97588
871.41        90.65854
871.81        92.41779
872.22        92.88081
872.62        92.32667
873.02        91.38787
873.42        91.18078
873.82          91.881
874.22         93.0798
874.63        94.26035
875.03        94.40746
875.43        93.17646
875.83        91.56438
876.23        89.48843
876.63        88.86993
877.03        89.93073
877.44        93.07399
877.84        100.4804
878.24        101.7051
878.64        100.8854
879.04        98.24281
879.44        94.65366
879.84        92.89742
880.24        95.42899
880.64        97.81602
881.04        100.4291
881.44        102.0483
881.84        101.4058
882.24        99.17877
882.65        96.80976
883.05        95.97111
883.45        96.95042
883.85         99.3558
884.25        102.2372
884.65        103.7839
885.05        103.4209
885.45        101.8407
885.85         99.9388
886.25        98.90157
886.65        99.01506
887.05         99.8518
887.45        101.1078
887.85        102.2585
888.25        103.0284
888.65        103.6087
889.04        103.8998
889.44         103.772
889.84        103.2495
890.24        102.3406
890.64         101.369
891.04        100.8699
891.44        100.9364
891.84        101.4398
892.24        102.0711
892.64        102.2336
893.04        101.8196
893.44        101.1298
893.83        100.4113
894.23        100.0262
894.63        100.0498
895.03        100.2832
895.43        100.8565
895.83        101.9929
896.23        103.6163
896.63         105.647
897.02        107.3784
897.42        107.6593
897.82        106.3358
898.22        103.8094
898.62        101.0919
899.01        99.68059
899.41        99.91909
899.81        101.3077
900.21        103.1355
900.61        104.2339
901.00        104.2538
901.40        103.5982
901.80         102.652
902.20         101.998
902.59        101.8295
902.99        101.9159
903.39        102.1246
903.79        102.2607
904.18        102.2521
904.58        102.2427
904.98        102.2793
905.38        102.4087
905.77        102.6124
906.17        102.8205
906.57        103.0177
906.96        103.2542
907.36        103.4594
907.76         103.637
908.15        103.6548
908.55        103.1823
908.95        102.2452
909.34        100.9356
909.74        99.63814
910.14        98.76719
910.53         98.4782
910.93        98.73059
911.33        99.36434
911.72          100.07
912.12        100.6294
912.52        101.0332
912.91        101.4261
913.31        102.0687
913.70         103.057
914.10         104.322
914.49        105.4754
914.89        105.4323
915.29        103.9583
915.68        101.4888
916.08        99.18165
916.47        98.04671
916.87        98.20954
917.26        99.35671
917.66        100.7621
918.05        101.2769
918.45        100.5895
918.84        99.08881
919.24         97.5337
919.64        97.01287
920.03         97.7965
920.42        99.53129
920.82        101.5266
921.21        102.7486
921.61        102.7282
922.00        101.8729
922.40        100.6426
922.79        99.62614
923.19        99.03931
923.58        98.71201
923.98        98.53146
924.37        98.28145
924.77        98.01693
925.16        97.36948
925.55        97.51518
925.95        98.21111
926.34        99.76907
926.74          101.75
927.13         103.604
927.52        104.2342
927.92        103.5318
928.31        101.8528
928.70        99.72786
929.10        98.05225
929.49        97.07411
929.89        96.58139
930.28        96.63149
930.67        97.31116
931.07        98.41622
931.46        99.99611
931.85        101.4264
932.24         101.775
932.64        100.9009
933.03        98.93511
933.42        96.41966
933.82         94.6523
934.21        94.01261
934.60        94.20786
934.99        94.74947
935.39        95.03839
935.78        94.98482
936.17         94.6836
936.56        94.00449
936.96        94.08086
937.35        93.26231
937.74        92.96022
938.13         92.9312
938.53        93.63137
938.92        95.06431
939.31        97.23772
939.70        99.54333
940.09        100.3054
940.49        99.00251
940.88         96.3817
941.27        93.58762
941.66        91.94223
942.05        91.63163
942.44        92.19949
942.84        93.35911
943.23        94.71296
943.62        95.90163
944.01        97.01334
944.40        97.77259
944.79        97.74057
945.18        96.81958
945.57        94.98022
945.97        92.54482
946.36        90.61878
946.75        89.82949
947.14        89.94454
947.53        90.57988
947.92        91.27782
948.31        91.95079
948.70        92.79173
949.09        93.71339
949.48        94.41045
949.87         94.7112
950.26        94.53905
950.65        94.18661
951.04        94.19751
951.43        94.67133
951.82          95.476
952.21        96.14475
952.60        95.91894
952.99        94.67827
953.38        92.71642
953.77        90.68515
954.16        89.50528
954.55        89.37579
954.94        90.09235
955.33        91.03083
955.72        91.13815
956.11        90.15212
956.50        88.33565
956.89        86.51122
957.28        86.17545
957.66        87.79769
958.05        90.67802
958.44        93.72896
958.83        95.34444
959.22        95.13121
959.61        93.50179
960.00         91.2904
960.39        89.85917
960.78        89.62174
961.16        90.26751
961.55        91.03751
961.94        90.66287
962.33        88.90914
962.72        86.33689
963.11        83.94611
963.49        83.00976
963.88        83.74758
964.27        85.87882
964.66        88.54297
965.04        89.89722
965.43        89.16939
965.82         87.0066
966.21        84.66608
966.60        83.78664
966.98        84.63791
967.37        86.66313
967.76        88.94541
968.15        89.74575
968.53        88.59184
968.92        86.18873
969.31        83.53801
969.69        81.90634
970.08        81.60002
970.47        82.23571
970.86         83.3882
971.24        84.33735
971.63        84.76999
972.02        84.86839
972.40        84.93051
972.79        85.40961
973.17        86.53706
973.56        87.99953
973.95        89.27879
974.33        89.46494
974.72         88.3058
975.11        86.16454
975.49        83.99577
975.88        83.08208
976.26        83.58604
976.65        85.30254
977.04        87.25204
977.42        87.09277
977.81        84.12986
978.19        79.36891
978.58        75.17857
978.96        74.00286
979.35        76.17784
979.74        81.20345
980.12        87.83896
980.51        91.96616
980.89        92.19126
981.28        89.65476
981.66        86.20914
982.05        84.25299
982.43        84.18804
982.82        85.14087
983.20        86.72004
983.59        88.52081
983.97         90.4278
984.35        92.74087
984.74        94.86728
985.12        95.75651
985.51        94.69175
985.89        91.80581
986.28         88.0106
986.66        84.86855
987.04        83.17558
987.43        82.71049
987.81        82.83088
988.20        82.68089
988.58        81.97265
988.96        80.66425
989.35        79.16329
989.73        79.51656
990.12        82.45518
990.50           86.87
990.88        90.12035
991.27        90.51677
991.65        88.47082
992.03        84.50198
992.42        80.15045
992.80        78.12984
993.18        79.24594
993.56        81.97351
993.95        84.85246
994.33        86.64715
994.71        87.03749
995.10        86.78433
995.48        85.84985
995.86        83.94537
996.24         81.1106
996.63        77.07191
997.01        72.94019
997.39        71.99255
997.77        75.50214
998.15        82.58096
998.54        89.98946
998.92        93.48579
999.30        91.81335
999.68        86.02115
1000.06        77.68958
1000.45         70.9611
1000.83        67.79548
1001.21        67.05872
1001.59        68.00762
1001.97        69.81418
1002.35        72.11991
1002.73        75.69912
1003.12        79.48222
1003.50        79.97124
1003.88        75.82634
1004.26        68.91292
1004.64        62.49683
1005.02        59.32669
1005.40        59.65489
1005.78        63.31474
1006.16        71.53727
1006.54        82.15451
1006.92        89.27348
1007.30        92.09057
1007.69        92.73184
1008.07        93.57836
1008.45        95.57413
1008.83        99.16057
1009.21        105.1829
1009.59        109.4312
1009.97        87.71416
1010.35        14.24297
1010.73       -16.46121
1011.11        8.632372
1011.49        37.07774
1011.86        60.69247
1012.24        74.64493
1012.62        79.41077
1013.00        78.00208
1013.38        71.64763
1013.76        62.91389
1014.14        62.18027
1014.52        78.73506
1014.90        115.6078
1015.28        163.3965
1015.66        191.6164
1016.04        181.2991
1016.41        137.6145
1016.79        86.09858
1017.17         56.3918
1017.55        49.21334
1017.93        51.24334
1018.31        56.58147
1018.69        62.78321
1019.06         70.0576
1019.44        80.64979
1019.82        96.76707
1020.20        116.5766
1020.58        136.4285
1020.95        151.8357
1021.33        158.1269
1021.71       -21.47553
1022.09        109.1099
1022.46        114.4757
1022.84         115.448
1023.22        116.2984
1023.60        118.1693
1023.97        126.8635
1024.35        115.4653
1024.73          119.08
