SpectraSmart Spectrum 2.9.0.0
--------- Device Information -----------
Spectrum Name :  反射率_0
Saving Time :  2024/04/26 02:06:32
Spectro-Module Model Name : SE2030-DUVN
Spectro-Module Serial Number : OS361AC55029948
Wavelength Start : 200
Wavelength End : 1025
Wavelength Unit : Wavelength(nm)
Spectrum Unit : Reflectance(%)
-----------Spectrum Setting ------------
Integration Time : 20ms
Average : 10
Boxcar : 0
Background removal :  enabled
linearity correction :  enabled
SC :  disabled
Intensity correction :  disabled
DWT denoise :  enabled
savitzky-golay :  disabled
FFT :  disabled
Running average :  disabled
Kalman :  disabled
High pass :  disabled
---------------BEGIN--------------------
Wavelength(nm)             Reflectance(%)
200.29               0
200.75        95.60628
201.21        89.44394
201.67        81.88856
202.13        76.96795
202.58        75.35452
203.04        76.39182
203.50        78.63307
203.96        79.76322
204.42        79.19286
204.88        77.59058
205.34        76.55539
205.80        78.03052
206.26        83.19128
206.72        95.14813
207.18        117.5262
207.64        132.5959
208.10         111.863
208.55        80.67249
209.01        63.21637
209.47        59.49659
209.93        64.01657
210.39        74.35884
210.85        86.74809
211.31         92.3136
211.77        87.71502
212.23         76.1697
212.69        63.37798
213.14        58.10495
213.60        62.04243
214.06        72.60046
214.52        85.01202
214.98        91.98426
215.44         91.6719
215.90        86.68378
216.36        80.21912
216.81        76.52878
217.27        76.76163
217.73        79.13336
218.19        81.40755
218.65        80.82552
219.11        76.31744
219.57         67.2664
220.02        54.81574
220.48        46.46973
220.94        46.69158
221.40        53.99758
221.86        60.86505
222.32        59.16636
222.77        50.09499
223.23        38.42965
223.69        29.12057
224.15        27.21228
224.61         31.9042
225.06        40.37491
225.52        48.80883
225.98        52.35155
226.44         50.1557
226.90        44.40923
227.36        37.58911
227.81        33.00502
228.27        31.79607
228.73        32.63011
229.19        34.80854
229.65        37.30341
230.10        39.49054
230.56        41.55493
231.02        43.22079
231.48        44.10386
231.93        44.26211
232.39        43.82855
232.85        43.09139
233.31         42.5934
233.77        42.46973
234.22        42.56961
234.68        42.81248
235.14        42.93527
235.60        42.86991
236.05        42.81233
236.51        42.75601
236.97        42.60989
237.43        42.42681
237.88        42.25474
238.34         42.4504
238.80        43.95214
239.26        47.03214
239.71        51.47341
240.17         56.1974
240.63         59.8233
241.08        61.95454
241.54        62.74638
242.00        62.93623
242.46        63.81953
242.91        66.50433
243.37        72.57522
243.83        90.79714
244.28        149.1188
244.74        213.9743
245.20        177.3338
245.66        143.8981
246.11        133.8031
246.57        136.4992
247.03        154.0437
247.48        205.3668
247.94        166.9801
248.40        108.7273
248.85        92.38965
249.31         88.3876
249.77        88.88338
250.22        92.09378
250.68        98.31351
251.14         107.111
251.59        111.9274
252.05        106.9372
252.51        95.68484
252.96        84.16029
253.42        77.90179
253.88        76.30951
254.33        77.29062
254.79        80.66203
255.25        85.47033
255.70        90.36138
256.16        95.23213
256.62        98.16655
257.07        97.21043
257.53        93.38323
257.99        87.45946
258.44        81.38309
258.90        78.40866
259.35        77.63656
259.81        77.92609
260.27        77.37234
260.72        74.14067
261.18        69.02502
261.63        62.83595
262.09         57.1525
262.55        53.08976
263.00        50.62051
263.46        49.28107
263.91        48.23191
264.37         46.8699
264.83         44.9761
265.28        42.67777
265.74        40.46135
266.19        38.82035
266.65        37.98309
267.11        37.64657
267.56        37.37409
268.02        36.63515
268.47        35.30407
268.93        33.56579
269.38         31.6916
269.84        30.37977
270.30        29.81929
270.75        29.81719
271.21        30.00866
271.66        29.84984
272.12        29.18754
272.57        28.18987
273.03        27.14562
273.48        26.40233
273.94        26.07074
274.39          25.998
274.85          25.967
275.31        25.66191
275.76        25.01794
276.22        24.17084
276.67        23.33492
277.13        22.89964
277.58        22.86542
278.04        23.10937
278.49        23.32502
278.95        23.13726
279.40        22.47832
279.86        21.55783
280.31        20.59329
280.77        20.01253
281.22        19.85969
281.68        19.99457
282.13        20.25411
282.59        20.43894
283.04        20.48287
283.50        20.48887
283.95        20.42851
284.41        20.26839
284.86        20.02144
285.32        19.69911
285.77        19.44334
286.22         19.5336
286.68        19.97356
287.13        20.64806
287.59        21.30071
288.04        21.53986
288.50        21.32153
288.95        20.76775
289.41        20.13364
289.86        19.70103
290.32        19.60196
290.77        19.73553
291.22        20.04266
291.68        20.39447
292.13        20.76209
292.59        21.20419
293.04        21.76409
293.50        22.49813
293.95        23.39889
294.40        24.40573
294.86        25.46176
295.31        26.50212
295.77        27.51718
296.22        28.53533
296.68        29.56577
297.13        30.58767
297.58        31.62116
298.04        32.68502
298.49         33.8451
298.95        35.25475
299.40         36.9244
299.85        38.80254
300.31        40.76011
300.76        42.58541
301.21        44.19112
301.67        45.65635
302.12        46.99835
302.58        48.34705
303.03         49.7202
303.48        51.11062
303.94        52.59484
304.39        54.23167
304.84         56.0297
305.30        57.95995
305.75        59.86137
306.20        61.50872
306.66        62.87274
307.11        63.97199
307.57        64.97265
308.02        66.01201
308.47        67.18987
308.93        68.47203
309.38        69.78804
309.83        71.07772
310.29        72.29984
310.74        73.43423
311.19        74.50889
311.65        75.56417
312.10        76.59466
312.55        77.60239
313.00         78.4799
313.46        79.06356
313.91        79.32597
314.36        79.34726
314.82        79.36547
315.27        79.69479
315.72         80.4349
316.18        81.49438
316.63        82.67298
317.08         83.5918
317.53        84.13105
317.99        84.37072
318.44        84.51202
318.89        84.89413
319.35        85.57362
319.80        86.46865
320.25        87.30614
320.70        87.64256
321.16        87.39628
321.61        86.73647
322.06        86.00001
322.51        85.70538
322.97        85.95874
323.42        86.64107
323.87        87.49313
324.32        88.06398
324.78        88.20522
325.23        88.09304
325.68         87.8758
326.13        87.82418
326.59        88.00315
327.04        88.33904
327.49        88.77257
327.94        89.24799
328.39        89.72381
328.85        90.20821
329.30        90.69003
329.75        90.97938
330.20        91.06702
330.66        90.99572
331.11        90.96974
331.56        91.24742
332.01        91.91001
332.46        92.86855
332.92        93.98728
333.37        95.18843
333.82        96.29893
334.27        97.33655
334.72        98.16502
335.17         98.5798
335.63        98.56808
336.08        98.23795
336.53        97.82844
336.98        97.77895
337.43        98.20913
337.88        99.00191
338.34        100.0008
338.79         101.022
339.24        101.9276
339.69        102.7931
340.14        103.5033
340.59        103.8623
341.05        103.8614
341.50        103.5296
341.95        103.1458
342.40        103.1598
342.85        103.6615
343.30        104.5421
343.75        105.5167
344.20        106.0701
344.66         106.078
345.11        105.6898
345.56        105.1713
346.01        104.9225
346.46        105.0497
346.91        105.4203
347.36        105.8842
347.81        106.2162
348.26         106.355
348.72        106.4016
349.17        106.4065
349.62        106.4936
350.07        106.6878
350.52        106.9167
350.97        107.1361
351.42        107.2969
351.87         107.374
352.32        107.3867
352.77        107.3084
353.22        107.0928
353.67        106.7502
354.13        106.3231
354.58        105.8574
355.03        105.4854
355.48        105.2346
355.93        105.0643
356.38        104.9243
356.83        104.7316
357.28        104.4455
357.73        104.0792
358.18        103.6195
358.63        103.0464
359.08        102.3764
359.53        101.6388
359.98        100.8669
360.43        100.1116
360.88        99.39406
361.33        98.69662
361.78        98.07056
362.23        97.59324
362.68        97.26218
363.13        97.05333
363.58        96.81986
364.03        96.32867
364.48        95.53797
364.93        94.51362
365.38        93.43429
365.83        92.59785
366.28         92.0737
366.73        91.76523
367.18        91.52473
367.63         91.1089
368.08        90.46044
368.53        89.68713
368.98        88.86898
369.43        88.11169
369.88        87.45486
370.33        86.85186
370.78        86.33249
371.23        85.95879
371.68         85.7252
372.13        85.61215
372.58        85.52464
373.03        85.29449
373.48        84.88836
373.93        84.36838
374.38        83.81087
374.83        83.33388
375.28        82.96889
375.72        82.65487
376.17        82.41108
376.62        82.24645
377.07        82.13076
377.52        82.04012
377.97        81.87478
378.42          81.476
378.87        80.83686
379.32        80.04749
379.77        79.20268
380.22        78.43165
380.67        77.76974
381.11        77.17093
381.56        76.67838
382.01        76.36549
382.46        76.23672
382.91        76.29654
383.36        76.36658
383.81        76.15883
384.26        75.62778
384.71        74.84074
385.15        74.05187
385.60        73.71802
386.05        73.86147
386.50        74.33362
386.95        74.80001
387.40        74.69987
387.85        73.95965
388.29        72.81055
388.74        71.68891
389.19        70.91082
389.64        70.53244
390.09        70.38935
390.54        70.43578
390.98        70.59893
391.43        70.80751
391.88        71.06579
392.33        71.20063
392.78        70.91602
393.23        70.22877
393.67        69.32603
394.12        68.53055
394.57        67.89758
395.02        67.58437
395.47        67.90998
395.91        68.74581
396.36        69.35058
396.81        69.57778
397.26        69.72092
397.71         69.7651
398.15        69.48175
398.60        68.97701
399.05        68.43944
399.50        67.93237
399.95        67.09891
400.39        66.39632
400.84        66.18391
401.29        66.46819
401.74        66.57446
402.18        66.44025
402.63        66.37106
403.08        66.44947
403.53        66.62694
403.97        66.89837
404.42        67.24194
404.87        67.48026
405.32        67.33102
405.76        66.75925
406.21        65.92062
406.66         65.0806
407.11        64.66325
407.55        64.76579
408.00        65.15649
408.45         65.6527
408.90        66.08568
409.34        66.21602
409.79        65.70238
410.24        64.82893
410.68        64.39107
411.13         64.4925
411.58        64.73169
412.03        65.01079
412.47        65.31543
412.92        65.53446
413.37        65.71033
413.81        65.79374
414.26        65.74393
414.71        65.54951
415.15        65.21069
415.60        64.83393
416.05        64.61506
416.49        64.60666
416.94        64.78273
417.39        64.98568
417.83        64.92752
418.28        64.56729
418.73        64.00267
419.17         63.4785
419.62        63.38556
420.07        63.75769
420.51        64.45934
420.96        65.20975
421.41        65.49549
421.85        65.17628
422.30        64.64149
422.74        64.05106
423.19        63.44125
423.64        62.99757
424.08        63.33199
424.53        64.23654
424.98        64.73492
425.42        64.68509
425.87        64.71794
426.31        64.89318
426.76        64.75974
427.21        64.51556
427.65        64.87552
428.10        65.73484
428.54        66.49619
428.99        67.08741
429.44        67.40858
429.88        67.44522
430.33        68.02377
430.77         68.6254
431.22        67.42352
431.66        64.98891
432.11        63.81857
432.56        64.12505
433.00        64.87563
433.45        65.95603
433.89        67.59995
434.34        68.40647
434.78        70.09682
435.23        66.06974
435.67        64.05462
436.12        66.71735
436.57        67.92091
437.01         68.4621
437.46        68.82664
437.90        69.24433
438.35        68.21005
438.79        68.94702
439.24        68.73558
439.68        68.57821
440.13        68.26131
440.57        68.10076
441.02        69.13527
441.46        70.87607
441.91        71.59557
442.35        71.15642
442.80        70.29636
443.24        69.40011
443.69         69.9427
444.13        71.56063
444.58        71.50773
445.02        70.01336
445.47        69.91914
445.91        71.08172
446.36        71.39654
446.80        70.78738
447.24        70.35731
447.69        70.27232
448.13        70.35107
448.58        70.63532
449.02        71.11694
449.47        71.66558
449.91        72.07971
450.36         72.2962
450.80        72.34866
451.25        72.28404
451.69         72.1514
452.13        72.00196
452.58        71.82382
453.02        71.66405
453.47        71.64243
453.91        71.75499
454.36        71.97813
454.80        72.22664
455.24        72.25758
455.69        72.02791
456.13        71.77732
456.58        71.62873
457.02        71.17372
457.46        70.59547
457.91        71.23652
458.35        71.66984
458.79        71.99129
459.24        71.79177
459.68        71.51669
460.13        71.21764
460.57        70.87563
461.01        70.62379
461.46        70.13944
461.90        69.38801
462.34        70.07024
462.79        69.68714
463.23        69.64398
463.68          70.244
464.12        70.53487
464.56        70.76739
465.01        70.95095
465.45        70.95247
465.89        70.87531
466.34        70.61325
466.78        69.54044
467.22        68.20042
467.67        67.61591
468.11        68.71736
468.55        69.40663
468.99         69.6067
469.44        69.33846
469.88        68.78685
470.32        68.75484
470.77        69.18301
471.21        69.21008
471.65        68.80487
472.10        68.61257
472.54        68.67424
472.98        68.75114
473.42        68.83092
473.87        69.05811
474.31        69.30241
474.75        69.25095
475.20        68.95237
475.64        68.72699
476.08        68.66264
476.52        68.49774
476.97         68.2238
477.41        68.29018
477.85        68.71648
478.29        68.10004
478.74        68.46038
479.18        68.58276
479.62        67.93553
480.06        68.60555
480.50        68.77313
480.95        69.05884
481.39        69.09794
481.83        68.01791
482.27        68.27011
482.72        68.17548
483.16        67.12819
483.60        67.18989
484.04        68.61772
484.48        68.90797
484.93        68.77559
485.37        70.23168
485.81        70.83869
486.25        69.77382
486.69        94.06667
487.14        75.91106
487.58        47.15202
488.02        58.48459
488.46        66.11412
488.90        65.64973
489.34        67.45709
489.79        66.71357
490.23        68.75407
490.67        69.61044
491.11        68.72881
491.55        68.76233
491.99        69.26946
492.43        69.06456
492.88        68.23902
493.32        68.04478
493.76        68.04831
494.20        68.20032
494.64        68.27907
495.08        68.53944
495.52         68.9452
495.96        68.93553
496.41        68.53299
496.85         68.9815
497.29        69.99363
497.73        68.90896
498.17        66.72353
498.61        66.98074
499.05        69.62086
499.49        69.98879
499.93         69.6397
500.37        69.24834
500.82        68.76432
501.26        68.93623
501.70        69.45815
502.14        69.66426
502.58        69.43361
503.02        69.29737
503.46        69.25948
503.90        68.96588
504.34        68.53876
504.78        68.35407
505.22        68.45551
505.66        68.73699
506.10        69.09058
506.54        69.24084
506.98        69.10817
507.42        68.95554
507.86        68.92992
508.30         68.3222
508.74         68.6569
509.18        68.69439
509.62        68.82333
510.06         68.9285
510.50        68.99318
510.94        69.03484
511.38        69.05408
511.82         69.0843
512.26        69.13049
512.70        69.17729
513.14        69.22627
513.58        69.28826
514.02        69.35695
514.46        69.41946
514.90        69.46127
515.34        69.46825
515.78        69.42897
516.22        69.37242
516.66        69.28721
517.10        69.21408
517.54        68.78761
517.98        68.96278
518.42        68.75999
518.86        68.87045
519.30        69.02219
519.74        69.27016
520.18        69.56025
520.62        69.78433
521.06        69.91982
521.50         69.9863
521.93        69.98408
522.37        69.91679
522.81        69.80624
523.25        69.66032
523.69        69.53429
524.13        69.51373
524.57        69.61297
525.01        69.80511
525.45        70.03702
525.89        70.21815
526.32        70.30727
526.76        70.32229
527.20        70.27056
527.64        70.18676
528.08         70.1036
528.52        69.95444
528.96        69.72508
529.40        69.60175
529.83        69.62708
530.27        69.03114
530.71        69.21316
531.15        69.14398
531.59        69.23658
532.03        69.41666
532.46        69.67403
532.90        69.95777
533.34        70.21912
533.78        70.47413
534.22        70.66307
534.66        70.67526
535.09          70.512
535.53        70.30048
535.97        70.08319
536.41        69.88408
536.85        69.73608
537.28         69.6686
537.72        69.65472
538.16        69.63703
538.60        69.60298
539.04        69.51897
539.47        69.40328
539.91        69.46674
540.35        69.63673
540.79        69.60969
541.22        69.40673
541.66        69.34514
542.10        69.42825
542.54        69.46865
542.97        69.47066
543.41        69.54993
543.85        69.69484
544.29        69.89523
544.72          70.049
545.16        70.02202
545.60         69.7864
546.04        69.39689
546.47        69.03084
546.91        68.93769
547.35         69.1759
547.79        69.79099
548.22        70.47607
548.66        70.61189
549.10        70.13457
549.53        69.37057
549.97        68.64393
550.41        68.27142
550.84        68.36143
551.28        68.83382
551.72         69.4733
552.15        69.88328
552.59        69.95046
553.03        69.79989
553.46        69.54112
553.90        69.40158
554.34         69.4327
554.77        69.50914
555.21        69.51388
555.65         69.6114
556.08        69.80234
556.52        69.21665
556.96        69.49988
557.39        69.36594
557.83        69.33302
558.27        69.33294
558.70        69.39104
559.14        69.54204
559.57        69.74594
560.01        69.96117
560.45         70.1208
560.88        70.21204
561.32        70.19511
561.75        69.88947
562.19        69.44514
562.63        69.04958
563.06        68.81967
563.50        68.97121
563.93        69.37283
564.37        69.58142
564.80        69.51642
565.24        69.47323
565.68        69.48781
566.11        69.37115
566.55        69.42839
566.98        69.44307
567.42        69.49833
567.85        69.60918
568.29        69.81285
568.72        69.88689
569.16        69.97218
569.60        70.38562
570.03        70.77766
570.47        70.62962
570.90        70.29075
571.34        68.56534
571.77        69.50037
572.21        69.67596
572.64        69.15932
573.08        68.15623
573.51        65.10345
573.95        67.56167
574.38        71.82953
574.82        69.85872
575.25        69.25352
575.69        67.34305
576.12        66.33385
576.56        65.35213
576.99           66.87
577.42        70.19091
577.86         69.6505
578.29         69.0972
578.73        72.99026
579.16        67.36883
579.60        61.62186
580.03        64.39014
580.47        68.47845
580.90        70.21139
581.33        68.81879
581.77        67.67686
582.20        74.26489
582.64        73.83662
583.07        63.24575
583.51        62.03436
583.94        61.10025
584.37        63.87368
584.81        67.15758
585.24        70.69392
585.68        72.24069
586.11        71.29504
586.54        66.38489
586.98        64.12849
587.41        64.90066
587.85        68.40414
588.28        70.59579
588.71        67.53463
589.15        65.08921
589.58        66.44698
590.01        66.86258
590.45        67.80142
590.88        68.47398
591.31        67.99416
591.75        67.65908
592.18        67.78814
592.61        69.17939
593.05        69.60695
593.48        72.36546
593.91        73.11813
594.35        67.03893
594.78        65.65182
595.21        65.22469
595.65        68.29943
596.08        71.16012
596.51        68.42624
596.94        66.38219
597.38        66.90016
597.81        69.41702
598.24         71.5743
598.68        69.58952
599.11        68.63169
599.54        71.23753
599.97        72.58624
600.41        67.94679
600.84        68.11832
601.27        69.37508
601.70        68.55795
602.14        68.41823
602.57        67.40055
603.00        67.81102
603.43        69.58479
603.87        71.10864
604.30        70.69244
604.73        68.58196
605.16        67.18089
605.60        68.12932
606.03         69.1743
606.46        70.07961
606.89        69.63229
607.32        67.78384
607.76        67.31531
608.19        69.82973
608.62          68.917
609.05        67.73138
609.48        68.32993
609.92        68.43858
610.35        67.81562
610.78        70.21115
611.21        70.55659
611.64        67.62586
612.07        68.28896
612.50        68.66129
612.94        69.10638
613.37         68.5845
613.80        68.86069
614.23        69.40704
614.66        69.28481
615.09        69.34238
615.52        69.26749
615.96        69.22131
616.39        69.25792
616.82        68.19348
617.25        68.23489
617.68        68.88348
618.11         69.5444
618.54         69.8393
618.97        69.38765
619.40        68.51797
619.84        68.58213
620.27         69.5018
620.70        70.01475
621.13        69.99394
621.56        69.46498
621.99        68.66721
622.42        69.41346
622.85        71.27103
623.28        70.53898
623.71        70.02716
624.14        70.35282
624.57        70.01058
625.00        69.76189
625.43        70.03278
625.86        69.39979
626.29        69.49687
626.72        69.90836
627.15        69.60633
627.58        69.74264
628.01        69.86301
628.44        70.01332
628.87        70.20012
629.30        70.38315
629.73        70.43978
630.16        70.93951
630.59        70.42393
631.02        70.12399
631.45        69.72649
631.88        69.44606
632.31        69.32422
632.74        69.31267
633.17        69.38831
633.60        69.47927
634.03        69.55706
634.46          69.642
634.89        69.71291
635.32        69.73351
635.75        69.70135
636.18        69.61892
636.61        69.52668
637.04        69.49889
637.47        69.55028
637.89        69.66718
638.32        69.79138
638.75        69.87104
639.18        69.88413
639.61        69.85156
640.04        69.77797
640.47        69.67094
640.90        69.54458
641.33        69.39553
641.76         69.2399
642.18        69.17929
642.61        69.22035
643.04        69.23196
643.47        69.15733
643.90        69.53893
644.33        69.34216
644.76        69.40067
645.18        69.41606
645.61        69.40949
646.04        69.37267
646.47        69.28205
646.90        69.19891
647.33        69.20526
647.75        69.34287
648.18        69.58086
648.61         69.7484
649.04        69.76402
649.47        69.53486
649.89        68.57744
650.32        67.40985
650.75        67.45399
651.18        68.58418
651.61        69.47455
652.03        69.71246
652.46        69.39783
652.89        68.98997
653.32        68.47694
653.74         68.1252
654.17        69.39935
654.60        70.19167
655.03         67.4044
655.46        68.33036
655.88        72.71413
656.31        76.53934
656.74        170.8074
657.16        111.2923
657.59        39.26088
658.02        29.83072
658.45        51.94402
658.87        66.46087
659.30        69.76176
659.73        68.92107
660.15        66.55609
660.58        68.96348
661.01        70.73323
661.44        68.59134
661.86        67.85886
662.29        67.77825
662.72        68.52323
663.14        69.83914
663.57        69.77974
664.00         68.5961
664.42        68.32538
664.85        69.04225
665.27        69.44104
665.70        69.34688
666.13        69.21929
666.55        69.04504
666.98        68.68287
667.41        68.27495
667.83        68.11009
668.26        68.24539
668.69        68.56538
669.11        68.86871
669.54        69.16028
669.96        68.73708
670.39         68.2473
670.82        67.71607
671.24        67.46664
671.67        67.62876
672.09        68.17669
672.52        68.80053
672.94        69.40119
673.37        68.76532
673.80        68.57761
674.22        68.56551
674.65        68.48081
675.07        68.32605
675.50         68.1207
675.92        67.94349
676.35        67.95057
676.77        68.15606
677.20        68.43806
677.62        68.71402
678.05        68.85192
678.47        68.80512
678.90        68.62979
679.32        68.40942
679.75        68.15083
680.17         68.1619
680.60        68.19263
681.02        68.25378
681.45        68.21152
681.87        68.05396
682.30        67.81939
682.72         67.6113
683.15        67.61195
683.57        67.86185
684.00        68.19604
684.42        68.64848
684.85        68.86846
685.27        68.84206
685.70        68.66029
686.12        68.39973
686.54         68.1956
686.97        68.10023
687.39        68.15625
687.82        68.29465
688.24        68.38261
688.66         68.3738
689.09        68.34666
689.51        68.33781
689.94        68.35098
690.36         68.4024
690.78        68.47385
691.21        68.54813
691.63         68.6106
692.06        68.65323
692.48        68.68159
692.90        68.70261
693.33        68.71287
693.75        68.72048
694.17        68.74066
694.60        68.76171
695.02        68.77188
695.44        68.74285
695.87        68.76601
696.29        68.87546
696.71        68.81053
697.14        68.68669
697.56        69.17885
697.98         70.0133
698.41        70.02681
698.83        69.17496
699.25        68.71464
699.68        68.70415
700.10         68.6001
700.52        68.42894
700.94        68.54263
701.37        68.88587
701.79        69.24085
702.21        69.52013
702.64        69.78984
703.06        69.97086
703.48        69.92848
703.90        69.66495
704.33        69.21774
704.75        68.72174
705.17        68.48412
705.59        68.58446
706.01        68.83543
706.44        69.08622
706.86        69.68387
707.28        69.63672
707.70        69.71704
708.12        69.69849
708.55        69.66673
708.97        69.62263
709.39        69.54361
709.81        69.46798
710.23        69.45306
710.66        69.51038
711.08        69.66182
711.50        69.80188
711.92        69.77338
712.34        69.55133
712.76        69.17068
713.19        68.79234
713.61        68.70705
714.03        68.95812
714.45        69.46043
714.87        69.98404
715.29        70.16161
715.71         69.9165
716.13        69.36706
716.56        68.74213
716.98        68.44225
717.40        68.56372
717.82        68.98306
718.24        69.51232
718.66        69.83308
719.08        69.84886
719.50        69.66131
719.92        69.37752
720.34        69.18383
720.76         69.1406
721.19        69.06911
721.61        69.15793
722.03        69.23337
722.45        69.33564
722.87        69.47755
723.29        69.62981
723.71        69.72831
724.13        69.75661
724.55        69.72321
724.97        69.66796
725.39        69.66473
725.81        69.73055
726.23        69.84486
726.65        69.96867
727.07        70.03722
727.49        70.04043
727.91         70.0079
728.33         69.9726
728.75        69.98997
729.17         70.0689
729.59        70.17316
730.01        70.29818
730.43        70.42989
730.85        70.56098
731.27        70.72998
731.69         70.8607
732.10        70.80616
732.52        70.55359
732.94        70.18966
733.36        69.90472
733.78          69.873
734.20        70.12939
734.62        70.90614
735.04        71.91429
735.46        71.96314
735.88        71.26192
736.30        71.45929
736.72        72.51519
737.13         72.8333
737.55        72.21467
737.97        71.94611
738.39        72.09756
738.81        71.45887
739.23        70.41831
739.65        71.18629
740.06        73.27392
740.48        73.50114
740.90         71.9616
741.32        71.25172
741.74         71.6933
742.16        71.94402
742.57        72.07072
742.99        72.81215
743.41        73.91833
743.83        74.54529
744.25         74.5471
744.67        74.14639
745.08        73.62632
745.50        73.44576
745.92        73.74083
746.34        74.35099
746.75        75.05062
747.17         75.4649
747.59        75.51231
748.01        75.31009
748.42        75.06971
748.84        75.12749
749.26        75.57034
749.68        76.20643
750.09        76.85065
750.51        77.34813
750.93        77.56133
751.35        77.21455
751.76        76.52392
752.18        76.28085
752.60         76.4967
753.01        76.54197
753.43        76.41465
753.85        76.58512
754.27        77.06129
754.68        77.62274
755.10         78.1481
755.52         78.5935
755.93        78.90015
756.35        79.02162
756.77        79.02371
757.18        79.03034
757.60        79.10322
758.02        79.26936
758.43        79.27022
758.85         79.2822
759.26        78.02387
759.68        77.69449
760.10        79.13963
760.51         79.5844
760.93        79.32519
761.34        77.43823
761.76         77.2773
762.18        76.78128
762.59        76.92593
763.01        77.26456
763.42        77.92134
763.84        78.47308
764.26        78.85294
764.67        79.10252
765.09        79.13054
765.50        78.80701
765.92        78.17915
766.33        77.10194
766.75        76.01776
767.16        75.80595
767.58        76.57584
768.00        78.18056
768.41        80.17257
768.83        81.28478
769.24        81.12687
769.66        80.20998
770.07        79.04891
770.49        77.83289
770.90        76.87035
771.32        77.57147
771.73        79.35271
772.15        78.76421
772.56        76.29267
772.97        75.93719
773.39        77.57169
773.80        78.16118
774.22        77.48219
774.63        77.40116
775.05          77.886
775.46        78.09544
775.88        77.94074
776.29        77.66621
776.70        77.37611
777.12        77.26147
777.53        77.38494
777.95        77.64383
778.36        77.88758
778.77        77.85447
779.19        77.53262
779.60        76.99943
780.02        76.49774
780.43        76.48817
780.84        77.09636
781.26        77.74889
781.67        78.30357
782.09        79.41734
782.50        80.52821
782.91        79.34274
783.33        76.66046
783.74         75.7394
784.15        76.77973
784.57        77.72407
784.98        78.16266
785.39        78.42122
785.81        78.36919
786.22        77.81983
786.63        77.13752
787.04        76.96581
787.46        77.39717
787.87        78.23537
788.28        79.16055
788.70        79.62072
789.11        79.47726
789.52        78.93114
789.93        78.25469
790.35        77.81181
790.76        77.71789
791.17        77.91525
791.58        78.25609
792.00         78.4575
792.41        78.43233
792.82        78.25133
793.23        78.13252
793.65        78.09675
794.06        78.27706
794.47        79.39803
794.88        80.74826
795.29        80.17573
795.71        77.94189
796.12        75.82356
796.53        74.50559
796.94        74.24223
797.35         75.0907
797.76        76.52052
798.18        77.89473
798.59        78.80474
799.00        78.89648
799.41        77.95233
799.82        76.49249
800.23        75.65366
800.64        75.67248
801.06        76.13328
801.47        76.83233
801.88        77.31647
802.29        77.42509
802.70        77.36143
803.11        77.20147
803.52        77.02851
803.93        76.89222
804.34        76.70033
804.75        76.57074
805.17        76.70776
805.58        77.15109
805.99        77.85171
806.40        78.48759
806.81        78.50312
807.22        77.79741
807.63        76.55045
808.04        75.23238
808.45        74.56563
808.86        74.70948
809.27        75.46371
809.68        76.46965
810.09        77.05694
810.50        77.00237
810.91        76.51762
811.32        75.87181
811.73         75.5019
812.14        75.52922
812.55        75.76094
812.96         76.1047
813.37        76.40809
813.78        76.58965
814.19        76.76001
814.60         76.7809
815.01        76.41825
815.42        75.67396
815.83         74.5803
816.24        73.54554
816.65        73.29148
817.05        74.01555
817.46        75.47803
817.87        77.09512
818.28        77.81428
818.69        77.34898
819.10        75.95512
819.51        74.29337
819.92        73.49185
820.33        73.85561
820.74        75.05817
821.14        76.48839
821.55        77.05046
821.96        76.51087
822.37        75.24944
822.78        73.84622
823.19        73.15409
823.60        73.38918
824.00        74.31976
824.41        75.48501
824.82        76.19676
825.23        76.17776
825.64        75.67179
826.04        74.95139
826.45        74.40663
826.86        74.15862
827.27        74.05922
827.68        74.04736
828.08         74.0677
828.49        74.03194
828.90        74.05118
829.31        74.08813
829.72        74.04333
830.12        73.92769
830.53        73.72083
830.94        73.58307
831.35        73.74359
831.75        74.27304
832.16         75.0469
832.57        75.88329
832.97        76.38895
833.38        76.37905
833.79        75.97141
834.20         75.4203
834.60        75.10796
835.01        75.15781
835.42        75.45921
835.82        75.80972
836.23        75.78683
836.64         75.3341
837.04        74.60802
837.45        73.88331
837.86         73.5924
838.26        73.84133
838.67        74.45728
839.08        75.20551
839.48         75.6618
839.89        75.65884
840.29        75.34848
840.70         74.8781
841.11          74.455
841.51        74.16113
841.92        73.90049
842.33        73.71125
842.73        73.67364
843.14        73.75159
843.54        73.98161
843.95        74.18947
844.35        74.13822
844.76        73.77282
845.17         73.1805
845.57        72.56082
845.98        72.23026
846.38        72.25984
846.79        72.53421
847.19        72.92438
847.60        73.11285
848.00        73.03973
848.41        72.77542
848.81        72.45741
849.22        72.20959
849.62        72.13072
850.03        72.19738
850.43        72.40125
850.84        72.65462
851.24         72.9576
851.65        73.14648
852.05        73.44216
852.46         74.0303
852.86        74.90451
853.27        76.01024
853.67        76.70642
854.07        76.14326
854.48        74.33751
854.88        71.61626
855.29         68.9677
855.69        67.82442
856.10        68.48193
856.50        70.73218
856.90        73.76293
857.31        75.66157
857.71        75.77065
858.12        74.56204
858.52        72.86598
858.92         71.7877
859.33         71.5802
859.73        71.91325
860.13        72.58508
860.54        73.20084
860.94        73.64311
861.34        74.04691
861.75        74.37421
862.15        74.61877
862.55        74.75775
862.96        74.75206
863.36        74.71906
863.76        74.85146
864.17        75.18791
864.57        75.71574
864.97         76.3297
865.38        76.85847
865.78        77.29367
866.18        77.59078
866.58        77.80743
866.99        78.03836
867.39        78.35133
867.79        78.73722
868.19        78.95646
868.60        78.57341
869.00         77.5416
869.40        76.04348
869.80        74.73973
870.21         74.6191
870.61          75.977
871.01        78.52283
871.41         81.4571
871.81         83.3996
872.22        83.93606
872.62        83.39133
873.02        82.46036
873.42        82.45336
873.82        83.46869
874.22        84.79615
874.63        85.99631
875.03        86.19632
875.43         85.0685
875.83        83.99959
876.23        81.65068
876.63        80.45319
877.03        80.31485
877.44        81.42741
877.84        104.7897
878.24        89.36915
878.64        90.13576
879.04        90.48573
879.44        86.23904
879.84        84.05016
880.24        88.23544
880.64         90.2223
881.04        90.80087
881.44        90.83115
881.84        89.90216
882.24        88.24324
882.65        86.79797
883.05        86.38593
883.45        87.13898
883.85        89.10305
884.25        91.50948
884.65        92.70883
885.05        92.23611
885.45        90.65093
885.85        88.86552
886.25        88.13722
886.65        88.72495
887.05        90.21138
887.45        92.04933
887.85        93.26167
888.25        93.48936
888.65        93.06326
889.04        92.29959
889.44        91.72842
889.84         91.5023
890.24        91.40718
890.64        91.38944
891.04        91.40141
891.44        91.40231
891.84         91.4787
892.24        91.51597
892.64        91.26604
893.04          90.753
893.44        90.11359
893.83        89.60686
894.23        89.63008
894.63        90.21678
895.03        91.16963
895.43        92.35636
895.83        93.50372
896.23        94.42229
896.63        95.18594
897.02        95.47786
897.42        94.81901
897.82        93.27376
898.22        91.08984
898.62        89.03743
899.01        88.23909
899.41        88.89137
899.81        90.56501
900.21        92.62705
900.61         94.0239
901.00        94.41319
901.40        94.13164
901.80         93.3912
902.20        92.53175
902.59        91.72971
902.99        90.85899
903.39        90.11014
903.79        89.83449
904.18         90.1019
904.58        90.89938
904.98        91.92274
905.38        92.65699
905.77        92.94412
906.17        92.88115
906.57        92.67494
906.96         92.7151
907.36        93.00415
907.76        93.40491
908.15        93.68356
908.55        93.36096
908.95         92.4105
909.34        91.01153
909.74        89.54073
910.14        88.37801
910.53        87.69085
910.93        87.42993
911.33        87.59519
911.72         88.1844
912.12        89.01007
912.52        89.94054
912.91        90.84018
913.31        91.57465
913.70        92.17513
914.10        92.66425
914.49        92.82063
914.89        92.15593
915.29        90.69832
915.68        88.69371
916.08        87.02121
916.47        86.42742
916.87        86.94666
917.26        88.36252
917.66        89.93674
918.05         90.4664
918.45        89.66312
918.84        87.96024
919.24        86.17644
919.64        85.51083
920.03        86.27271
920.42        88.06572
920.82        90.30614
921.21        92.09122
921.61        92.88236
922.00         92.9696
922.40        92.48066
922.79        91.61382
923.19        90.56395
923.58        89.15244
923.98        87.46532
924.37        86.29287
924.77        86.13966
925.16        84.07203
925.55        85.43133
925.95        86.12125
926.34        87.65496
926.74         89.5974
927.13        91.48824
927.52         92.2672
927.92        91.79491
928.31        90.40429
928.70        88.55052
929.10        87.04827
929.49        86.12227
929.89        85.59235
930.28        85.56774
930.67        86.22609
931.07        87.39207
931.46        89.08755
931.85        90.64469
932.24        91.06602
932.64        90.18935
933.03        88.13165
933.42        85.47236
933.82        83.57013
934.21        82.84432
934.60        83.02007
934.99        83.46846
935.39        83.57358
935.78        83.25527
936.17        82.17857
936.56        80.21661
936.96        81.61655
937.35        80.76907
937.74        81.90092
938.13         82.9465
938.53        83.98631
938.92        85.08781
939.31        86.42165
939.70        87.67332
940.09        87.85641
940.49        86.76078
940.88        84.83615
941.27        82.95764
941.66        82.15366
942.05        82.53737
942.44        83.79182
942.84        85.46526
943.23        86.81758
943.62        87.45106
944.01        87.51965
944.40        87.19063
944.79        86.73409
945.18        86.23576
945.57        85.59092
945.97        84.66228
946.36        83.33918
946.75        81.90649
947.14        80.68116
947.53        79.97428
947.92        79.98447
948.31        80.65491
948.70        81.93378
949.09        83.55228
949.48        84.79883
949.87        85.28112
950.26        85.06731
950.65         84.4908
951.04        84.15279
951.43         84.1959
951.82        84.41667
952.21        84.50585
952.60        83.99704
952.99        82.82108
953.38        81.22262
953.77        79.57468
954.16        78.35145
954.55        77.69448
954.94        77.55223
955.33        77.64491
955.72        77.49596
956.11        77.00607
956.50        76.27827
956.89        75.82325
957.28        76.53767
957.66        78.62661
958.05        81.50352
958.44        84.27672
958.83         85.6659
959.22        85.38593
959.61        83.77553
960.00        81.53275
960.39        79.81103
960.78        79.00536
961.16        78.89996
961.55        79.04494
961.94        78.64985
962.33        77.55804
962.72        76.12125
963.11        74.90543
963.49        74.62855
963.88        75.38158
964.27        76.97218
964.66        78.79943
965.04        79.60929
965.43        78.89436
965.82        77.17252
966.21        75.31092
966.60        74.41187
966.98        74.68932
967.37        75.75738
967.76        77.19669
968.15         78.1712
968.53        78.33731
968.92         77.9173
969.31        77.20569
969.69        76.54909
970.08        76.07171
970.47        75.70115
970.86        75.28523
971.24        74.60408
971.63        73.63864
972.02        72.47031
972.40        71.55851
972.79        71.66758
973.17        73.05994
973.56        75.43824
973.95        78.01796
974.33        79.27644
974.72        78.70857
975.11        76.81687
975.49        74.60747
975.88        73.46262
976.26        73.61203
976.65        74.75023
977.04        76.21506
977.42        76.39601
977.81        74.75327
978.19        71.96249
978.58        69.56936
978.96        69.07637
979.35        70.69099
979.74        74.06091
980.12        78.45218
980.51        81.13126
980.89        81.31011
981.28        79.72934
981.66        77.52233
982.05        76.12322
982.43        75.80189
982.82         76.0012
983.20        76.74796
983.59        78.19277
983.97        80.36564
984.35        83.43132
984.74        86.46113
985.12        87.56949
985.51        85.69896
985.89         81.1343
986.28        75.50586
986.66        71.54186
987.04        70.27678
987.43        71.05115
987.81        72.41245
988.20        72.50098
988.58        70.73801
988.96        66.87888
989.35        61.66467
989.73        59.53659
990.12        63.48107
990.50         71.4599
990.88        78.18737
991.27        79.64098
991.65        76.39517
992.03        69.74259
992.42        62.50507
992.80        59.77864
993.18        62.85783
993.56         68.8947
993.95        75.19775
994.33        79.36535
994.71        80.88625
995.10        80.95451
995.48        79.83231
995.86        77.61633
996.24        74.47915
996.63        70.00623
997.01        65.07303
997.39         62.7156
997.77        64.25057
998.15        69.08327
998.54        74.56904
998.92        77.03947
999.30        75.31995
999.68        70.44041
1000.06        63.47109
1000.45        57.37271
1000.83        53.75399
1001.21        51.89174
1001.59        51.82715
1001.97        53.71748
1002.35         57.4079
1002.73        63.55403
1003.12        70.76703
1003.50        73.75196
1003.88        69.90616
1004.26        61.51485
1004.64        52.93581
1005.02        47.88372
1005.40        46.54716
1005.78        48.20181
1006.16         53.5901
1006.54        60.98394
1006.92        66.03324
1007.30        68.28214
1007.69        68.86546
1008.07        69.35023
1008.45        70.13694
1008.83        70.99184
1009.21        70.71737
1009.59        61.51708
1009.97        19.90909
1010.35       -57.44522
1010.73       -63.89182
1011.11       -24.99584
1011.49        7.548257
1011.86        32.22202
1012.24        46.68327
1012.62        53.29735
1013.00        55.28537
1013.38        54.30716
1013.76        52.30388
1014.14        55.23522
1014.52        67.72356
1014.90        90.11281
1015.28        116.2183
1015.66        129.1723
1016.04        118.5911
1016.41        88.47924
1016.79         53.6284
1017.17        30.11107
1017.55        20.25611
1017.93        17.17743
1018.31        17.78623
1018.69         21.1025
1019.06        26.74664
1019.44        35.44851
1019.82        48.29941
1020.20        61.51661
1020.58        67.92679
1020.95        57.69722
1021.33       -3.796671
1021.71        1012.302
1022.09        193.5732
1022.46        151.7148
1022.84        141.1444
1023.22        144.9324
1023.60        169.5804
1023.97        436.0751
1024.35        -17.6996
1024.73        34.82404
