SpectraSmart Spectrum 2.9.0.0
--------- Device Information -----------
Spectrum Name :  反射率_0
Saving Time :  2024/04/26 01:33:12
Spectro-Module Model Name : SE2030-DUVN
Spectro-Module Serial Number : OS361AC55029948
Wavelength Start : 200
Wavelength End : 1025
Wavelength Unit : Wavelength(nm)
Spectrum Unit : Reflectance(%)
-----------Spectrum Setting ------------
Integration Time : 20ms
Average : 10
Boxcar : 0
Background removal :  enabled
linearity correction :  enabled
SC :  disabled
Intensity correction :  disabled
DWT denoise :  enabled
savitzky-golay :  disabled
FFT :  disabled
Running average :  disabled
Kalman :  disabled
High pass :  disabled
---------------BEGIN--------------------
Wavelength(nm)             Reflectance(%)
200.29               0
200.75        92.09452
201.21        85.49377
201.67        77.44282
202.13         72.8017
202.58        72.25347
203.04        74.64571
203.50        78.20026
203.96        79.95776
204.42         79.2396
204.88        77.31605
205.34         75.6352
205.80        75.67464
206.26        78.16675
206.72        84.60507
207.18        97.61668
207.64        109.5768
208.10        102.8608
208.55        87.46152
209.01        77.71642
209.47         74.8838
209.93        76.15376
210.39        80.22276
210.85        84.51491
211.31        83.64226
211.77        76.37931
212.23        65.08685
212.69        54.51506
213.14        51.94373
213.60        58.38134
214.06        71.46221
214.52        86.52518
214.98        96.33768
215.44        98.75481
215.90        96.12217
216.36        90.43823
216.81        84.41344
217.27        79.71217
217.73        75.72135
218.19        72.16495
218.65        68.53555
219.11         64.2397
219.57         58.6689
220.02        52.53858
220.48        50.17425
220.94        53.17017
221.40        60.18977
221.86         65.4524
222.32        63.25549
222.77         54.9024
223.23        44.22663
223.69        35.36285
224.15        32.54974
224.61        35.21252
225.06        41.19981
225.52        47.40302
225.98        49.97901
226.44        48.23703
226.90        43.82024
227.36        38.83897
227.81        36.10502
228.27        36.49042
228.73        38.77999
229.19        41.78439
229.65        43.80267
230.10        44.39259
230.56        44.20697
231.02        43.83844
231.48         43.9027
231.93        44.46749
232.39        45.29993
232.85        46.05905
233.31        46.30827
233.77        45.95202
234.22        45.12395
234.68        44.21991
235.14        43.91879
235.60         44.4338
236.05        45.57859
236.51         46.8877
236.97        47.67296
237.43         47.8533
237.88        47.72948
238.34         47.7131
238.80        48.93787
239.26        51.85412
239.71        56.10218
240.17        60.92021
240.63        65.55048
241.08        69.56207
241.54        72.79157
242.00        75.30408
242.46        77.56603
242.91        80.53454
243.37        85.45683
243.83        98.29958
244.28        137.1959
244.74        176.2267
245.20        148.3768
245.66         126.427
246.11        121.6137
246.57        127.6563
247.03         151.925
247.48         226.396
247.94        198.0451
248.40        120.9029
248.85        95.96295
249.31        88.55537
249.77        88.34731
250.22        92.47948
250.68        101.0616
251.14        114.0133
251.59        123.5177
252.05        121.1562
252.51        110.1948
252.96         97.7169
253.42        90.83987
253.88        89.23556
254.33        90.43829
254.79        93.63158
255.25        97.14214
255.70        99.93145
256.16        102.5484
256.62         104.093
257.07        103.5552
257.53        101.5743
257.99        98.13996
258.44        94.01561
258.90        91.26093
259.35        89.15789
259.81        87.48473
260.27         85.1245
260.72        80.93876
261.18        75.67941
261.63        69.74164
262.09        64.39692
262.55        60.38675
263.00        57.66933
263.46        55.99594
263.91        54.65907
264.37         53.2348
264.83        51.48379
265.28        49.44685
265.74        47.50717
266.19         45.9771
266.65        45.07841
267.11        44.57201
267.56        44.11748
268.02        43.32212
268.47        42.05277
268.93        40.45326
269.38        38.71209
269.84        37.38586
270.30        36.63077
270.75        36.30866
271.21        36.14988
271.66        35.73907
272.12        34.96777
272.57        33.97851
273.03        33.00251
273.48        32.29132
273.94        31.93333
274.39        31.78118
274.85        31.69792
275.31        31.47485
275.76        31.04236
276.22        30.49336
276.67        29.88448
277.13        29.39784
277.58        29.01702
278.04        28.72276
278.49        28.39399
278.95         27.9311
279.40        27.29121
279.86        26.58298
280.31        25.86289
280.77        25.32892
281.22        24.97731
281.68        24.77825
282.13        24.65532
282.59        24.53783
283.04        24.39305
283.50        24.27969
283.95        24.17109
284.41        24.04927
284.86        23.90877
285.32        23.75768
285.77        23.66885
286.22        23.81962
286.68        24.19677
287.13        24.70673
287.59        25.16485
288.04        25.28569
288.50        25.05046
288.95        24.54429
289.41        23.96748
289.86        23.51116
290.32        23.29697
290.77         23.2587
291.22        23.39062
291.68        23.64032
292.13        23.99247
292.59        24.47526
293.04        25.09585
293.50        25.85739
293.95        26.73544
294.40        27.69169
294.86        28.67906
295.31        29.64367
295.77        30.58663
296.22        31.53257
296.68        32.50898
297.13        33.52716
297.58        34.60829
298.04        35.75647
298.49        37.00822
298.95        38.47329
299.40        40.14614
299.85        41.98527
300.31        43.86816
300.76        45.59526
301.21        47.09292
301.67        48.44824
302.12        49.68875
302.58        50.96343
303.03        52.29245
303.48        53.66542
303.94        55.16428
304.39        56.85016
304.84        58.72776
305.30        60.76637
305.75        62.77463
306.20        64.48397
306.66        65.85987
307.11        66.93039
307.57        67.90726
308.02         68.9921
308.47        70.29869
308.93        71.77656
309.38        73.30545
309.83        74.74771
310.29        76.04636
310.74        77.20248
311.19        78.30192
311.65        79.47363
312.10        80.72824
312.55        82.03934
313.00        83.22966
313.46        84.02257
313.91        84.35883
314.36        84.34707
314.82        84.29806
315.27        84.63587
315.72        85.48593
316.18        86.72394
316.63        88.07915
317.08        89.05492
317.53         89.5099
317.99        89.57458
318.44        89.53274
318.89        89.84916
319.35        90.61346
319.80        91.70591
320.25        92.79811
320.70        93.35187
321.16        93.24496
321.61        92.66448
322.06        91.96459
322.51        91.69498
322.97        91.97012
323.42         92.6593
323.87        93.48693
324.32        93.98128
324.78        93.99553
325.23        93.72643
325.68        93.35605
326.13        93.20535
326.59        93.35019
327.04        93.70453
327.49        94.18142
327.94        94.67751
328.39        95.13482
328.85         95.5746
329.30        95.99467
329.75        96.21325
330.20        96.23235
330.66        96.09278
331.11        96.02115
331.56        96.31003
332.01         97.0465
332.46        98.13187
332.92        99.39982
333.37        100.7265
333.82        101.9105
334.27        102.9732
334.72        103.7844
335.17        104.1572
335.63        104.0897
336.08        103.6935
336.53        103.2095
336.98        103.0811
337.43        103.4354
337.88        104.1612
338.34        105.1234
338.79         106.173
339.24        107.1731
339.69         108.185
340.14        109.0552
340.59        109.5183
341.05        109.5498
341.50        109.2065
341.95        108.7941
342.40        108.8037
342.85        109.3468
343.30        110.3031
343.75        111.4104
344.20        112.1903
344.66         112.502
345.11        112.4564
345.56        112.2546
346.01        112.2029
346.46        112.3879
346.91        112.7121
347.36        113.0429
347.81        113.1868
348.26        113.1126
348.72        112.9223
349.17        112.7375
349.62        112.7921
350.07        113.1261
350.52        113.6347
350.97        114.1724
351.42        114.5291
351.87        114.6427
352.32        114.5788
352.77        114.3825
353.22        114.1256
353.67        113.8522
354.13        113.5622
354.58        113.2611
355.03        113.0256
355.48        112.8555
355.93        112.7181
356.38        112.5745
356.83        112.3543
357.28        112.0263
357.73        111.6148
358.18        111.0756
358.63        110.3417
359.08         109.439
359.53        108.4187
359.98        107.4233
360.43        106.6705
360.88        106.1971
361.33        105.9223
361.78        105.7383
362.23        105.4634
362.68        105.0361
363.13        104.5199
363.58        103.8999
364.03        103.1541
364.48         102.304
364.93        101.3478
365.38        100.4176
365.83        99.73643
366.28        99.33582
366.73        99.14267
367.18         98.9841
367.63        98.57024
368.08         97.8382
368.53        96.90257
368.98        95.88426
369.43        94.95866
369.88        94.18911
370.33        93.52429
370.78        92.97723
371.23        92.57519
371.68        92.30585
372.13        92.16213
372.58        92.07751
373.03        91.92774
373.48        91.67783
373.93        91.35892
374.38        90.99304
374.83        90.62358
375.28        90.26443
375.72        89.87724
376.17        89.51456
376.62        89.24289
377.07        89.05669
377.52         88.9229
377.97        88.73753
378.42        88.33266
378.87        87.69638
379.32        86.92197
379.77        86.10505
380.22         85.3735
380.67        84.75768
381.11        84.20591
381.56        83.74206
382.01        83.41232
382.46         83.2159
382.91        83.16476
383.36        83.10798
383.81        82.80147
384.26        82.21552
384.71        81.41579
385.15        80.62975
385.60        80.27657
386.05        80.37079
386.50        80.77528
386.95        81.19662
387.40        81.14175
387.85        80.53535
388.29        79.55719
388.74        78.59297
389.19        77.87827
389.64        77.45779
390.09        77.19349
390.54        77.06794
390.98        77.05888
391.43         77.1246
391.88        77.26723
392.33        77.32088
392.78        76.98405
393.23        76.26727
393.67        75.39229
394.12        74.68196
394.57        74.08011
395.02        73.76801
395.47        74.32706
395.91        75.39313
396.36        76.13399
396.81        76.31097
397.26         76.3246
397.71        76.23904
398.15        75.88194
398.60        75.38474
399.05        74.98112
399.50        74.63176
399.95        73.67895
400.39         72.6693
400.84        72.28181
401.29         72.5731
401.74        72.72938
402.18        72.65109
402.63        72.58141
403.08         72.6109
403.53        72.82098
403.97        73.19451
404.42        73.58084
404.87        73.81643
405.32        73.67079
405.76        73.10909
406.21        72.38886
406.66        71.68172
407.11        71.06898
407.55        70.76261
408.00        71.00528
408.45        71.67319
408.90        72.42609
409.34        72.86645
409.79        72.33094
410.24        71.14371
410.68        70.53387
411.13        70.62379
411.58        70.70242
412.03        70.73888
412.47        71.02069
412.92          71.464
413.37        72.00955
413.81        72.47154
414.26        72.60959
414.71        72.36546
415.15        71.80619
415.60        71.14245
416.05        70.73572
416.49        70.69308
416.94        70.94361
417.39        71.27956
417.83        71.32149
418.28        71.00137
418.73        70.45641
419.17        69.95342
419.62         69.9166
420.07        70.37331
420.51        71.15575
420.96        71.97797
421.41        72.27759
421.85        71.89959
422.30         71.4006
422.74        70.87383
423.19        69.97163
423.64        69.01844
424.08        69.31808
424.53        70.64655
424.98        71.35316
425.42        71.23693
425.87         71.3717
426.31        71.76881
426.76        71.60061
427.21        71.10191
427.65        71.29706
428.10        72.11211
428.54        72.84691
428.99        73.44727
429.44        73.76237
429.88        73.80556
430.33        74.66656
430.77         75.6543
431.22         74.3967
431.66        71.54179
432.11        70.06325
432.56        70.23819
433.00        71.01675
433.45        72.35248
433.89        74.08763
434.34        74.98072
434.78        77.28035
435.23        73.21351
435.67        70.51209
436.12        72.94257
436.57        74.03818
437.01        74.94186
437.46        75.42455
437.90        75.73729
438.35        74.48693
438.79        75.56273
439.24        75.36611
439.68        75.07664
440.13        74.67189
440.57        74.50261
441.02        75.36466
441.46        76.87521
441.91        77.93011
442.35        78.13898
442.80        77.34072
443.24        76.00776
443.69          76.354
444.13        77.98915
444.58        78.14542
445.02         76.0648
445.47        75.84491
445.91        77.08002
446.36        77.51087
446.80        77.03886
447.24        76.91633
447.69        77.19891
448.13        77.32031
448.58        77.35462
449.02        77.67335
449.47        78.19255
449.91         78.5083
450.36        78.58139
450.80        78.60502
451.25        78.58649
451.69        78.41891
452.13        78.14392
452.58        77.81029
453.02        77.51765
453.47        77.46473
453.91        77.65306
454.36         78.0176
454.80        78.43269
455.24        78.54425
455.69        78.29256
456.13        78.03273
456.58        77.87348
457.02        77.12095
457.46         76.4767
457.91        76.74675
458.35        77.74203
458.79        78.18916
459.24        78.06813
459.68        77.70985
460.13        77.06807
460.57        77.40684
461.01        77.11166
461.46        75.84924
461.90        75.27704
462.34        76.32389
462.79        75.72674
463.23        75.52429
463.68        76.05621
464.12        76.61634
464.56         77.3299
465.01        77.27629
465.45        76.54951
465.89        76.16209
466.34        76.01428
466.78        75.21436
467.22        74.31977
467.67        73.13412
468.11        74.97073
468.55        75.62616
468.99         75.7429
469.44        75.33954
469.88        74.65291
470.32        74.51664
470.77        74.85348
471.21        74.78449
471.65        74.27954
472.10        74.03239
472.54        74.09508
472.98        74.18696
473.42        74.28062
473.87        74.60797
474.31        74.98921
474.75        74.84722
475.20        74.32779
475.64        74.19727
476.08        74.46049
476.52        74.44803
476.97        74.12979
477.41        74.04051
477.85        74.28185
478.29        74.07436
478.74        74.31796
479.18        74.84236
479.62        73.55899
480.06        73.78406
480.50        74.56042
480.95        74.97381
481.39        74.89314
481.83        74.12279
482.27        74.21273
482.72        73.83169
483.16        72.44884
483.60        72.70831
484.04        74.36022
484.48        74.72404
484.93        74.19099
485.37         76.3763
485.81        76.86023
486.25        74.95896
486.69        102.8495
487.14        83.26769
487.58        51.49327
488.02          62.916
488.46        71.96912
488.90        71.02617
489.34        72.62371
489.79        71.80143
490.23        73.83194
490.67        74.63144
491.11        73.42465
491.55        73.40736
491.99        74.07824
492.43        73.93651
492.88        73.06911
493.32        72.93835
493.76        73.07249
494.20        73.33572
494.64        73.47053
495.08        73.78673
495.52        74.23653
495.96        74.13883
496.41        73.57394
496.85        74.04877
497.29        75.20039
497.73        74.05024
498.17        71.63622
498.61        71.55615
499.05        73.91396
499.49        74.51184
499.93        74.84464
500.37        74.70538
500.82        73.96934
501.26        73.75067
501.70         73.9089
502.14        74.24403
502.58        74.54491
503.02        74.36913
503.46        74.15022
503.90          73.644
504.34        73.17309
504.78        72.89816
505.22        72.88213
505.66           73.23
506.10        73.80986
506.54        73.95695
506.98        73.51049
507.42        73.68906
507.86        73.47401
508.30        72.56287
508.74        73.31441
509.18        73.52932
509.62        73.84392
510.06        73.96737
510.50        73.87193
510.94        73.60185
511.38        73.26622
511.82        73.10014
512.26        73.15369
512.70        73.35742
513.14        73.61954
513.58        73.79251
514.02        73.82517
514.46        73.75906
514.90        73.65534
515.34        73.59346
515.78         73.5873
516.22        73.66263
516.66        73.76945
517.10        73.68067
517.54        73.38192
517.98        73.45727
518.42         73.2039
518.86        73.26132
519.30        73.41181
519.74        73.67883
520.18        73.98174
520.62        74.18395
521.06        74.25589
521.50        74.23499
521.93         74.1499
522.37        74.04674
522.81        73.95771
523.25        73.87357
523.69        73.82752
524.13        73.87276
524.57        74.01205
525.01         74.2263
525.45         74.4649
525.89        74.64358
526.32        74.72615
526.76        74.72537
527.20        74.65435
527.64        74.57586
528.08        74.52946
528.52        74.39307
528.96        74.14458
529.40        74.08475
529.83        74.20023
530.27        73.41941
530.71        73.31496
531.15        73.14458
531.59        73.37331
532.03        73.73982
532.46        74.16452
532.90        74.55312
533.34        74.82678
533.78        75.00785
534.22        75.07218
534.66        74.99757
535.09        74.78871
535.53        74.48345
535.97        74.15342
536.41        73.93785
536.85        73.87528
537.28        73.93925
537.72        74.06077
538.16        74.13219
538.60        74.12077
539.04         74.0005
539.47        73.81412
539.91        73.82502
540.35        73.96828
540.79        73.91148
541.22         73.6716
541.66        73.57749
542.10        73.63064
542.54        73.63892
542.97        73.61283
543.41        73.68013
543.85        73.83159
544.29        74.05548
544.72         74.2346
545.16         74.2223
545.60        73.98708
546.04        73.56104
546.47        73.14932
546.91        73.10086
547.35        73.45422
547.79        74.12074
548.22         74.7745
548.66        74.88517
549.10        74.38068
549.53        73.50207
549.97        72.63121
550.41        72.21846
550.84        72.36148
551.28        73.00449
551.72        73.90436
552.15         74.3422
552.59        74.12441
553.03        74.52252
553.46        73.75529
553.90        73.62454
554.34        73.63533
554.77        73.66265
555.21        73.64674
555.65        73.76678
556.08        74.05508
556.52        73.58274
556.96        74.04691
557.39        73.92717
557.83        73.79294
558.27        73.75407
558.70        73.84475
559.14         73.9752
559.57        74.10568
560.01        74.28953
560.45        74.46935
560.88        74.54738
561.32        74.49873
561.75          74.295
562.19        74.02197
562.63        73.56381
563.06        73.08563
563.50        73.15353
563.93        73.62874
564.37        73.82243
564.80        73.65258
565.24        73.52814
565.68        73.48853
566.11        73.42911
566.55        73.40855
566.98        73.44353
567.42        73.54663
567.85        73.59682
568.29        73.94759
568.72        73.96404
569.16        73.93904
569.60        74.48491
570.03        74.97312
570.47        75.03385
570.90        74.89594
571.34        73.10686
571.77         73.9604
572.21        74.41235
572.64        73.69456
573.08        72.47365
573.51         69.4645
573.95        72.10744
574.38        76.56572
574.82        74.79639
575.25        74.52316
575.69        71.94373
576.12        70.50256
576.56        69.66209
576.99        71.15091
577.42        74.75169
577.86        74.99566
578.29        73.86813
578.73        77.89894
579.16        71.92758
579.60        65.84116
580.03        68.52231
580.47        72.99236
580.90        74.86867
581.33        73.62319
581.77        72.36575
582.20        79.54893
582.64        79.74696
583.07        67.99424
583.51        66.75967
583.94        65.33553
584.37        68.39288
584.81        71.69733
585.24        75.53339
585.68        77.21658
586.11        76.40678
586.54        70.94737
586.98        68.62262
587.41        69.04015
587.85        72.90926
588.28        75.50346
588.71        71.80467
589.15         69.3405
589.58        71.04902
590.01        71.30318
590.45        72.38626
590.88        73.05594
591.31        72.27667
591.75        71.84392
592.18        71.95784
592.61        73.59791
593.05        74.03925
593.48        77.27952
593.91        77.84819
594.35        71.95515
594.78        70.37451
595.21        69.53049
595.65        72.75284
596.08        76.20441
596.51        72.81215
596.94        70.93546
597.38        71.44076
597.81        74.22861
598.24        76.19881
598.68        74.38187
599.11         73.1927
599.54        76.10026
599.97        77.90704
600.41        72.36324
600.84        72.58355
601.27        74.25497
601.70        72.85167
602.14        72.96433
602.57        71.78797
603.00        72.38368
603.43        73.88982
603.87        75.27243
604.30        75.47331
604.73        73.32875
605.16        71.35891
605.60        72.36516
606.03        73.37818
606.46        74.43335
606.89        74.65421
607.32        72.35387
607.76        71.63441
608.19        74.40398
608.62        73.93838
609.05        72.32599
609.48        72.81666
609.92        72.68949
610.35         71.9258
610.78        74.32844
611.21        75.31281
611.64        71.64446
612.07        72.36349
612.50        72.79061
612.94        73.29826
613.37        72.78054
613.80        72.85766
614.23        73.58231
614.66        73.32771
615.09        73.77912
615.52        73.66764
615.96        73.32877
616.39        73.52175
616.82        72.43179
617.25        72.13537
617.68        72.90907
618.11        73.58643
618.54        74.08931
618.97        73.58023
619.40        72.47655
619.84        72.46931
620.27        73.47354
620.70        74.09741
621.13        74.15012
621.56        73.40855
621.99        72.28967
622.42        73.15006
622.85        75.47009
623.28        74.96564
623.71        74.06425
624.14        74.41916
624.57        73.59492
625.00        73.51227
625.43         73.5689
625.86        73.01838
626.29        73.32359
626.72        73.61527
627.15        73.51562
627.58        73.67648
628.01        73.83038
628.44        73.98275
628.87        74.18778
629.30        74.39342
629.73        74.43891
630.16        75.27326
630.59        74.37292
631.02        74.00161
631.45        73.57319
631.88        73.25439
632.31         73.0773
632.74        73.26131
633.17        73.35228
633.60        73.52558
634.03        73.61824
634.46        73.68925
634.89         73.7263
635.32        73.72657
635.75        73.70366
636.18        73.61279
636.61        73.52299
637.04        73.61345
637.47        73.86938
637.89        74.13533
638.32        74.30272
638.75        74.35361
639.18        74.25814
639.61        74.00036
640.04        73.65129
640.47        73.35648
640.90        73.16388
641.33         73.0331
641.76        72.94764
642.18        72.98264
642.61        73.12717
643.04        73.20153
643.47        73.12537
643.90        73.71763
644.33        73.43758
644.76        73.51748
645.18        73.51817
645.61        73.48969
646.04        73.43133
646.47        73.33197
646.90        73.25117
647.33        73.24903
647.75        73.36156
648.18        73.55961
648.61        73.70405
649.04        73.72635
649.47        73.52605
649.89        72.71481
650.32        71.73696
650.75         71.6394
651.18          72.397
651.61        73.33111
652.03        73.97534
652.46        73.77114
652.89        73.13137
653.32        72.57453
653.74        72.00562
654.17         73.6349
654.60        74.15031
655.03        71.97525
655.46        72.56683
655.88        76.90659
656.31         82.0563
656.74        188.0532
657.16        122.0795
657.59        42.98028
658.02        32.08812
658.45        55.40503
658.87         70.3429
659.30        73.56649
659.73        72.52633
660.15        70.63776
660.58        72.91103
661.01        74.83828
661.44        72.48901
661.86        71.72416
662.29        71.72387
662.72        72.53623
663.14        73.90443
663.57        73.85226
664.00        72.64646
664.42         72.3928
664.85        73.16405
665.27        73.58073
665.70        73.45881
666.13        73.29574
666.55        73.08074
666.98        72.65755
667.41        72.18157
667.83        71.97157
668.26        72.09277
668.69         72.4209
669.11        72.74445
669.54        73.07703
669.96        72.67244
670.39        72.18983
670.82         71.6502
671.24        71.42673
671.67        71.63445
672.09        72.16462
672.52        72.70333
672.94        73.24602
673.37        72.52401
673.80        72.25793
674.22        72.18589
674.65        72.11265
675.07        72.04565
675.50        71.98958
675.92        71.96374
676.35        72.03236
676.77        72.19214
677.20        72.34153
677.62        72.47475
678.05        72.58794
678.47        72.66237
678.90        72.71209
679.32        72.73664
679.75        72.60343
680.17        72.60326
680.60        72.51326
681.02        72.41405
681.45        72.25667
681.87        72.05545
682.30        71.87421
682.72        71.76918
683.15        71.71688
683.57        71.80093
684.00        72.18337
684.42        72.85008
684.85        73.14796
685.27        73.04066
685.70        72.77894
686.12        72.46656
686.54        72.25792
686.97        72.20259
687.39         72.2362
687.82        72.28968
688.24        72.40908
688.66        72.50139
689.09        72.35587
689.51        72.09436
689.94        72.08255
690.36        72.34377
690.78        72.74049
691.21        73.15192
691.63        73.25477
692.06        72.95343
692.48        73.16764
692.90        72.49999
693.33        72.44041
693.75          72.584
694.17        72.88248
694.60        73.22625
695.02        73.44736
695.44        73.46716
695.87        73.52852
696.29        73.66151
696.71        73.27396
697.14         72.6209
697.56        73.07951
697.98        74.35938
698.41        74.23707
698.83        73.46072
699.25        73.01299
699.68        73.17168
700.10         73.1402
700.52          72.929
700.94        72.96003
701.37         73.1868
701.79         73.4277
702.21        73.61076
702.64        73.78896
703.06        73.90127
703.48        73.84146
703.90        73.61455
704.33        73.25716
704.75        72.85759
705.17        72.65024
705.59        72.69575
706.01        72.80982
706.44         72.9102
706.86        73.47668
707.28        73.48693
707.70         73.7752
708.12        73.99034
708.55        73.92493
708.97        73.61382
709.39        73.37749
709.81        73.31081
710.23        73.29495
710.66        73.35802
711.08         73.6636
711.50        74.03843
711.92         74.1362
712.34        73.90285
712.76        73.42623
713.19         72.9379
713.61        72.84685
714.03        73.22038
714.45        73.92381
714.87        74.65184
715.29        74.92435
715.71        74.63519
716.13        73.94188
716.56        73.12647
716.98        72.67491
717.40        72.71608
717.82        73.10954
718.24        73.64874
718.66        73.98341
719.08        74.00582
719.50         73.8262
719.92        73.57089
720.34        73.45441
720.76        73.53563
721.19         73.6115
721.61        73.83627
722.03        73.95272
722.45        73.98983
722.87        73.98284
723.29        73.96111
723.71        73.95734
724.13         73.9829
724.55        74.02426
724.97        74.08129
725.39        74.13537
725.81        74.17553
726.23        74.24997
726.65        74.36351
727.07        74.27875
727.49        74.38138
727.91        74.37747
728.33        74.38107
728.75        74.38594
729.17        74.39721
729.59        74.39426
730.01        74.40292
730.43        74.51912
730.85         74.7591
731.27        75.02885
731.69        75.18667
732.10        75.51112
732.52        75.12148
732.94        74.79381
733.36         74.4779
733.78        74.37391
734.20        74.53154
734.62        75.23036
735.04        76.18193
735.46        76.14744
735.88        75.36004
736.30        75.49866
736.72        76.58005
737.13        77.11814
737.55        76.82616
737.97        76.87706
738.39        77.23869
738.81        76.37851
739.23        74.84956
739.65        75.65758
740.06        78.26129
740.48        78.60113
740.90        76.75273
741.32        75.95808
741.74        76.48009
742.16        76.70306
742.57        76.66753
742.99        77.23934
743.41        78.20872
743.83        78.77013
744.25        78.79168
744.67        78.47272
745.08        78.04959
745.50        77.90739
745.92        78.16315
746.34           78.68
746.75         79.2653
747.17        79.59685
747.59        79.61277
748.01        79.41966
748.42        79.22945
748.84        79.35915
749.26        79.89529
749.68         80.6878
750.09        81.51321
750.51        82.10387
750.93         82.3123
751.35         81.9232
751.76        81.18011
752.18        80.90227
752.60        81.11102
753.01        81.15924
753.43         81.0518
753.85        81.28371
754.27        81.86378
754.68        82.56391
755.10        83.22772
755.52          83.766
755.93        84.09642
756.35        84.16133
756.77         84.0684
757.18        84.01685
757.60        84.07252
758.02        84.35205
758.43        84.46992
758.85        84.50795
759.26        82.22063
759.68        82.38574
760.10        83.92701
760.51        84.77083
760.93        84.54663
761.34        82.77937
761.76        82.33767
762.18        81.66869
762.59        81.67788
763.01        82.04204
763.42        82.72907
763.84        83.41767
764.26        83.96495
764.67        84.38277
765.09        84.54359
765.50         84.3109
765.92        83.70333
766.33        82.49463
766.75        81.15408
767.16        80.69937
767.58        81.32083
768.00         82.8001
768.41        84.75812
768.83        86.29987
769.24        86.77809
769.66        85.83256
770.07        84.09844
770.49        82.45152
770.90        81.38165
771.32        82.46568
771.73        84.93615
772.15        84.54059
772.56        81.72963
772.97        81.13006
773.39        82.69651
773.80        83.24632
774.22        82.55874
774.63        82.48669
775.05        82.97093
775.46         83.1992
775.88        83.06734
776.29        82.76961
776.70        82.42569
777.12        82.29153
777.53        82.43674
777.95        82.72954
778.36        83.00365
778.77        82.95981
779.19        82.57592
779.60        81.98351
780.02        81.44088
780.43        81.30946
780.84        81.75566
781.26        82.48624
781.67        83.31976
782.09        84.41836
782.50        85.30238
782.91        84.33476
783.33        82.18549
783.74        81.42098
784.15        82.19752
784.57        82.76878
784.98        82.85678
785.39        82.90952
785.81        82.85014
786.22        82.40125
786.63        81.87232
787.04        81.87907
787.46         82.4781
787.87        83.45363
788.28        84.48581
788.70        85.01819
789.11        84.90514
789.52        84.39069
789.93        83.72533
790.35        83.12625
790.76          82.767
791.17        82.87675
791.58        83.30748
792.00        83.49767
792.41        83.34984
792.82        83.15781
793.23        83.09524
793.65        82.99588
794.06        83.08435
794.47        84.22999
794.88        85.58768
795.29        85.72906
795.71        82.85943
796.12        80.71133
796.53        79.38746
796.94        79.05746
797.35        79.77477
797.76        81.10213
798.18        82.44276
798.59        83.36052
799.00        83.50491
799.41        82.66277
799.82        81.32201
800.23         80.5724
800.64        80.63604
801.06        81.09516
801.47        81.76572
801.88        82.23513
802.29        82.34647
802.70        82.27905
803.11        82.09496
803.52        81.85857
803.93        81.63883
804.34        81.37842
804.75        81.18402
805.17        81.34031
805.58        81.92085
805.99        82.52749
806.40        82.95659
806.81        83.64931
807.22        84.13161
807.63        82.73171
808.04         80.1529
808.45        79.01122
808.86        79.57059
809.27        80.57623
809.68        81.54821
810.09        82.12161
810.50        82.04983
810.91        81.48185
811.32        80.72439
811.73        80.26838
812.14        80.25098
812.55        80.46481
812.96        80.84657
813.37        81.27822
813.78        81.67064
814.19        82.12962
814.60        82.40353
815.01        82.08726
815.42        81.15672
815.83        79.67879
816.24        78.22186
816.65        77.79174
817.05        78.66299
817.46        80.52644
817.87        82.59691
818.28        83.47073
818.69        82.77556
819.10        80.87536
819.51        78.65709
819.92        77.62775
820.33          78.188
820.74        79.87535
821.14         81.8864
821.55        82.80629
821.96        82.30107
822.37        80.86134
822.78        79.15541
823.19        78.16048
823.60        78.14829
824.00        78.85152
824.41         79.8437
824.82        80.52584
825.23        80.63931
825.64        80.41523
826.04        80.04585
826.45        79.79359
826.86        79.73331
827.27        79.71706
827.68        79.71029
828.08        79.72264
828.49        79.67126
828.90        79.65015
829.31        79.55928
829.72        79.20042
830.12        78.60214
830.53        77.83495
830.94        77.19511
831.35        77.07601
831.75        77.58298
832.16        78.54121
832.57        79.71931
832.97        80.61372
833.38        80.95847
833.79        80.87175
834.20        80.55855
834.60        80.34892
835.01        80.36281
835.42        80.48623
835.82        80.58066
836.23        80.34226
836.64        79.76727
837.04        79.01614
837.45        78.31396
837.86        77.99944
838.26        78.16061
838.67        78.64042
839.08        79.30398
839.48        79.89279
839.89          80.248
840.29        80.44234
840.70        80.43042
841.11        80.13493
841.51        79.59185
841.92         78.8065
842.33        78.00291
842.73        77.57046
843.14         77.5675
843.54        77.94246
843.95        78.42731
844.35        78.62188
844.76         78.4023
845.17        77.90833
845.57         77.3343
845.98        76.98697
846.38         76.9463
846.79        77.08279
847.19        77.31796
847.60        77.43152
848.00        77.39495
848.41         77.2628
848.81         77.1176
849.22        76.99416
849.62        76.97271
850.03        77.04901
850.43         77.2661
850.84        77.61292
851.24        78.11124
851.65        78.55396
852.05         79.0981
852.46        79.82109
852.86        80.69333
853.27         81.7056
853.67        82.26131
854.07        81.58411
854.48        79.71484
854.88        76.94517
855.29        74.27927
855.69         73.1712
856.10        73.91034
856.50        76.31136
856.90        79.47421
857.31        81.30486
857.71         81.1247
858.12        79.47826
858.52        77.37769
858.92        76.16969
859.33        76.14052
859.73        76.90739
860.13        78.13753
860.54        79.13987
860.94        79.67865
861.34        79.94853
861.75        80.02515
862.15        80.10189
862.55         80.2161
862.96         80.2556
863.36        80.28696
863.76        80.41587
864.17        80.65379
864.57        81.03531
864.97        81.47871
865.38        81.82991
865.78        82.09824
866.18         82.2457
866.58        82.34215
866.99        82.50271
867.39        82.81087
867.79        83.25111
868.19        83.60584
868.60        83.46691
869.00         82.7776
869.40         81.6815
869.80         80.7465
870.21        80.83043
870.61        82.19148
871.01        84.55596
871.41        87.19884
871.81        88.87184
872.22        89.22099
872.62         88.5929
873.02        87.63824
873.42        87.53485
873.82        88.42127
874.22        89.72983
874.63        91.10401
875.03         91.7961
875.43        91.41033
875.83        90.81979
876.23        89.41622
876.63        88.80135
877.03        89.00925
877.44        90.12764
877.84        102.3006
878.24        95.35527
878.64        95.45243
879.04         95.0629
879.44        92.30061
879.84        90.86338
880.24          93.336
880.64        94.69833
881.04        95.42161
881.44        95.81468
881.84        95.47499
882.24        94.58494
882.65        93.74947
883.05        93.56145
883.45        94.14349
883.85        95.45599
884.25        97.03944
884.65        97.94337
885.05        97.87514
885.45        97.15788
885.85        96.30081
886.25        96.01006
886.65        96.43269
887.05         97.3128
887.45        98.35207
887.85        99.02596
888.25        99.12175
888.65         98.8204
889.04        98.22752
889.44        97.54569
889.84        96.87048
890.24        96.16457
890.64        95.52811
891.04        95.11824
891.44        94.95267
891.84        95.01427
892.24        95.22057
892.64        95.37164
893.04        95.44389
893.44        95.56013
893.83         95.7274
894.23        96.00113
894.63        96.37865
895.03        96.72488
895.43        97.26894
895.83        98.40955
896.23        100.1237
896.63        102.2831
897.02         104.044
897.42         104.045
897.82        102.1247
898.22        98.80664
898.62         95.3601
899.01        93.63495
899.41          94.027
899.81        95.91933
900.21        98.36706
900.61        99.82552
901.00        99.84628
901.40        98.94271
901.80        97.66679
902.20         96.8642
902.59        96.79787
902.99        97.14841
903.39        97.67181
903.79        97.99517
904.18        97.98209
904.58        97.83083
904.98        97.66335
905.38        97.63857
905.77        97.76576
906.17        97.93133
906.57        98.05816
906.96        98.10343
907.36        97.98904
907.76        97.77925
908.15        97.41885
908.55        96.69643
908.95         95.6865
909.34        94.45934
909.74        93.37273
910.14        92.79692
910.53        92.84927
910.93        93.47006
911.33        94.47394
911.72        95.50411
912.12        96.28973
912.52        96.81047
912.91        97.17831
913.31        97.59599
913.70        98.16376
914.10        98.83864
914.49        99.32427
914.89        98.86284
915.29        97.38211
915.68        95.22463
916.08        93.41264
916.47        92.83028
916.87        93.54082
917.26         95.2584
917.66        97.15411
918.05        97.88104
918.45        97.09521
918.84        95.26211
919.24        93.28402
919.64        92.48466
920.03        93.20383
920.42        95.01546
920.82        97.22948
921.21        98.77947
921.61        99.11904
922.00        98.63361
922.40        97.62719
922.79        96.48448
923.19        95.41527
923.58        94.26025
923.98        93.01827
924.37        92.03446
924.77        91.65523
925.16        90.12802
925.55        90.92637
925.95        91.77405
926.34        93.62305
926.74        95.99165
927.13        98.26373
927.52         99.1971
927.92        98.64111
928.31        96.99459
928.70        94.81874
929.10        93.08887
929.49        92.08688
929.89        91.57381
930.28        91.66759
930.67        92.54881
931.07        94.01797
931.46        96.10699
931.85        98.02915
932.24        98.60397
932.64        97.63468
933.03        95.27355
933.42        92.26231
933.82        90.30152
934.21        89.87426
934.60        90.55399
934.99        91.52415
935.39        91.82455
935.78        91.30086
936.17        89.95548
936.56         87.7598
936.96        87.88253
937.35        87.08081
937.74        87.90311
938.13        88.88692
938.53        90.03922
938.92        91.38399
939.31        93.11544
939.70        94.79841
940.09         95.1673
940.49        93.90724
940.88        91.57236
941.27        89.21914
941.66        88.10279
942.05         88.3621
942.44        89.58691
942.84        91.30943
943.23        92.76421
943.62        93.52985
944.01        93.81929
944.40        93.66759
944.79        93.12592
945.18        92.23348
945.57        90.85339
945.97        89.18729
946.36        87.91986
946.75        87.43597
947.14        87.63168
947.53        88.13739
947.92         88.4968
948.31         88.6437
948.70        88.71066
949.09        88.79183
949.48        89.05714
949.87        89.53868
950.26        90.09128
950.65        90.62483
951.04        91.07372
951.43        91.39405
951.82        91.57117
952.21        91.52675
952.60        91.17277
952.99        90.49328
953.38         89.5056
953.77        88.35693
954.16        87.22489
954.55         86.1941
954.94        85.37407
955.33        84.58298
955.72        83.47809
956.11        82.07159
956.50        80.46958
956.89        79.38896
957.28        80.07845
957.66        82.80322
958.05        86.84349
958.44        90.98341
958.83        93.46126
959.22         93.8399
959.61        92.52562
960.00        90.29742
960.39        88.48531
960.78        87.54578
961.16        87.20054
961.55        86.98048
961.94        86.10852
962.33        84.47849
962.72        82.53911
963.11        80.89649
963.49        80.25385
963.88        80.70422
964.27        82.06549
964.66        83.80178
965.04         84.7854
965.43        84.49773
965.82        83.34222
966.21        82.06077
966.60        81.64935
966.98        82.29333
967.37        83.61942
967.76        85.14814
968.15        85.94312
968.53        85.69082
968.92        84.72203
969.31        83.47389
969.69        82.47098
970.08        81.87959
970.47        81.56448
970.86        81.39747
971.24        81.18702
971.63        80.86646
972.02        80.51317
972.40        80.35951
972.79        80.73711
973.17        81.80704
973.56         83.3301
973.95        84.85292
974.33        85.50619
974.72        84.97681
975.11        83.54076
975.49        81.92684
975.88        81.17982
976.26         81.4635
976.65        82.61367
977.04        83.95283
977.42        83.84325
977.81        81.79471
978.19        78.48383
978.58        75.73774
978.96        75.41775
979.35        77.76743
979.74        82.40597
980.12        88.21898
980.51        91.47525
980.89        91.03709
981.28        87.98612
981.66        84.10921
982.05        81.66392
982.43        81.03104
982.82        81.43446
983.20        82.51745
983.59        83.87797
983.97        85.38517
984.35        87.27583
984.74        88.99228
985.12           89.58
985.51        88.38522
985.89        85.50409
986.28        81.75498
986.66        78.49506
987.04        76.51884
987.43        75.73788
987.81         75.5687
988.20        75.16463
988.58        74.24441
988.96        72.70383
989.35        71.29061
989.73        72.77837
990.12         77.9796
990.50        84.90233
990.88        89.98084
991.27        91.16493
991.65        89.07941
992.03        84.46631
992.42        79.00045
992.80          75.763
993.18         75.9159
993.56        77.93373
993.95         80.5569
994.33        82.81447
994.71        84.25681
995.10        85.45788
995.48        86.00659
995.86        84.99934
996.24        82.28211
996.63        77.71113
997.01        72.36263
997.39        69.67421
997.77        71.23233
998.15        76.26829
998.54        82.12483
998.92        85.21919
999.30        84.38136
999.68        80.64467
1000.06        75.02348
1000.45        70.17954
1000.83        67.43014
1001.21        66.00083
1001.59        65.88819
1001.97        67.18393
1002.35        69.74148
1002.73        74.19498
1003.12        79.18963
1003.50        80.26615
1003.88        75.57104
1004.26        67.32411
1004.64        59.66379
1005.02        56.14322
1005.40        57.04764
1005.78        62.16773
1006.16        72.03242
1006.54        81.65562
1006.92        84.86221
1007.30        83.50009
1007.69        80.88789
1008.07        79.28905
1008.45        78.72021
1008.83        78.19773
1009.21        76.44721
1009.59        67.99761
1009.97        38.56086
1010.35       -7.520518
1010.73       -5.780343
1011.11        18.11985
1011.49        36.29198
1011.86        50.30226
1012.24        58.38595
1012.62        62.03221
1013.00        63.10598
1013.38        62.17608
1013.76        61.20592
1014.14        66.24878
1014.52        81.88551
1014.90        109.2847
1015.28        140.5111
1015.66        154.0721
1016.04        137.7711
1016.41        97.21049
1016.79        53.93605
1017.17        30.58028
1017.55        26.31782
1017.93        29.74178
1018.31        36.06176
1018.69        43.80451
1019.06        53.50119
1019.44         67.5826
1019.82        88.60677
1020.20        113.6789
1020.58        136.7694
1020.95        149.7564
1021.33        140.1832
1021.71        170.9849
1022.09        127.4706
1022.46        122.1862
1022.84        120.5061
1023.22        123.9924
1023.60        138.2462
1023.97        281.6177
1024.35        39.32219
1024.73         68.1098
