SpectraSmart Spectrum 2.9.0.0
--------- Device Information -----------
Spectrum Name :  反射率_0
Saving Time :  2024/04/26 01:15:55
Spectro-Module Model Name : SE2030-DUVN
Spectro-Module Serial Number : OS361AC55029948
Wavelength Start : 200
Wavelength End : 1025
Wavelength Unit : Wavelength(nm)
Spectrum Unit : Reflectance(%)
-----------Spectrum Setting ------------
Integration Time : 20ms
Average : 10
Boxcar : 0
Background removal :  enabled
linearity correction :  enabled
SC :  disabled
Intensity correction :  disabled
DWT denoise :  enabled
savitzky-golay :  disabled
FFT :  disabled
Running average :  disabled
Kalman :  disabled
High pass :  disabled
---------------BEGIN--------------------
Wavelength(nm)             Reflectance(%)
200.29               0
200.75        90.60007
201.21        84.80642
201.67        77.53722
202.13        72.47049
202.58        70.22588
203.04        70.30694
203.50        71.74899
203.96        72.91265
204.42        73.26323
204.88        73.19736
205.34        73.57825
205.80        75.67668
206.26        80.53595
206.72        90.68388
207.18        109.6649
207.64        125.0308
208.10        112.0979
208.55        88.24502
209.01        73.36464
209.47        68.01427
209.93        67.98217
210.39        71.28479
210.85        75.55551
211.31         75.9853
211.77        71.17998
212.23        63.06553
212.69        55.26803
213.14        53.35858
213.60         58.1401
214.06        68.00247
214.52        79.30058
214.98        86.47573
215.44        87.97843
215.90        85.46892
216.36        81.35016
216.81        78.87405
217.27         79.0588
217.73        80.70785
218.19        82.01223
218.65        80.61657
219.11        75.57936
219.57        66.15632
220.02        53.67289
220.48        46.07501
220.94        47.82425
221.40        57.02195
221.86        65.47157
222.32        64.53436
222.77        55.45156
223.23        43.27435
223.69        33.16783
224.15        30.36525
224.61        34.14003
225.06        41.68477
225.52        49.18222
225.98        51.80679
226.44        48.75393
226.90        42.20727
227.36        34.78873
227.81         29.9933
228.27        28.92621
228.73        30.16447
229.19        32.69501
229.65        35.03671
230.10        36.57894
230.56        37.74482
231.02        38.56674
231.48        38.99686
231.93        39.11369
232.39        38.90184
232.85        38.50779
233.31        38.26299
233.77        38.23816
234.22        38.33854
234.68        38.55684
235.14         38.7467
235.60        38.86875
236.05        39.06288
236.51        39.24435
236.97        39.22689
237.43        39.06498
237.88        38.85968
238.34        39.06967
238.80        40.82283
239.26        44.46263
239.71        49.64415
240.17        55.23705
240.63        59.78067
241.08        62.75275
241.54        64.24273
242.00        64.79128
242.46        65.40295
242.91        66.88908
243.37        69.81362
243.83        79.08688
244.28        113.4925
244.74        160.5915
245.20        145.7201
245.66        127.0395
246.11        122.3104
246.57        127.0417
247.03        145.8445
247.48        202.2558
247.94        176.8199
248.40        117.3822
248.85        98.72976
249.31        93.48508
249.77        93.45139
250.22        96.53425
250.68         102.831
251.14        112.0008
251.59        117.6654
252.05        113.6401
252.51        102.9751
252.96         91.5742
253.42        85.07726
253.88        82.88044
254.33        83.04449
254.79        84.88695
255.25        86.89159
255.70        88.33383
256.16        89.79671
256.62        90.41667
257.07        89.25786
257.53        86.84865
257.99        83.10075
258.44        79.01557
258.90         76.7857
259.35        75.58189
259.81        74.89084
260.27        73.20491
260.72        69.02299
261.18        63.19119
261.63        56.44425
262.09        50.42013
262.55        46.36503
263.00        44.20282
263.46        43.34349
263.91         42.7982
264.37        41.76838
264.83        40.04802
265.28        37.81557
265.74        35.65693
266.19        34.22673
266.65        33.72655
267.11        33.77262
267.56        33.80758
268.02        33.15643
268.47        31.70732
268.93        29.70057
269.38        27.52513
269.84        26.08864
270.30        25.63911
270.75        25.91909
271.21        26.44906
271.66        26.50932
272.12        25.90814
272.57        24.88491
273.03        23.79311
273.48        23.08282
273.94        22.88448
274.39        22.99009
274.85         23.1682
275.31        23.09516
275.76        22.68419
276.22        22.07125
276.67        21.40431
277.13         20.9666
277.58        20.76743
278.04        20.73392
278.49        20.67106
278.95        20.35475
279.40        19.73835
279.86        18.96334
280.31         18.1786
280.77        17.69888
281.22         17.5429
281.68         17.6195
282.13        17.77331
282.59        17.80526
283.04        17.67186
283.50        17.47336
283.95        17.25807
284.41        17.10592
284.86        17.04262
285.32        17.03943
285.77        17.12833
286.22        17.41756
286.68        17.87448
287.13        18.43086
287.59        18.93019
288.04         19.1393
288.50        19.03926
288.95        18.69769
289.41        18.27079
289.86        17.89956
290.32        17.69469
290.77        17.61869
291.22         17.7036
291.68        17.95341
292.13        18.37056
292.59         18.9641
293.04        19.71671
293.50        20.58961
293.95         21.5431
294.40        22.54252
294.86        23.55428
295.31        24.54917
295.77        25.52993
296.22        26.51324
296.68        27.49575
297.13        28.44213
297.58        29.37243
298.04        30.31348
298.49        31.35839
298.95        32.69677
299.40        34.34225
299.85        36.22971
300.31        38.19036
300.76        39.94949
301.21        41.41373
301.67        42.69214
302.12        43.84478
302.58        45.05866
303.03         46.3644
303.48        47.72295
303.94        49.20015
304.39        50.84291
304.84        52.64428
305.30        54.57974
305.75        56.44817
306.20        57.95954
306.66        59.08449
307.11        59.87136
307.57        60.55932
308.02        61.40238
308.47        62.51523
308.93        63.82164
309.38        65.18892
309.83        66.45314
310.29        67.54679
310.74        68.49237
311.19        69.34571
311.65        70.18772
312.10        71.03394
312.55        71.87146
313.00         72.6149
313.46        73.14001
313.91        73.41838
314.36        73.51225
314.82        73.61072
315.27        73.95507
315.72        74.62277
316.18        75.54176
316.63        76.53271
317.08        77.25806
317.53         77.6211
317.99          77.699
318.44        77.70246
318.89        77.98086
319.35         78.5947
319.80        79.46135
320.25        80.30563
320.70        80.67542
321.16        80.47495
321.61        79.85943
322.06        79.14913
322.51         78.8405
322.97        79.03474
323.42        79.61816
323.87        80.32561
324.32        80.70276
324.78        80.61245
325.23        80.23244
325.68        79.76437
326.13        79.55662
326.59        79.69237
327.04        80.08495
327.49        80.59875
327.94        81.04089
328.39        81.33864
328.85        81.53674
329.30        81.72201
329.75        81.89368
330.20        82.08504
330.66        82.27244
331.11        82.53651
331.56        82.94482
332.01        83.51978
332.46        84.22443
332.92        84.99817
333.37        85.88342
333.82        86.77399
334.27        87.65983
334.72        88.38779
335.17        88.72262
335.63        88.63509
336.08        88.23994
336.53        87.78648
336.98        87.71611
337.43        88.14056
337.88        88.93605
338.34        89.89569
338.79        90.75282
339.24        91.36336
339.69        91.82798
340.14         92.1423
340.59        92.30025
341.05        92.34194
341.50        92.24796
341.95         92.1681
342.40        92.35872
342.85         92.8605
343.30        93.60605
343.75        94.40769
344.20        94.91896
344.66        95.05054
345.11        94.89216
345.56        94.58469
346.01        94.34477
346.46         94.2517
346.91         94.2467
347.36        94.31463
347.81        94.43556
348.26        94.59583
348.72        94.82838
349.17        95.07702
349.62        95.29376
350.07        95.45133
350.52        95.53595
350.97        95.56508
351.42        95.57925
351.87        95.58794
352.32         95.5887
352.77        95.53619
353.22        95.35983
353.67         95.0596
354.13        94.67789
354.58        94.29094
355.03        94.07133
355.48        94.04019
355.93        94.13463
356.38         94.2189
356.83        94.07854
357.28        93.65979
357.73        93.03056
358.18        92.29161
358.63        91.60411
359.08        91.02592
359.53        90.52126
359.98        90.05103
360.43        89.55167
360.88         89.0013
361.33        88.41972
361.78        87.84713
362.23        87.34118
362.68        86.91459
363.13        86.55275
363.58        86.17707
364.03        85.66747
364.48        85.00335
364.93        84.21555
365.38        83.42386
365.83        82.82417
366.28        82.44948
366.73        82.23012
367.18        82.02356
367.63        81.59818
368.08        80.91258
368.53        80.07263
368.98        79.19386
369.43        78.44059
369.88        77.86486
370.33         77.4088
370.78        77.07072
371.23        76.85314
371.68        76.72923
372.13        76.69126
372.58        76.65409
373.03        76.46996
373.48        76.11125
373.93         75.6283
374.38        75.09629
374.83        74.63531
375.28        74.27956
375.72        73.97622
376.17        73.74653
376.62        73.59518
377.07        73.49691
377.52        73.43446
377.97        73.31945
378.42         73.0107
378.87        72.49648
379.32        71.84603
379.77        71.14352
380.22        70.50667
380.67        69.96465
381.11        69.47823
381.56        69.06245
382.01        68.74575
382.46        68.53139
382.91        68.43904
383.36        68.36294
383.81        68.12883
384.26        67.71419
384.71        67.15584
385.15        66.61916
385.60        66.42236
386.05        66.56155
386.50        66.91778
386.95         67.2442
387.40        67.13002
387.85        66.52478
388.29        65.60367
388.74        64.67852
389.19        63.93099
389.64        63.40638
390.09        62.99955
390.54         62.7667
390.98        62.80585
391.43        63.09564
391.88        63.57999
392.33        64.00412
392.78        63.96814
393.23        63.45075
393.67        62.62533
394.12        61.84289
394.57        61.30891
395.02        61.14592
395.47        61.45028
395.91        62.09673
396.36          62.558
396.81        62.71718
397.26        62.76496
397.71        62.70109
398.15        62.40894
398.60        61.99835
399.05        61.52041
399.50         61.0481
399.95        60.51106
400.39        60.21974
400.84         59.9626
401.29        59.82165
401.74         59.9134
402.18        60.16958
402.63        60.20524
403.08        60.10398
403.53        60.27271
403.97        60.71346
404.42        61.18432
404.87        61.47935
405.32        61.35491
405.76        60.77058
406.21        59.88853
406.66        58.99939
407.11        58.52688
407.55        58.58406
408.00        59.01627
408.45        59.62894
408.90        60.10507
409.34         60.2222
409.79        59.83244
410.24        59.17029
410.68        58.82304
411.13         58.8847
411.58        59.04877
412.03        59.27081
412.47        59.59062
412.92        59.91696
413.37        60.26731
413.81        60.52374
414.26        60.53701
414.71        60.27901
415.15        59.79239
415.60        59.24032
416.05        58.91111
416.49         58.8836
416.94        59.09718
417.39        59.38449
417.83         59.4388
418.28        59.20119
418.73        58.78022
419.17        58.36676
419.62         58.2664
420.07        58.50504
420.51        58.96261
420.96        59.46346
421.41        59.65721
421.85        59.43779
422.30        59.18645
422.74         58.9232
423.19        58.36936
423.64        57.73632
424.08        57.93786
424.53        58.84685
424.98        59.39484
425.42        59.45751
425.87        59.74879
426.31        60.24611
426.76         60.3068
427.21        60.09751
427.65        60.40754
428.10         61.1465
428.54           61.75
428.99        62.17656
429.44        62.26876
429.88        62.11826
430.33        62.78753
430.77        63.70345
431.22        62.81646
431.66        60.58766
432.11        59.40418
432.56        59.55655
433.00        60.16874
433.45        61.10837
433.89        62.83776
434.34        64.17857
434.78        65.12993
435.23        61.77341
435.67        60.80265
436.12        62.56644
436.57        63.55538
437.01        63.84262
437.46         63.9695
437.90        64.09747
438.35        63.88761
438.79        64.36348
439.24        64.40894
439.68        64.33871
440.13        64.18184
440.57        64.18564
441.02        64.90972
441.46         66.0745
441.91        66.94283
442.35        67.20457
442.80        66.50073
443.24         65.2594
443.69        65.68893
444.13        67.45806
444.58        67.47372
445.02        65.95011
445.47        65.80374
445.91        66.93256
446.36        67.32258
446.80        66.89843
447.24        66.69028
447.69        66.79479
448.13        66.95795
448.58        67.20184
449.02        67.52457
449.47        67.84451
449.91        68.14603
450.36        68.23833
450.80        68.26068
451.25        68.20177
451.69        68.09486
452.13        67.97966
452.58         67.8578
453.02        67.76051
453.47        67.77167
453.91         67.8798
454.36        68.06039
454.80        68.25687
455.24        68.27603
455.69        68.09729
456.13        67.93943
456.58          67.856
457.02        67.40537
457.46        66.85154
457.91        67.10482
458.35        67.94581
458.79        68.27933
459.24        68.07917
459.68        67.80188
460.13         67.4934
460.57         67.3343
461.01        67.48405
461.46        66.53671
461.90        66.33725
462.34        67.02713
462.79        66.33618
463.23        66.47233
463.68         66.6096
464.12        66.84038
464.56        67.07894
465.01        67.39906
465.45        67.55229
465.89        67.36729
466.34        66.85364
466.78        65.74106
467.22         64.5398
467.67        64.37725
468.11        65.43551
468.55        66.12283
468.99        66.21034
469.44        65.98341
469.88        65.62328
470.32         65.7253
470.77        66.20013
471.21        66.24644
471.65        65.82824
472.10        65.55785
472.54        65.50655
472.98        65.50718
473.42        65.56682
473.87        65.79751
474.31        66.06852
474.75        66.09155
475.20        65.86546
475.64         65.6822
476.08        65.67604
476.52        65.49565
476.97        65.09576
477.41        65.72887
477.85        66.03761
478.29        65.28811
478.74         65.9808
479.18        65.80928
479.62        65.25296
480.06        65.83473
480.50        66.06474
480.95        66.34496
481.39        66.27672
481.83        65.55429
482.27        65.64312
482.72        65.29328
483.16         64.5813
483.60        64.20989
484.04        65.98383
484.48        66.21582
484.93          66.014
485.37        67.31677
485.81        67.93494
486.25         66.9416
486.69        90.09486
487.14        72.70208
487.58        45.70384
488.02        56.20534
488.46        63.77351
488.90        63.20143
489.34         65.0507
489.79         64.3713
490.23        66.34051
490.67         67.0098
491.11        65.90743
491.55        65.83767
491.99         66.3892
492.43        66.22861
492.88        65.44247
493.32        65.36784
493.76        65.55435
494.20        65.83596
494.64        65.97122
495.08        66.19641
495.52        66.52005
495.96         66.5119
496.41        66.18784
496.85        66.67387
497.29        67.63543
497.73        66.43856
498.17        64.11451
498.61        64.19326
499.05        66.69631
499.49         67.3389
499.93        67.48438
500.37        67.30658
500.82         66.7402
501.26        66.86384
501.70        67.41112
502.14        67.59821
502.58        67.29498
503.02        67.03056
503.46        66.82303
503.90        66.37234
504.34        65.85423
504.78         65.6719
505.22        65.86085
505.66        66.36469
506.10        67.00438
506.54        67.22662
506.98         66.8828
507.42        66.92699
507.86        66.35817
508.30        65.85773
508.74        66.16541
509.18        66.39247
509.62        66.70898
510.06        66.89909
510.50        66.92341
510.94        66.83454
511.38        66.70114
511.82        66.64927
512.26         66.7139
512.70        66.83276
513.14        66.96576
513.58        67.10132
514.02        67.22273
514.46        67.16574
514.90        67.24345
515.34        67.19709
515.78        67.11136
516.22        67.05068
516.66        67.02775
517.10        66.86526
517.54        66.56501
517.98        66.83196
518.42        66.71036
518.86        66.85086
519.30        66.97601
519.74        67.23305
520.18        67.53655
520.62        67.68967
521.06         67.6792
521.50        67.48376
521.93        67.35378
522.37        67.22083
522.81        67.18033
523.25        67.20342
523.69        67.29004
524.13        67.43478
524.57        67.62212
525.01        67.85368
525.45        68.07876
525.89        68.21471
526.32        68.23347
526.76        68.14748
527.20        68.00735
527.64        67.91731
528.08        67.91755
528.52        67.92659
528.96         67.8678
529.40        67.81086
529.83        67.77962
530.27        67.07779
530.71        67.11349
531.15        66.94364
531.59        66.99098
532.03        67.17229
532.46        67.45203
532.90        67.73896
533.34        67.97552
533.78        68.18026
534.22         68.3111
534.66        68.32912
535.09        68.22714
535.53        68.01508
535.97        67.73641
536.41        67.62403
536.85        67.49237
537.28        67.50235
537.72        67.55294
538.16        67.59879
538.60         67.6195
539.04         67.5762
539.47        67.49396
539.91        67.58602
540.35        67.78181
540.79        67.78267
541.22        67.59184
541.66        67.49158
542.10        67.48526
542.54        67.40506
542.97        67.28506
543.41        67.28471
543.85        67.40365
544.29        67.61485
544.72        67.80381
545.16        67.82139
545.60         67.6382
546.04        67.29927
546.47        66.96546
546.91        66.93911
547.35        67.25785
547.79         67.7643
548.22        68.24141
548.66        68.50771
549.10        68.42116
549.53        67.77135
549.97        66.88024
550.41        66.45238
550.84        66.58792
551.28        67.01849
551.72        67.56916
552.15        67.87918
552.59        67.82348
553.03        68.07243
553.46        67.68267
553.90        67.64885
554.34        67.71182
554.77        67.76511
555.21        67.75565
555.65        67.84032
556.08        68.04974
556.52        67.51858
556.96        67.84811
557.39        67.73456
557.83        67.67748
558.27        67.70507
558.70        67.85815
559.14        67.84521
559.57        68.16989
560.01        68.34649
560.45        68.48034
560.88        68.59631
561.32        68.63548
561.75        68.33379
562.19         67.8435
562.63        67.40585
563.06        67.16235
563.50        67.37267
563.93        67.87359
564.37        68.12138
564.80        68.03197
565.24        67.93423
565.68        67.86951
566.11        67.80874
566.55        67.82092
566.98        67.81248
567.42        67.79628
567.85        68.00616
568.29        68.40175
568.72        68.31773
569.16        67.96565
569.60        68.44852
570.03         68.7903
570.47        68.81419
570.90        68.58833
571.34        66.86565
571.77        68.08585
572.21        67.89304
572.64        67.22335
573.08        66.71059
573.51        63.56299
573.95        66.05117
574.38        70.07961
574.82        68.14935
575.25         67.9545
575.69        65.54464
576.12        64.27538
576.56         63.9461
576.99        65.48028
577.42        68.40326
577.86        68.27848
578.29         67.6226
578.73         71.0444
579.16         65.4716
579.60        60.21412
580.03        62.89837
580.47        67.03572
580.90        68.35059
581.33        67.19266
581.77        66.21329
582.20        72.55464
582.64        72.14338
583.07        61.86303
583.51        60.80489
583.94        59.71183
584.37        62.40856
584.81         65.6207
585.24        69.13796
585.68        70.76983
586.11        69.46476
586.54        64.30972
586.98        62.58778
587.41        63.13218
587.85        66.68859
588.28        68.77627
588.71        65.68259
589.15        63.56433
589.58        65.19056
590.01        65.47327
590.45        66.68935
590.88        67.34827
591.31        66.62737
591.75        66.09962
592.18        66.00071
592.61        67.24983
593.05        67.79319
593.48        70.70895
593.91        71.20683
594.35        65.81124
594.78         64.4936
595.21        63.99172
595.65        66.75591
596.08        69.33186
596.51        66.69019
596.94        65.05572
597.38        65.79369
597.81        68.42216
598.24        69.92268
598.68        68.45528
599.11        67.36819
599.54        69.92801
599.97        71.21342
600.41        66.58601
600.84        66.52093
601.27        67.80361
601.70        67.07347
602.14        67.10537
602.57        66.24287
603.00        66.66854
603.43        68.34896
603.87        69.53838
604.30        69.13979
604.73        67.03218
605.16        66.15372
605.60        66.92567
606.03        68.06548
606.46        68.99218
606.89        68.73682
607.32        66.75211
607.76         66.5755
608.19        68.67142
608.62          68.031
609.05        66.67237
609.48        67.26281
609.92         67.2795
610.35        66.94861
610.78        69.17075
611.21        69.43547
611.64        66.58063
612.07        67.16019
612.50        67.44561
612.94         67.8119
613.37         67.2571
613.80        67.62161
614.23        68.13845
614.66        68.13109
615.09        68.35242
615.52        68.36285
615.96        68.30165
616.39        68.44075
616.82        67.64456
617.25        67.30101
617.68        68.32043
618.11        68.75989
618.54        68.77641
618.97         68.3039
619.40        67.74629
619.84        67.34779
620.27        68.45591
620.70        68.94262
621.13         69.0948
621.56        68.53997
621.99        67.59016
622.42        68.49196
622.85        70.74088
623.28         69.8839
623.71        69.70943
624.14        69.24974
624.57        68.79854
625.00        68.55794
625.43        68.66456
625.86        68.15854
626.29        68.35799
626.72        69.02094
627.15        68.77289
627.58        68.96719
628.01        69.06721
628.44        69.33808
628.87        69.57026
629.30        69.44633
629.73        69.93889
630.16        69.86477
630.59        69.53846
631.02        69.10123
631.45        68.69656
631.88        68.40544
632.31        68.25127
632.74         68.4902
633.17         68.5579
633.60        68.72535
634.03        68.80097
634.46        68.83833
634.89         68.8372
635.32        68.80833
635.75        68.76867
636.18        68.69653
636.61        68.63654
637.04        68.67079
637.47        68.80566
637.89        69.02387
638.32        69.22913
638.75        69.30343
639.18        69.21573
639.61        69.01366
640.04        68.75217
640.47        68.51817
640.90        68.35021
641.33        68.22198
641.76        68.12839
642.18        68.15765
642.61        68.30431
643.04        68.39457
643.47        68.34275
643.90        68.89661
644.33        68.61584
644.76        68.66333
645.18         68.6383
645.61        68.60581
646.04        68.56197
646.47        68.47613
646.90        68.41238
647.33        68.42348
647.75        68.53931
648.18        68.79927
648.61         69.0097
649.04        68.88898
649.47        68.42191
649.89        67.51299
650.32        66.61628
650.75        66.72942
651.18        67.73988
651.61        68.58665
652.03        68.89837
652.46        68.79301
652.89        68.61935
653.32        68.06087
653.74        67.50237
654.17        68.60783
654.60        69.66832
655.03        67.25404
655.46        68.13265
655.88        72.12752
656.31        76.41561
656.74        168.6807
657.16        109.1176
657.59        38.52248
658.02        29.53816
658.45        51.60909
658.87        65.77163
659.30        69.20473
659.73        68.12313
660.15        65.70988
660.58         68.4672
661.01        70.18155
661.44        67.82161
661.86        67.06506
662.29        67.16458
662.72        68.03319
663.14         69.3695
663.57        69.24872
664.00        67.97726
664.42         67.7299
664.85         68.5922
665.27        69.17622
665.70        69.22861
666.13        69.12704
666.55         68.8403
666.98        68.25829
667.41        67.60749
667.83        67.31243
668.26        67.46765
668.69        67.91824
669.11        68.40318
669.54        68.83614
669.96        68.48371
670.39        67.98415
670.82        67.39071
671.24         67.1423
671.67        67.34707
672.09        67.80457
672.52        68.22803
672.94        68.69543
673.37        68.02133
673.80        67.78607
674.22        67.72668
674.65        67.64776
675.07         67.5519
675.50        67.44117
675.92        67.37263
676.35        67.46901
676.77        67.73357
677.20        68.05049
677.62        68.34428
678.05        68.49793
678.47        68.46899
678.90        68.30652
679.32        68.09327
679.75         67.8358
680.17        67.84178
680.60        67.86877
681.02        67.92301
681.45        67.86197
681.87        67.67516
682.30        67.40157
682.72        67.16011
683.15        67.17077
683.57        67.47814
684.00        67.88057
684.42        68.37916
684.85        68.68241
685.27         68.5891
685.70        68.34657
686.12        67.99653
686.54        67.74384
686.97        67.66225
687.39        67.66292
687.82        67.68427
688.24        67.89819
688.66        68.23358
689.09        67.87089
689.51        67.89275
689.94        67.82159
690.36        67.99123
690.78         68.1805
691.21         68.3244
691.63        68.38895
692.06        68.34887
692.48        68.23787
692.90        68.12471
693.33        68.10376
693.75        68.19946
694.17        68.38681
694.60        68.61433
695.02         68.7824
695.44        68.82756
695.87        68.92522
696.29         69.0779
696.71         68.8346
697.14        68.38711
697.56        68.74075
697.98        69.63409
698.41        69.64727
698.83        68.74533
699.25        68.33504
699.68        68.44598
700.10        68.39378
700.52        68.18391
700.94        68.20643
701.37        68.43644
701.79        68.71105
702.21        68.96209
702.64        69.23587
703.06        69.43976
703.48        69.42024
703.90        69.17227
704.33        68.74232
704.75        68.26693
705.17        68.05338
705.59        68.18166
706.01        68.46011
706.44        68.73969
706.86        69.37077
707.28        69.36235
707.70         69.4764
708.12        69.47977
708.55        69.44587
708.97         69.3756
709.39        69.25687
709.81        69.12774
710.23        69.04649
710.66        69.03139
711.08        69.10371
711.50        69.18891
711.92         69.1764
712.34        69.04537
712.76        68.81844
713.19        68.59719
713.61        68.57368
714.03        68.77011
714.45        69.12937
714.87        69.49254
715.29        69.60754
715.71        69.42517
716.13        69.02902
716.56        68.58422
716.98        68.38761
717.40        68.50627
717.82        68.84755
718.24        69.27242
718.66        69.54427
719.08        69.58945
719.50        69.48051
719.92        69.28549
720.34        69.13111
720.76        69.06585
721.19        68.93904
721.61        68.96439
722.03        69.00903
722.45         69.1229
722.87         69.2926
723.29        69.48927
723.71        69.65173
724.13        69.75374
724.55        69.80827
724.97        69.79991
725.39        69.71265
725.81        69.55949
726.23        69.35424
726.65        69.16374
727.07        69.09088
727.49        69.16048
727.91        69.35209
728.33        69.60085
728.75        69.78975
729.17        69.87683
729.59        69.88269
730.01        69.85929
730.43        69.88666
730.85        69.98849
731.27        70.15962
731.69        70.32923
732.10        70.36615
732.52        70.25209
732.94        70.06719
733.36        69.92673
733.78        69.92087
734.20         70.0743
734.62        70.47727
735.04        71.25285
735.46         71.1844
735.88        70.61458
736.30        71.11871
736.72        72.52848
737.13         73.0611
737.55        72.45078
737.97        71.91164
738.39        71.66795
738.81         71.0998
739.23        70.49577
739.65        71.22587
740.06         72.8378
740.48        72.91624
740.90         71.5839
741.32        71.02748
741.74        71.46252
742.16        71.73894
742.57        71.89298
742.99        72.61613
743.41        73.68634
743.83        74.31461
744.25        74.36425
744.67        74.04681
745.08        73.60567
745.50        73.42846
745.92         73.6394
746.34        74.10791
746.75        74.65439
747.17         74.9746
747.59        75.00867
748.01         74.8534
748.42        74.69436
748.84        74.82558
749.26        75.31617
749.68        75.98169
750.09        76.64112
750.51        77.15081
750.93        77.37411
751.35        77.02133
751.76         76.3083
752.18        76.03802
752.60        76.22466
753.01        76.23581
753.43         76.0864
753.85        76.26965
754.27        76.80125
754.68        77.46346
755.10        78.09761
755.52        78.59919
755.93        78.88013
756.35        78.89957
756.77        78.81882
757.18        78.75634
757.60         78.7506
758.02         79.2156
758.43        79.79554
758.85        79.07929
759.26        77.31448
759.68        77.19122
760.10        78.43258
760.51        79.19658
760.93        79.22163
761.34        77.43311
761.76        77.66985
762.18        77.01113
762.59        76.74523
763.01        77.12606
763.42        78.09862
763.84        78.78875
764.26         79.0447
764.67        79.17375
765.09        79.16035
765.50        79.09863
765.92        78.90061
766.33        77.78456
766.75         76.2432
767.16        75.86018
767.58        76.77749
768.00        78.25996
768.41         79.9194
768.83        81.17964
769.24        81.54068
769.66        80.75988
770.07         79.3638
770.49        77.96893
770.90        76.96366
771.32        77.78647
771.73        79.78236
772.15        79.20699
772.56          76.533
772.97        75.96318
773.39         77.4437
773.80          78.002
774.22        77.43701
774.63        77.56096
775.05        78.26501
775.46        78.60161
775.88        78.44489
776.29        78.06053
776.70        77.60759
777.12        77.38521
777.53        77.48209
777.95         77.7449
778.36        78.02117
778.77        78.04842
779.19        77.80831
779.60        77.39752
780.02        76.98391
780.43        76.93887
780.84        77.38689
781.26        77.67834
781.67        77.83185
782.09        79.03259
782.50        80.65524
782.91        79.76283
783.33        77.07964
783.74        76.21719
784.15        77.35314
784.57        78.18323
784.98        78.34744
785.39        78.40305
785.81        78.27464
786.22        77.73351
786.63        77.13115
787.04        77.07013
787.46        77.62413
787.87        78.62049
788.28        79.70242
788.70        80.23937
789.11        80.07497
789.52        79.42905
789.93        78.61135
790.35        78.04743
790.76        77.87917
791.17        78.04012
791.58        78.37187
792.00          78.604
792.41        78.64989
792.82        78.47899
793.23        78.33311
793.65        78.50594
794.06         79.0128
794.47        80.03985
794.88        80.95827
795.29        80.21375
795.71        78.10702
796.12        76.08022
796.53        74.78446
796.94        74.58858
797.35        75.51759
797.76          76.931
798.18        78.21461
798.59        79.08022
799.00        79.18968
799.41        78.27543
799.82         76.8207
800.23        75.92664
800.64        75.82575
801.06        76.11565
801.47        76.66518
801.88        77.14384
802.29        77.41349
802.70        77.63396
803.11        77.78146
803.52        77.77347
803.93        77.61713
804.34        77.27148
804.75        76.92473
805.17        76.92005
805.58        77.34633
805.99        78.05396
806.40        78.71717
806.81        78.92526
807.22        78.48624
807.63        77.24318
808.04        75.71528
808.45        74.99033
808.86        75.24731
809.27        76.07433
809.68        77.08255
810.09        77.65399
810.50        77.56124
810.91        77.01272
811.32        76.29259
811.73        75.85651
812.14        75.83721
812.55        76.04362
812.96        76.40211
813.37        76.78661
813.78        77.11139
814.19        77.46783
814.60         77.6777
815.01        77.45091
815.42        76.77514
815.83        75.69611
816.24        74.63299
816.65        74.33078
817.05        75.00175
817.46        76.40251
817.87         77.9673
818.28        78.67107
818.69         78.2338
819.10        76.90865
819.51        75.33216
819.92        74.58926
820.33         74.9668
820.74        76.13799
821.14        77.50816
821.55        78.01281
821.96        77.42819
822.37        76.13345
822.78         74.6793
823.19        73.86849
823.60        73.91631
824.00        74.61547
824.41        75.57921
824.82        76.25544
825.23        76.40491
825.64        76.22184
826.04        75.88987
826.45        75.67208
826.86         75.6445
827.27        75.67314
827.68        75.71513
828.08        75.75691
828.49         75.7174
828.90        75.68884
829.31        75.60638
829.72        75.33331
830.12        74.90134
830.53        74.35123
830.94        73.90719
831.35        73.86468
831.75        74.31062
832.16        75.09755
832.57        76.05303
832.97        76.79031
833.38         77.0897
833.79        77.03634
834.20        76.78706
834.60        76.59324
835.01        76.55518
835.42        76.59303
835.82        76.58945
836.23        76.27856
836.64        75.66908
837.04         74.8979
837.45        74.19847
837.86         73.9278
838.26        74.16715
838.67        74.76005
839.08        75.51939
839.48        76.09305
839.89        76.31554
840.29        76.30411
840.70        76.09476
841.11        75.73415
841.51        75.29007
841.92        74.72874
842.33        74.23592
842.73        74.13539
843.14        74.44652
843.54        75.11781
843.95        75.85119
844.35        76.19818
844.76         76.0211
845.17        75.46353
845.57        74.74694
845.98        74.22563
846.38        73.99982
846.79        73.94041
847.19        73.98132
847.60        73.92541
848.00        73.75774
848.41        73.54122
848.81        73.34245
849.22        73.16418
849.62        73.06525
850.03        73.02806
850.43        73.10561
850.84         73.3239
851.24        73.70966
851.65        74.07117
852.05        74.49245
852.46        74.93829
852.86        75.38581
853.27        75.88023
853.67        76.01294
854.07        75.27803
854.48        73.74202
854.88        71.59776
855.29        69.62178
855.69        68.93517
856.10        69.74641
856.50        71.93394
856.90         74.7515
857.31         76.4502
857.71        76.46049
858.12        75.19012
858.52         73.4822
858.92        72.46548
859.33        72.39072
859.73        72.96384
860.13        73.90508
860.54        74.63335
860.94        74.97327
861.34        75.07951
861.75        75.08752
862.15        75.28479
862.55         75.7049
862.96        76.22565
863.36        76.72043
863.76        76.96163
864.17        76.89436
864.57        76.65889
864.97        76.42817
865.38        76.44672
865.78        76.81602
866.18        77.38078
866.58        78.02276
866.99        78.53352
867.39        78.88709
867.79         79.1675
868.19        79.26719
868.60        78.98212
869.00        78.32642
869.40         77.3661
869.80        76.62097
870.21        76.88454
870.61        78.38386
871.01        80.88204
871.41        83.62049
871.81        85.29136
872.22        85.52833
872.62         84.6586
873.02        83.41679
873.42        83.14957
873.82         83.9806
874.22        85.22465
874.63        86.42912
875.03        86.68913
875.43        85.65034
875.83        84.63792
876.23        82.42089
876.63        81.43094
877.03        81.63205
877.44         83.2757
877.84        104.0426
878.24        91.44637
878.64        91.66644
879.04        91.26573
879.44        86.70802
879.84        84.37968
880.24        88.61663
880.64         90.8815
881.04        92.02758
881.44        92.70937
881.84        92.27934
882.24        90.98315
882.65          89.682
883.05        89.19377
883.45        89.67883
883.85        91.10088
884.25        92.88327
884.65        93.80031
885.05        93.49597
885.45        92.41183
885.85        91.19442
886.25        90.71602
886.65        91.16388
887.05         92.2411
887.45        93.57326
887.85        94.49677
888.25        94.75916
888.65        94.58194
889.04        94.16055
889.44         93.8459
889.84        93.72572
890.24        93.63927
890.64        93.57185
891.04        93.52818
891.44        93.48401
891.84        93.50197
892.24         93.4451
892.64        93.04106
893.04        92.32925
893.44        91.48975
893.83        90.82952
894.23        90.79732
894.63        91.44301
895.03        92.56113
895.43        94.00146
895.83        95.45732
896.23        96.69088
896.63        97.72237
897.02        98.22282
897.42        97.70741
897.82        96.22401
898.22        94.03906
898.62        91.81223
899.01        90.49796
899.41        90.33194
899.81        90.99036
900.21        92.14768
900.61         93.2318
901.00        93.98715
901.40        94.57736
901.80        94.89964
902.20        94.80437
902.59        94.31537
902.99         93.4135
903.39         92.4175
903.79        91.92018
904.18        92.08217
904.58        92.81166
904.98         93.7461
905.38        94.29675
905.77        94.29939
906.17        93.91241
906.57        93.43249
906.96        93.35263
907.36         93.6981
907.76        94.31314
908.15        94.85581
908.55        94.66898
908.95        93.68978
909.34        92.13757
909.74        90.55071
910.14        89.57933
910.53        89.43287
910.93        89.95916
911.33        90.92304
911.72         91.8926
912.12        92.57433
912.52        93.01593
912.91        93.31069
913.31        93.59512
913.70        93.95678
914.10        94.33739
914.49        94.51641
914.89        93.98507
915.29        92.72735
915.68        90.97649
916.08        89.53677
916.47        89.06383
916.87        89.59044
917.26        90.90889
917.66        92.30195
918.05        92.62318
918.45        91.61674
918.84        89.71564
919.24        87.75458
919.64        86.94778
920.03        87.61008
920.42        89.35468
920.82        91.60232
921.21        93.44606
921.61        94.33817
922.00         94.5597
922.40        94.22063
922.79        93.49719
923.19        92.57858
923.58         91.3209
923.98        89.83769
924.37        88.84386
924.77        88.79609
925.16        87.31501
925.55        88.68896
925.95        89.66213
926.34        91.39304
926.74        93.43755
927.13        95.35249
927.52        96.13525
927.92        95.67102
928.31        94.30689
928.70        92.38332
929.10        90.52265
929.49        88.95039
929.89        87.54985
930.28        86.74786
930.67        87.24284
931.07        88.95028
931.46        91.71909
931.85        94.43811
932.24        95.42376
932.64        94.34425
933.03        91.50173
933.42        87.79236
933.82        85.25275
934.21        84.53968
934.60        85.11945
934.99        86.12122
935.39        86.61842
935.78        86.45068
936.17        85.51909
936.56        83.70075
936.96        84.52135
937.35        83.43079
937.74        84.01257
938.13        84.67892
938.53        85.65331
938.92         86.9811
939.31        88.79771
939.70        90.69727
940.09        91.39986
940.49        90.51148
940.88        88.54559
941.27        86.46484
941.66        85.42208
942.05        85.56749
942.44        86.53812
942.84        87.91515
943.23        89.03739
943.62        89.55072
944.01        89.64706
944.40        89.42516
944.79        89.03077
945.18        88.51063
945.57        87.72625
945.97         86.7044
946.36        85.67914
946.75        84.90872
947.14          84.494
947.53        84.33102
947.92        84.19865
948.31        84.04237
948.70        83.91112
949.09        83.88923
949.48        84.15227
949.87        84.71548
950.26        85.42478
950.65         86.1387
951.04        86.70324
951.43        87.05148
951.82          87.201
952.21        87.04774
952.60        86.47205
952.99        85.50606
953.38        84.21477
953.77        82.89953
954.16        81.97172
954.55        81.52992
954.94        81.56393
955.33        81.73193
955.72        81.42814
956.11        80.53728
956.50        79.19848
956.89        78.04533
957.28        78.22192
957.66        80.04432
958.05        82.89435
958.44        85.81161
958.83        87.38527
959.22        87.27692
959.61        85.84513
960.00         83.7864
960.39        82.25647
960.78        81.63232
961.16        81.65894
961.55        81.83754
961.94         81.3261
962.33        79.97018
962.72        78.17324
963.11        76.55835
963.49        75.88638
963.88        76.27269
964.27        77.54365
964.66        79.14688
965.04        79.93137
965.43        79.41079
965.82        78.01749
966.21         76.5903
966.60         76.2298
966.98        77.12789
967.37        78.90363
967.76        80.92706
968.15        81.96487
968.53        81.62517
968.92        80.31878
969.31        78.72268
969.69        77.71294
970.08        77.50051
970.47        77.83414
970.86         78.3544
971.24        78.44796
971.63        77.91782
972.02        76.96756
972.40        76.01595
972.79        75.75526
973.17        76.49417
973.56        77.90997
973.95        79.53101
974.33        80.44054
974.72        80.23031
975.11        79.15042
975.49        77.79683
975.88        77.02983
976.26        76.97625
976.65        77.48441
977.04        77.91519
977.42         76.8787
977.81         74.1377
978.19        70.40921
978.58        67.48781
978.96        67.12936
979.35        69.55025
979.74        74.43491
980.12        80.70409
980.51        84.65643
980.89        85.01488
981.28        82.68916
981.66        79.38708
982.05        77.32816
982.43         76.9228
982.82        77.44513
983.20        78.48872
983.59        79.55212
983.97        80.50782
984.35         81.5906
984.74         82.5599
985.12        83.12614
985.51         82.9378
985.89        81.94465
986.28        80.32764
986.66        78.30875
987.04        76.41063
987.43         74.8812
987.81        73.77218
988.20        73.03139
988.58        72.53651
988.96        72.08327
989.35        72.22642
989.73        74.39476
990.12        78.48142
990.50         83.4496
990.88        86.59966
991.27         86.2951
991.65        83.12786
992.03        77.48611
992.42        71.72393
992.80        70.10323
993.18        73.47989
993.56        79.48974
993.95        85.30361
994.33        88.13808
994.71        87.64842
995.10        85.17351
995.48        81.61468
995.86        78.15576
996.24         75.2515
996.63        72.30548
997.01        69.79457
997.39        69.45682
997.77        71.82575
998.15        76.54508
998.54         81.2438
998.92        82.80115
999.30        80.27058
999.68        74.39537
1000.06        66.55579
1000.45        60.46685
1000.83        57.80281
1001.21        57.52196
1001.59         58.9431
1001.97        61.36304
1002.35        64.51908
1002.73        69.23083
1003.12        74.25591
1003.50        75.36799
1003.88        70.83733
1004.26        62.71649
1004.64        55.06534
1005.02        51.38388
1005.40        51.94678
1005.78        56.55142
1006.16        65.84223
1006.54        75.43294
1006.92        79.26728
1007.30        78.59949
1007.69        76.50465
1008.07        75.27755
1008.45         75.0257
1008.83        75.09471
1009.21        74.02331
1009.59        63.42839
1009.97        19.89429
1010.35       -56.25183
1010.73       -56.58569
1011.11       -12.59098
1011.49        22.98474
1011.86        48.89294
1012.24        63.83255
1012.62        70.38763
1013.00        71.94743
1013.38        70.28223
1013.76        67.42175
1014.14        69.78035
1014.52        82.53293
1014.90        106.3048
1015.28        134.8936
1015.66        150.6275
1016.04        142.2414
1016.41          113.18
1016.79         77.8532
1017.17        52.71664
1017.55        41.10489
1017.93        36.58527
1018.31        36.24667
1018.69        39.15915
1019.06         44.9551
1019.44        54.49805
1019.82        69.45042
1020.20        87.16583
1020.58        102.5734
1020.95        110.3182
1021.33         95.4578
1021.71        339.8247
1022.09        137.2662
1022.46        127.4044
1022.84        125.6382
1023.22        129.3558
1023.60        143.6166
1023.97        285.9003
1024.35        45.75403
1024.73         74.2365
