SpectraSmart Spectrum 2.9.0.0
--------- Device Information -----------
Spectrum Name :  反射率_0
Saving Time :  2024/04/26 01:21:19
Spectro-Module Model Name : SE2030-DUVN
Spectro-Module Serial Number : OS361AC55029948
Wavelength Start : 200
Wavelength End : 1025
Wavelength Unit : Wavelength(nm)
Spectrum Unit : Reflectance(%)
-----------Spectrum Setting ------------
Integration Time : 20ms
Average : 10
Boxcar : 0
Background removal :  enabled
linearity correction :  enabled
SC :  disabled
Intensity correction :  disabled
DWT denoise :  enabled
savitzky-golay :  disabled
FFT :  disabled
Running average :  disabled
Kalman :  disabled
High pass :  disabled
---------------BEGIN--------------------
Wavelength(nm)             Reflectance(%)
200.29               0
200.75        98.28139
201.21        88.55717
201.67        77.48969
202.13        72.01363
202.58        72.90125
203.04        78.52602
203.50         85.4655
203.96        87.81839
204.42        84.66851
204.88        78.76314
205.34        73.34814
205.80        71.53856
206.26        74.34399
206.72        83.66982
207.18        103.7986
207.64        123.3905
208.10        114.7156
208.55        92.64709
209.01        78.29218
209.47        73.65363
209.93        74.81847
210.39        79.59052
210.85        85.23246
211.31        86.07344
211.77        80.48094
212.23        70.85482
212.69        61.73399
213.14        60.01174
213.60        66.67431
214.06        79.47225
214.52        93.76515
214.98        102.4956
215.44        103.7355
215.90        99.81857
216.36        93.39528
216.81        88.07391
217.27        85.35168
217.73        84.09392
218.19        82.99209
218.65        80.26035
219.11        74.95784
219.57         66.3609
220.02        55.54977
220.48         49.1471
220.94        50.85139
221.40        59.29044
221.86        66.95962
222.32        66.00918
222.77         57.6588
223.23        46.43734
223.69        37.56586
224.15        36.45382
224.61        42.28499
225.06        52.22688
225.52        61.95897
225.98        65.79462
226.44        62.82398
226.90        55.48391
227.36        47.16013
227.81        42.46326
228.27        42.66361
228.73        45.94973
229.19        50.41825
229.65        53.28257
230.10        53.86982
230.56        53.34796
231.02        52.60516
231.48        52.58204
231.93        53.37594
232.39        54.55062
232.85        55.73386
233.31        56.50052
233.77        56.72334
234.22        56.61041
234.68        56.31992
235.14         56.0661
235.60        56.00459
236.05        56.11707
236.51        56.42567
236.97        56.97415
237.43        57.83643
237.88        59.17405
238.34        61.09214
238.80        63.77343
239.26        67.02463
239.71        70.81323
240.17        74.20354
240.63        76.36794
241.08        77.26413
241.54        76.93332
242.00        76.60463
242.46        78.34551
242.91        84.13685
243.37        98.34863
243.83        138.6673
244.28        248.4233
244.74        333.1237
245.20        237.0963
245.66        172.5307
246.11        154.4255
246.57        159.8233
247.03        194.6574
247.48        305.3854
247.94         257.194
248.40        140.2807
248.85         104.031
249.31        93.33322
249.77        92.36817
250.22        96.91708
250.68          106.73
251.14        122.0771
251.59        134.9472
252.05        135.5565
252.51         126.843
252.96        115.0646
253.42        107.1987
253.88        103.3773
254.33        101.2146
254.79        101.8371
255.25        106.1528
255.70        112.6245
256.16        120.2406
256.62        125.8634
257.07         126.314
257.53         122.808
257.99        116.5984
258.44        109.8899
258.90        106.4544
259.35        105.2792
259.81         105.175
260.27        104.2352
260.72        100.6296
261.18        95.27831
261.63         88.9082
262.09        82.97352
262.55        78.26034
263.00        74.79225
263.46        72.36897
263.91        70.41017
264.37        68.77643
264.83        67.11945
265.28        65.35223
265.74        63.57824
266.19        61.62484
266.65        59.79141
267.11        58.10937
267.56        56.52706
268.02        54.98978
268.47        53.34763
268.93         51.6257
269.38        49.92491
269.84         48.6593
270.30        47.92797
270.75        47.63709
271.21        47.49992
271.66        47.06316
272.12        46.21838
272.57         45.0828
273.03        43.93686
273.48           43.11
273.94        42.70528
274.39        42.53727
274.85        42.41579
275.31        42.03028
275.76        41.30082
276.22        40.38535
276.67        39.39261
277.13         38.6031
277.58         38.0145
278.04        37.58736
278.49        37.17712
278.95        36.67986
279.40         36.0228
279.86        35.32307
280.31        34.59075
280.77        33.97581
281.22        33.46252
281.68        33.05218
282.13        32.70321
282.59         32.4198
283.04        32.17214
283.50        32.00275
283.95        31.85393
284.41        31.67464
284.86        31.44263
285.32        31.18481
285.77        30.97355
286.22         30.9945
286.68        31.24193
287.13        31.61492
287.59        31.94206
288.04        31.94639
288.50        31.61666
288.95        31.02946
289.41        30.38436
289.86        29.85523
290.32        29.56837
290.77        29.46284
291.22         29.5364
291.68        29.73889
292.13        30.05557
292.59        30.51434
293.04        31.13515
293.50        31.94661
293.95         32.9181
294.40        33.99273
294.86        35.08912
295.31        36.10103
295.77          37.014
296.22         37.8611
296.68        38.68595
297.13         39.5294
297.58        40.42966
298.04        41.39647
298.49        42.46418
298.95        43.73818
299.40        45.21555
299.85        46.86227
300.31        48.58551
300.76        50.22722
301.21        51.71386
301.67        53.11209
302.12        54.39043
302.58        55.62226
303.03        56.80761
303.48        57.96051
303.94        59.20901
304.39        60.68279
304.84        62.40754
305.30        64.33629
305.75        66.24709
306.20        67.82599
306.66        69.03508
307.11        69.92357
307.57        70.73682
308.02        71.71863
308.47        72.98437
308.93        74.45359
309.38        75.97854
309.83        77.38277
310.29        78.59875
310.74        79.64957
311.19        80.60816
311.65        81.58205
312.10        82.58881
312.55        83.60608
313.00         84.5348
313.46        85.22736
313.91        85.64439
314.36        85.85587
314.82        86.04993
315.27        86.45824
315.72        87.16924
316.18        88.11503
316.63         89.1423
317.08        89.95403
317.53        90.45652
317.99        90.70647
318.44        90.88993
318.89        91.31863
319.35        92.03797
319.80        92.98694
320.25        93.87511
320.70        94.22675
321.16        93.95751
321.61        93.23672
322.06        92.44945
322.51        92.19576
322.97        92.58907
323.42        93.48466
323.87        94.54417
324.32        95.18159
324.78        95.21175
325.23        94.85374
325.68        94.33345
326.13        94.05167
326.59        94.11475
327.04        94.42332
327.49        94.87276
327.94        95.32859
328.39        95.72753
328.85        96.10624
329.30         96.4974
329.75        96.77048
330.20        96.93073
330.66        96.99049
331.11        97.11597
331.56        97.50851
332.01        98.23026
332.46         99.2046
332.92        100.3044
333.37        101.4864
333.82        102.5825
334.27        103.5969
334.72         104.391
335.17         104.759
335.63        104.6878
336.08        104.2989
336.53        103.8238
336.98        103.6849
337.43        104.0062
337.88        104.6825
338.34        105.5833
338.79        106.5732
339.24        107.5208
339.69        108.4785
340.14        109.3114
340.59        109.7843
341.05        109.8713
341.50        109.6165
341.95        109.2715
342.40        109.2494
342.85        109.6461
343.30        110.3586
343.75        111.1872
344.20        111.7658
344.66        111.9916
345.11        111.9573
345.56        111.7962
346.01        111.7061
346.46        111.7549
346.91        111.8796
347.36        112.0325
347.81        112.1512
348.26        112.2208
348.72         112.285
349.17        112.3567
349.62        112.4973
350.07        112.7032
350.52        112.9316
350.97        113.1213
351.42        113.1882
351.87        113.1161
352.32        112.9423
352.77        112.6931
353.22        112.4123
353.67        112.1261
354.13        111.8367
354.58        111.5574
355.03        111.3685
355.48        111.2665
355.93        111.2217
356.38        111.1405
356.83        110.8724
357.28        110.3845
357.73        109.7266
358.18        108.9768
358.63        108.2623
359.08        107.6319
359.53        107.0614
359.98        106.5304
360.43        106.0023
360.88        105.4559
361.33        104.8929
361.78        104.3262
362.23         103.774
362.68        103.2396
363.13        102.7251
363.58        102.1711
364.03        101.4838
364.48        100.6588
364.93        99.72954
365.38        98.81932
365.83        98.12929
366.28        97.68889
366.73        97.41506
367.18        97.17478
367.63        96.75074
368.08        96.09335
368.53        95.30373
368.98        94.43237
369.43        93.54337
369.88         92.6824
370.33        91.82926
370.78         91.0956
371.23        90.67202
371.68        90.58251
372.13        90.77036
372.58        91.04605
373.03        91.07803
373.48        90.77506
373.93        90.23011
374.38        89.58337
374.83        89.05935
375.28        88.71781
375.72        88.46732
376.17        88.27389
376.62        88.06377
377.07        87.79745
377.52        87.49431
377.97        87.13043
378.42        86.66044
378.87         86.0962
379.32        85.47604
379.77        84.82815
380.22        84.18766
380.67        83.56333
381.11        82.94086
381.56         82.3726
382.01        81.94781
382.46         81.6896
382.91        81.59985
383.36        81.53841
383.81         81.2813
384.26         80.7903
384.71        80.10993
385.15        79.44366
385.60        79.17619
386.05        79.30633
386.50        79.70381
386.95         80.0512
387.40        79.82315
387.85        78.97166
388.29        77.72692
388.74        76.53792
389.19        75.71471
389.64        75.31495
390.09         75.1801
390.54        75.27625
390.98        75.54204
391.43        75.89365
391.88        76.31712
392.33        76.60966
392.78        76.40689
393.23        75.71191
393.67        74.80925
394.12        74.03203
394.57        73.24725
395.02        72.71168
395.47        73.17285
395.91        74.41304
396.36        75.11919
396.81        75.08859
397.26        74.92727
397.71         74.7221
398.15        74.26234
398.60        73.69489
399.05        73.21613
399.50        72.82317
399.95        72.03601
400.39        71.34242
400.84        71.12472
401.29        71.41976
401.74        71.70436
402.18        71.82233
402.63        71.64458
403.08        71.33302
403.53        71.35915
403.97          71.752
404.42          72.199
404.87        72.47297
405.32        72.33685
405.76        71.74483
406.21        70.85764
406.66        69.94915
407.11        69.48744
407.55        69.58511
408.00          69.893
408.45        70.27505
408.90        70.89918
409.34        71.41209
409.79         70.8811
410.24        69.64472
410.68         69.0452
411.13        69.20579
411.58        69.41177
412.03        69.56998
412.47        69.83627
412.92         70.1051
413.37        70.36848
413.81        70.54324
414.26        70.53754
414.71        70.32579
415.15        69.93143
415.60        69.47349
416.05        69.16567
416.49        69.07175
416.94        69.15748
417.39        69.28691
417.83         69.2044
418.28        68.87462
418.73        68.39435
419.17        67.95627
419.62        67.87383
420.07        68.16011
420.51        68.69346
420.96        69.26917
421.41        69.46995
421.85        69.17478
422.30         68.8418
422.74         68.4997
423.19        67.79706
423.64        66.99108
424.08        67.21767
424.53        68.30876
424.98        68.87698
425.42        68.75858
425.87        68.94656
426.31        69.41425
426.76        69.17291
427.21        68.51701
427.65        68.85227
428.10        70.01859
428.54        70.81583
428.99        71.14537
429.44        71.14577
429.88        70.95522
430.33        71.61086
430.77        72.48277
431.22        71.51601
431.66        69.15313
432.11        67.55058
432.56        67.12325
433.00        67.86782
433.45        69.66692
433.89        71.57912
434.34        72.26361
434.78        73.97497
435.23        69.75372
435.67        68.09354
436.12        69.85435
436.57        70.93445
437.01        71.60642
437.46        72.04621
437.90        72.50535
438.35        71.26283
438.79        72.45517
439.24        72.29061
439.68        72.02576
440.13         71.5067
440.57        71.13699
441.02        72.03545
441.46        73.72174
441.91        74.55048
442.35        74.28005
442.80        73.27547
443.24        72.02086
443.69         72.5949
444.13        74.56759
444.58        74.55231
445.02        72.77233
445.47        72.46765
445.91        73.56339
446.36        73.88807
446.80        73.38037
447.24        73.16543
447.69        73.32116
448.13        73.53258
448.58        73.81115
449.02        74.14116
449.47        74.44655
449.91        74.83821
450.36        74.93575
450.80        75.02703
451.25        75.00849
451.69        74.84856
452.13        74.59229
452.58        74.29825
453.02        74.05188
453.47        73.99443
453.91        74.11999
454.36        74.38888
454.80        74.70374
455.24        74.73284
455.69        74.42305
456.13        74.19598
456.58        74.10472
457.02        73.29179
457.46         72.3061
457.91        72.73106
458.35        74.22444
458.79        74.78214
459.24        74.29604
459.68        73.80383
460.13        73.46458
460.57        73.06301
461.01        72.71939
461.46        72.33286
461.90        71.88577
462.34        72.23297
462.79        72.04945
463.23         72.2931
463.68         72.5041
464.12        72.83523
464.56        73.15907
465.01        73.13596
465.45        72.72327
465.89        72.56708
466.34        72.54269
466.78        71.56526
467.22        70.16317
467.67         69.7338
468.11        70.99562
468.55        71.74751
468.99        71.85921
469.44        71.53828
469.88        70.98924
470.32        70.95656
470.77         71.3839
471.21          71.415
471.65        71.01444
472.10        70.84389
472.54        70.92278
472.98        70.95123
473.42        70.91209
473.87        71.01128
474.31        71.14692
474.75        70.97004
475.20        70.59183
475.64        70.48945
476.08         70.6587
476.52        70.68727
476.97        70.56918
477.41        70.55459
477.85        70.63475
478.29        70.74519
478.74         70.8997
479.18        70.90957
479.62        69.87818
480.06        70.46014
480.50        70.84731
480.95        71.35883
481.39        71.50439
481.83        70.73315
482.27        70.54363
482.72        70.62908
483.16        68.91798
483.60        69.12556
484.04        70.44381
484.48        70.99979
484.93        71.23393
485.37        71.91254
485.81        72.65688
486.25        71.30781
486.69        97.46476
487.14        79.03811
487.58        49.08303
488.02        59.89779
488.46        68.64201
488.90        68.19527
489.34        69.49821
489.79        68.59473
490.23        70.58011
490.67        71.40607
491.11        70.36898
491.55        70.21059
491.99        70.53013
492.43         70.2845
492.88        69.59101
493.32        69.62344
493.76        69.85713
494.20        70.16415
494.64        70.28712
495.08        70.45284
495.52        70.68385
495.96        70.64183
496.41        70.31143
496.85        70.64684
497.29        71.41719
497.73        70.23768
498.17        68.08158
498.61        68.63873
499.05        71.08527
499.49        71.53861
499.93        71.33144
500.37        70.97832
500.82        70.42475
501.26        70.51173
501.70         70.9762
502.14        71.25692
502.58        71.15356
503.02        71.08186
503.46        71.01596
503.90        70.69745
504.34         70.2584
504.78        70.04414
505.22        70.10367
505.66        70.34521
506.10        70.66574
506.54        70.77841
506.98        70.60128
507.42        70.43104
507.86        70.43714
508.30        69.75028
508.74        70.20415
509.18        70.30717
509.62        70.49863
510.06        70.58923
510.50        70.55409
510.94        70.42619
511.38        70.27162
511.82        70.23631
512.26        70.34737
512.70        70.55916
513.14        70.79545
513.58        70.93598
514.02        70.94223
514.46        70.84461
514.90        70.71059
515.34        70.63712
515.78        70.64103
516.22        70.74375
516.66        70.87626
517.10        70.83096
517.54        70.46961
517.98        70.53574
518.42        70.23161
518.86          70.282
519.30        70.44547
519.74        70.78921
520.18        71.19828
520.62        71.36706
521.06        71.30767
521.50        71.32309
521.93        71.41093
522.37        71.34383
522.81         71.1391
523.25        70.93846
523.69        70.80735
524.13        70.78218
524.57        70.87523
525.01        71.07626
525.45        71.30753
525.89        71.43671
526.32        71.42209
526.76        71.29945
527.20        71.12148
527.64        70.99458
528.08        70.96466
528.52         70.9389
528.96         70.8659
529.40         70.8679
529.83        70.97023
530.27        70.42178
530.71        70.64204
531.15        70.55264
531.59        70.58117
532.03          70.669
532.46         70.8306
532.90        71.05743
533.34        71.31424
533.78        71.59188
534.22        71.82018
534.66        71.90421
535.09        71.81739
535.53        71.61344
535.97        71.34318
536.41        71.11215
536.85        70.96062
537.28        70.87189
537.72        70.82334
538.16         70.7883
538.60        70.75697
539.04        70.68616
539.47        70.59192
539.91        70.68357
540.35        70.88349
540.79        70.88428
541.22        70.69763
541.66        70.63152
542.10        70.68842
542.54        70.68163
542.97        70.63132
543.41        70.68249
543.85        70.82632
544.29         71.0399
544.72        71.20864
545.16        71.17735
545.60         70.9184
546.04        70.50643
546.47         70.1138
546.91         69.9974
547.35        70.23371
547.79        70.80342
548.22        71.43201
548.66        71.74368
549.10        71.56451
549.53        70.73058
549.97        69.64477
550.41        69.14765
550.84        69.35065
551.28        69.95219
551.72        70.72275
552.15        71.10096
552.59        70.90508
553.03        71.33921
553.46        70.64275
553.90        70.53221
554.34         70.5135
554.77        70.51838
555.21        70.50686
555.65        70.50529
556.08        70.82816
556.52        70.34699
556.96        70.77649
557.39        70.69131
557.83          70.618
558.27        70.61866
558.70        70.71531
559.14        70.79155
559.57        70.84223
560.01         71.0676
560.45        71.38183
560.88        71.46709
561.32        71.30756
561.75        71.09573
562.19        70.90167
562.63        70.41743
563.06        69.85411
563.50        69.96559
563.93        70.60617
564.37        70.99787
564.80        70.98334
565.24        70.83315
565.68        70.62946
566.11        70.43002
566.55        70.29823
566.98        70.26244
567.42        70.43062
567.85         70.0929
568.29        70.92062
568.72        71.07692
569.16          71.174
569.60        71.67902
570.03        72.24073
570.47        72.13889
570.90        71.65862
571.34        70.13145
571.77        70.64291
572.21        70.93239
572.64        70.17176
573.08        69.46968
573.51         66.4626
573.95        69.02869
574.38        73.24174
574.82        71.06478
575.25        70.60696
575.69         68.6159
576.12        67.57841
576.56        67.07984
576.99        68.04732
577.42        71.21903
577.86        71.65529
578.29        71.05544
578.73        74.44782
579.16        68.87538
579.60        62.89118
580.03        65.82156
580.47        69.97626
580.90        71.76831
581.33        70.48398
581.77        69.47446
582.20        76.34574
582.64        76.35994
583.07        64.86509
583.51        63.57337
583.94        62.35287
584.37        65.13634
584.81        68.54006
585.24        72.32412
585.68        74.11718
586.11         72.8492
586.54        67.84307
586.98        65.21217
587.41        66.00408
587.85         69.4938
588.28        71.97746
588.71        68.79753
589.15        66.59551
589.58        67.85236
590.01         68.6346
590.45        69.48885
590.88        70.20616
591.31         69.2962
591.75        68.71161
592.18        68.72471
592.61        70.21383
593.05        71.03183
593.48        73.45316
593.91        74.49366
594.35        68.45161
594.78        67.17478
595.21        66.71605
595.65        69.91439
596.08        73.01784
596.51        69.86487
596.94        67.71202
597.38        68.19819
597.81        71.06712
598.24        72.68367
598.68        71.31034
599.11        70.08765
599.54        73.18092
599.97        74.50519
600.41        69.13635
600.84        69.22283
601.27        70.86198
601.70        69.63689
602.14        69.89702
602.57        68.77081
603.00        69.14295
603.43        70.79233
603.87         72.4184
604.30        72.01994
604.73        69.96996
605.16        68.18835
605.60         69.3258
606.03         70.4725
606.46        71.64908
606.89        71.11324
607.32        68.86298
607.76        68.87686
608.19        71.11246
608.62        70.35718
609.05        69.25257
609.48        69.72065
609.92        69.49532
610.35        68.94282
610.78        71.29429
611.21        72.08746
611.64        68.72891
612.07        69.42522
612.50        69.88474
612.94        70.31465
613.37        69.63239
613.80         70.0412
614.23         70.3662
614.66         70.3419
615.09        70.61757
615.52        70.66488
615.96        70.59879
616.39        70.71625
616.82        69.83787
617.25          69.483
617.68        70.27595
618.11        70.82658
618.54        71.14309
618.97        70.61626
619.40         69.6398
619.84        69.47495
620.27        70.36919
620.70        71.00484
621.13        71.26531
621.56        70.74016
621.99        69.68407
622.42        70.50628
622.85        72.41271
623.28        71.71468
623.71        71.51093
624.14        71.59507
624.57        71.01102
625.00          70.445
625.43        70.97709
625.86        70.50689
626.29          70.798
626.72        71.14606
627.15        71.03221
627.58        71.12199
628.01        71.13406
628.44        71.27558
628.87        71.60225
629.30        71.36557
629.73        71.99337
630.16          71.953
630.59        71.67379
631.02        71.27848
631.45        70.90415
631.88        70.66357
632.31         70.5808
632.74        70.72944
633.17         70.8628
633.60        70.99393
634.03        71.02401
634.46        71.04955
634.89        71.05892
635.32        70.92133
635.75        70.70518
636.18        70.66074
636.61        70.79453
637.04        70.89894
637.47          70.962
637.89        71.12601
638.32        71.32007
638.75        71.39848
639.18        71.33657
639.61        71.18344
640.04        70.97865
640.47        70.78664
640.90        70.63916
641.33        70.51567
641.76        70.40891
642.18        70.40953
642.61        70.51403
643.04        70.53912
643.47        70.41561
643.90        70.94523
644.33        70.64915
644.76        70.72066
645.18        70.71687
645.61        70.64885
646.04        70.50938
646.47        70.29721
646.90        70.11722
647.33        70.08519
647.75        70.23915
648.18        70.58579
648.61        70.92308
649.04        70.91687
649.47         70.5274
649.89        69.78218
650.32          69.062
650.75        69.00579
651.18        69.60818
651.61        70.39001
652.03        70.99176
652.46        71.01807
652.89        70.73672
653.32        70.14278
653.74        69.70607
654.17        70.48833
654.60        71.32095
655.03        69.25304
655.46        70.10751
655.88        74.07433
656.31        78.50937
656.74        177.7794
657.16        115.7487
657.59        40.46844
658.02        30.63519
658.45        53.08361
658.87        67.88859
659.30         70.9336
659.73        70.57607
660.15        67.59893
660.58        70.25074
661.01        72.04293
661.44         70.0216
661.86         69.2271
662.29        68.92429
662.72        69.58986
663.14        70.98994
663.57        71.06365
664.00        70.00281
664.42        69.79916
664.85        70.51303
665.27        70.86287
665.70        70.69289
666.13        70.48699
666.55         70.2467
666.98        69.82285
667.41        69.37461
667.83        69.22265
668.26        69.42313
668.69        69.84386
669.11        70.24927
669.54        70.60519
669.96        70.19207
670.39           69.66
670.82         69.0415
671.24        68.80243
671.67        69.06064
672.09        69.46512
672.52        69.80051
672.94        70.60181
673.37        70.49033
673.80        70.29917
674.22        69.79637
674.65        69.52045
675.07        69.51628
675.50        69.35107
675.92        69.08726
676.35        69.06207
676.77        69.29189
677.20        69.61169
677.62        69.93482
678.05        70.11887
678.47        70.11051
678.90        69.97012
679.32        69.79099
679.75        69.58199
680.17        69.65221
680.60        69.76176
681.02        69.89351
681.45        69.81046
681.87         69.5135
682.30        69.19309
682.72        68.96433
683.15        68.85966
683.57        68.96206
684.00        69.33556
684.42        69.96185
684.85        70.23368
685.27         70.1131
685.70        69.80599
686.12        69.44025
686.54         69.2177
686.97         69.1883
687.39        69.30334
687.82         69.4695
688.24        69.58807
688.66        69.60245
689.09        69.55447
689.51        69.50455
689.94        69.51709
690.36        69.61849
690.78        69.77354
691.21        69.93254
691.63        70.02914
692.06        70.04631
692.48         70.0089
692.90         69.9651
693.33        69.97396
693.75        70.05199
694.17           70.19
694.60        70.33579
695.02        70.39198
695.44        70.30345
695.87        70.25074
696.29        70.29723
696.71        70.02959
697.14        69.64312
697.56        70.23488
697.98         71.4742
698.41        71.32935
698.83        70.51521
699.25        69.87408
699.68        69.74665
700.10        69.63663
700.52        69.47012
700.94        69.68765
701.37        70.13972
701.79        70.53738
702.21        70.77215
702.64        70.94134
703.06        71.00784
703.48        70.90016
703.90        70.64001
704.33        70.23949
704.75        69.82322
705.17        69.68532
705.59        69.89314
706.01        70.26061
706.44        70.60806
706.86        71.24666
707.28         71.1567
707.70        71.13986
708.12        71.00561
708.55        70.90497
708.97        70.85389
709.39        70.81474
709.81        70.79953
710.23        70.81657
710.66        70.86367
711.08        70.98129
711.50        71.08224
711.92         71.0378
712.34        70.83003
712.76        70.47839
713.19        70.13654
713.61        70.08678
714.03        70.36508
714.45        70.88988
714.87        71.41943
715.29        71.56633
715.71        71.25529
716.13        70.61505
716.56        69.89977
716.98        69.55185
717.40        69.67923
717.82         70.1473
718.24        70.75378
718.66        71.15313
719.08        71.23509
719.50        71.10505
719.92        70.86478
720.34        70.69458
720.76        70.65598
721.19        70.56863
721.61        70.63455
722.03        70.69447
722.45        70.79474
722.87        70.94265
723.29        71.10793
723.71        71.22273
724.13        71.26684
724.55        71.25085
724.97        71.20048
725.39        71.16727
725.81        71.16558
726.23        71.18002
726.65        71.19874
727.07        71.19971
727.49         71.1833
727.91        71.17271
728.33        71.16999
728.75        71.17633
729.17        71.19075
729.59        71.19584
730.01         71.2319
730.43        71.35557
730.85         71.5724
731.27        71.89359
731.69        72.19386
732.10        72.24918
732.52        72.02187
732.94        71.61853
733.36        71.26083
733.78        71.17132
734.20        71.40517
734.62        72.19479
735.04        73.22863
735.46        73.26508
735.88         72.5134
736.30        72.66333
736.72        73.70981
737.13        74.09473
737.55         73.6166
737.97        73.58135
738.39        73.97648
738.81        73.37459
739.23        72.18577
739.65        72.81467
740.06        74.78838
740.48         74.9144
740.90         73.3484
741.32        72.23972
741.74         72.8972
742.16         73.1039
742.57         73.2155
742.99        73.97176
743.41        75.13727
743.83        75.85736
744.25         75.9684
744.67        75.69792
745.08        75.27835
745.50        75.09413
745.92        75.26819
746.34        75.66005
746.75        76.12857
747.17         76.4108
747.59        76.45337
748.01        76.42162
748.42        76.43135
748.84        76.47993
749.26        76.70704
749.68        77.35789
750.09        78.23839
750.51        78.87666
750.93        79.08282
751.35        78.62386
751.76         77.7771
752.18        77.49142
752.60         77.7959
753.01        77.95292
753.43        77.93136
753.85        78.20906
754.27        78.78011
754.68        79.41972
755.10        79.99626
755.52        80.45656
755.93        80.73164
756.35        80.77209
756.77        80.70414
757.18        80.62697
757.60        80.60876
758.02        80.91537
758.43        81.22264
758.85        80.62194
759.26        79.34053
759.68        78.49048
760.10        80.76815
760.51        81.20061
760.93         80.3445
761.34        79.45999
761.76        79.02601
762.18        78.78976
762.59         78.8868
763.01        79.27431
763.42         79.9031
763.84        80.45627
764.26        80.86125
764.67        81.06657
765.09        81.01029
765.50        80.80476
765.92        80.39902
766.33        79.16528
766.75        77.61559
767.16        77.20055
767.58        78.05794
768.00         79.5872
768.41        81.37492
768.83         82.6181
769.24        82.83286
769.66        82.05998
770.07        80.80462
770.49        79.39026
770.90        78.25085
771.32        79.14827
771.73        81.37758
772.15        80.85302
772.56        78.04073
772.97        77.31075
773.39         78.6546
773.80        79.22295
774.22        78.77898
774.63         78.8568
775.05        79.36442
775.46        79.63937
775.88        79.57028
776.29        79.25151
776.70        78.81891
777.12        78.61913
777.53        78.73447
777.95        78.99158
778.36        79.25505
778.77        79.29266
779.19        79.09181
779.60        78.74416
780.02        78.39153
780.43         78.3621
780.84        78.77475
781.26        78.99512
781.67        79.08109
782.09        80.27386
782.50        81.96751
782.91        81.21941
783.33        78.69678
783.74        77.92073
784.15        79.04881
784.57        79.77792
784.98        79.79996
785.39        79.80191
785.81        79.71507
786.22        79.19941
786.63        78.57761
787.04        78.48074
787.46        78.97683
787.87        79.87321
788.28        80.85168
788.70        81.35649
789.11        81.24686
789.52        80.73002
789.93         80.0771
790.35        79.62434
790.76        79.50013
791.17        79.71828
791.58        80.12347
792.00        80.32228
792.41        80.21519
792.82        80.00854
793.23         79.9081
793.65        79.70367
794.06        79.61959
794.47        80.80788
794.88        82.48891
795.29        82.02491
795.71         79.6561
796.12        77.45148
796.53        76.10832
796.94        75.75718
797.35        76.46653
797.76        77.76968
798.18        79.06419
798.59        79.96487
799.00        80.12811
799.41        79.33968
799.82        78.06441
800.23        77.34915
800.64        77.40833
801.06        77.83723
801.47        78.47906
801.88        78.96957
802.29        79.16301
802.70        79.22337
803.11        79.16982
803.52        78.99651
803.93        78.74717
804.34        78.37833
804.75        78.04434
805.17         78.0771
805.58        78.56313
805.99        79.19598
806.40        79.71458
806.81        80.21458
807.22        80.32766
807.63        78.97089
808.04         76.7889
808.45        75.83565
808.86        76.34481
809.27        77.36355
809.68        78.44984
810.09        79.14896
810.50        79.20614
810.91        78.78249
811.32         78.1236
811.73        77.62488
812.14        77.41488
812.55        77.32827
812.96        77.37452
813.37        77.57547
813.78        77.89721
814.19        78.39895
814.60        78.82908
815.01        78.77905
815.42         78.1989
815.83        77.15865
816.24        76.10583
816.65         75.8351
817.05        76.57124
817.46        78.04719
817.87        79.65753
818.28        80.31943
818.69        79.74342
819.10        78.20698
819.51        76.41257
819.92        75.54812
820.33        75.92885
820.74        77.20322
821.14        78.70997
821.55        79.27148
821.96        78.63142
822.37        77.19717
822.78        75.58023
823.19        74.67542
823.60        74.72001
824.00        75.48489
824.41        76.51904
824.82        77.15828
825.23        77.13816
825.64        76.69484
826.04        76.11273
826.45        75.80088
826.86        75.86255
827.27        76.12125
827.68        76.43394
828.08        76.61382
828.49        76.53147
828.90        76.33313
829.31        76.04408
829.72        75.69495
830.12         75.3656
830.53        75.02174
830.94        74.82846
831.35        75.00804
831.75         75.6176
832.16        76.53683
832.57        77.55248
832.97        78.19905
833.38        78.25895
833.79        77.85941
834.20        77.26448
834.60        76.88338
835.01         76.8548
835.42        77.06033
835.82        77.32845
836.23        77.28799
836.64        76.89289
837.04        76.28974
837.45        75.70466
837.86        75.48963
838.26        75.72999
838.67        76.26738
839.08        76.91019
839.48        77.31355
839.89        77.33176
840.29        77.09386
840.70        76.70113
841.11        76.28957
841.51        75.92941
841.92        75.55291
842.33         75.2466
842.73        75.16856
843.14        75.29942
843.54         75.6446
843.95        75.99033
844.35        76.03446
844.76        75.70074
845.17        75.10357
845.57        74.44845
845.98        74.06083
846.38        74.02341
846.79        74.21452
847.19        74.54807
847.60         74.7794
848.00        74.85764
848.41        74.82555
848.81        74.74251
849.22         74.6198
849.62        74.52428
850.03        74.44294
850.43        74.42994
850.84        74.51041
851.24         74.7328
851.65        74.92772
852.05         75.2339
852.46        75.69237
852.86        76.28695
853.27        77.02336
853.67         77.4362
854.07        76.93239
854.48        75.55023
854.88        73.50656
855.29        71.56702
855.69        70.84267
856.10        71.53975
856.50         73.5113
856.90        76.08209
857.31        77.66811
857.71         77.7552
858.12        76.72863
858.52        75.24426
858.92        74.16462
859.33        73.69918
859.73        73.60266
860.13        73.83006
860.54        74.29855
860.94        74.99947
861.34        75.94556
861.75        76.90593
862.15        77.58258
862.55        77.85285
862.96        77.75203
863.36        77.45214
863.76        77.24628
864.17        77.24735
864.57        77.43317
864.97        77.75751
865.38        78.14001
865.78         78.5851
866.18          79.032
866.58         79.4967
866.99        79.98251
867.39        80.51877
867.79        81.11243
868.19        81.48233
868.60        81.12969
869.00        80.00146
869.40        78.27769
869.80        76.71854
870.21        76.48659
870.61        77.91179
871.01        80.65584
871.41         83.8059
871.81        85.77937
872.22        86.11563
872.62        85.23322
873.02         83.9247
873.42         83.6184
873.82        84.47479
874.22        85.77121
874.63        87.07861
875.03        87.53786
875.43         86.7634
875.83        85.97253
876.23         84.0478
876.63        83.23325
877.03        83.52347
877.44        85.16153
877.84        103.5128
878.24        92.69241
878.64        92.75637
879.04        92.17181
879.44        87.89621
879.84        85.78654
880.24        89.78493
880.64        92.08983
881.04        93.44476
881.44        94.07299
881.84        93.23487
882.24        91.32439
882.65        89.47872
883.05        88.82902
883.45        89.56773
883.85        91.58538
884.25        94.12402
884.65        95.58929
885.05        95.47141
885.45        94.31506
885.85        92.85483
886.25           92.09
886.65        92.25684
887.05        93.00291
887.45        94.01706
887.85        94.76618
888.25        95.03022
888.65        95.02674
889.04        94.82201
889.44        94.53949
889.84        94.23038
890.24        93.80673
890.64        93.40505
891.04        93.26762
891.44        93.40937
891.84        93.79427
892.24        94.16064
892.64        94.01251
893.04        93.31852
893.44        92.35619
893.83         91.4675
894.23        91.14684
894.63        91.47089
895.03        92.19173
895.43        93.29491
895.83         94.7198
896.23        96.29013
896.63        98.00713
897.02        99.23473
897.42         98.9677
897.82        97.14418
898.22        94.15485
898.62        91.12157
899.01        89.69221
899.41         90.2092
899.81         92.1397
900.21        94.60319
900.61        96.14574
901.00         96.3395
901.40        95.63649
901.80        94.57069
902.20        93.97456
902.59        94.09305
902.99        94.61827
903.39        95.24719
903.79        95.50513
904.18        95.25099
904.58          94.733
904.98        94.20255
905.38        94.00793
905.77        94.21873
906.17        94.69124
906.57          95.245
906.96           95.68
907.36        95.86726
907.76        95.87105
908.15        95.74091
908.55        95.44751
908.95        95.04981
909.34         94.5066
909.74        93.90982
910.14        93.22194
910.53        92.49439
910.93        91.83605
911.33         91.3485
911.72        91.23627
912.12        91.46848
912.52        91.88071
912.91        92.46085
913.31        93.22549
913.70         94.2114
914.10        95.47251
914.49         96.5774
914.89        96.41018
915.29        94.74609
915.68        92.00925
916.08        89.53828
916.47        88.62526
916.87        89.36193
917.26        91.35292
917.66        93.57664
918.05        94.34517
918.45        93.23792
918.84        90.86257
919.24        88.31151
919.64        87.18425
920.03        87.89954
920.42        89.95187
920.82        92.56579
921.21        94.49586
921.61        95.10839
922.00        94.82837
922.40        93.98366
922.79        93.02356
923.19        92.19037
923.58         91.2527
923.98        90.18528
924.37         89.4061
924.77        89.26295
925.16        87.54925
925.55        88.60636
925.95        89.48867
926.34        91.40862
926.74        93.83694
927.13        96.19454
927.52        97.29012
927.92        96.94943
928.31        95.54658
928.70        93.52475
929.10        91.66302
929.49         90.2272
929.89        89.08142
930.28        88.47398
930.67        88.81384
931.07        89.98358
931.46        91.93122
931.85        93.89924
932.24        94.73983
932.64        94.22715
933.03        92.53432
933.42        90.13462
933.82        88.20007
934.21        87.14055
934.60        86.75005
934.99        86.67837
935.39        86.59727
935.78        86.46307
936.17        86.02498
936.56        85.06573
936.96        86.28442
937.35         85.3189
937.74        85.55525
938.13        85.81102
938.53        86.46081
938.92        87.54745
939.31         89.1049
939.70        90.72604
940.09        91.20569
940.49         90.2094
940.88         88.2886
941.27        86.31634
941.66         85.3096
942.05        85.40096
942.44        86.23412
942.84        87.52524
943.23        88.85755
943.62        89.89745
944.01          90.728
944.40        91.17803
944.79         90.9861
945.18        90.09155
945.57        88.43259
945.97        86.25872
946.36        84.42986
946.75        83.50972
947.14        83.38824
947.53        83.71968
947.92        84.04545
948.31        84.27126
948.70        84.54659
949.09        84.91091
949.48        85.38494
949.87        85.92036
950.26        86.36951
950.65        86.74191
951.04        87.13826
951.43        87.56885
951.82        88.02278
952.21        88.27665
952.60        87.99637
952.99        87.14288
953.38        85.80783
953.77        84.44721
954.16        83.70932
954.55        83.70813
954.94        84.34869
955.33         85.0046
955.72        84.60098
956.11        82.92639
956.50        80.26817
956.89        77.64816
957.28        76.94589
957.66        78.73198
958.05        82.17799
958.44        85.99958
958.83        88.27962
959.22        88.51228
959.61        87.19509
960.00        85.06873
960.39        83.36317
960.78        82.49927
961.16        82.16087
961.55         81.9248
961.94        81.12134
962.33           79.66
962.72        77.95444
963.11        76.51465
963.49        75.91648
963.88         76.2363
964.27        77.31684
964.66        78.76037
965.04        79.72323
965.43        79.76326
965.82        79.16271
966.21        78.42351
966.60        78.24076
966.98        78.76469
967.37        79.72334
967.76        80.78934
968.15        81.32808
968.53        81.12226
968.92        80.36832
969.31        79.41429
969.69        78.66923
970.08        78.25475
970.47        78.10308
970.86        77.99935
971.24        77.58364
971.63        76.77821
972.02        75.68467
972.40        74.78516
972.79        74.89539
973.17        76.30851
973.56         78.6937
973.95        81.26637
974.33          82.519
974.72        81.93088
975.11        79.97648
975.49         77.6699
975.88        76.39254
976.26        76.36242
976.65        77.29704
977.04        78.42717
977.42         77.9787
977.81        75.48286
978.19        71.77101
978.58        68.71223
978.96        68.15575
979.35        70.34277
979.74        74.87019
980.12        80.71924
980.51        84.39074
980.89         84.7007
981.28        82.55441
981.66        79.47701
982.05        77.42328
982.43        76.79144
982.82        76.94794
983.20        77.69519
983.59        78.84328
983.97        80.36359
984.35        82.47958
984.74        84.74715
985.12        86.33045
985.51        86.51936
985.89        85.23132
986.28        82.97323
986.66        80.63402
987.04        78.87061
987.43        77.74692
987.81        76.80621
988.20        75.27908
988.58        72.76663
988.96        68.75666
989.35         63.9569
989.73        62.49683
990.12        66.94037
990.50        75.34341
990.88        82.45202
991.27        84.37492
991.65        81.70977
992.03        75.64371
992.42        68.74901
992.80        65.76275
993.18        67.98729
993.56        72.85677
993.95        78.06288
994.33        81.56125
994.71        82.87621
995.10        83.11452
995.48        82.29467
995.86        80.13909
996.24        76.69724
996.63        71.53928
997.01        65.87461
997.39        63.51453
997.77        66.08773
998.15        72.84692
998.54        80.19839
998.92        83.12201
999.30        80.17776
999.68        72.58588
1000.06        62.60334
1000.45        55.76541
1000.83        54.28499
1001.21        56.27417
1001.59        59.93357
1001.97        63.44031
1002.35        66.34126
1002.73         69.6344
1003.12        72.45521
1003.50        72.01793
1003.88        67.50391
1004.26        60.54909
1004.64         54.0683
1005.02        50.32925
1005.40        49.32447
1005.78        50.69139
1006.16        55.61922
1006.54        63.69693
1006.92        70.68288
1007.30        74.88434
1007.69        76.72177
1008.07        77.59617
1008.45        78.07069
1008.83        77.56087
1009.21        74.19123
1009.59        60.99058
1009.97        21.63985
1010.35       -35.74507
1010.73       -30.94213
1011.11      -0.8929579
1011.49        20.89221
1011.86        37.74485
1012.24        47.52823
1012.62        51.94693
1013.00        53.16846
1013.38        51.65702
1013.76        49.57325
1014.14        53.86934
1014.52        70.01292
1014.90        100.1397
1015.28        134.4751
1015.66        146.1911
1016.04        121.0399
1016.41        66.74767
1016.79        15.14581
1017.17       -2.613577
1017.55        5.820176
1017.93        22.32519
1018.31        37.65246
1018.69        47.36152
1019.06        52.55594
1019.44        55.26103
1019.82           57.28
1020.20        62.43416
1020.58        75.40443
1020.95        101.9672
1021.33        148.8682
1021.71       -246.1414
1022.09        94.52209
1022.46        120.6945
1022.84         133.374
1023.22        144.9726
1023.60        167.2873
1023.97        371.8338
1024.35        30.07844
1024.73         73.0579
