SpectraSmart Spectrum 2.9.0.0
--------- Device Information -----------
Spectrum Name :  反射率_0
Saving Time :  2024/04/26 01:08:58
Spectro-Module Model Name : SE2030-DUVN
Spectro-Module Serial Number : OS361AC55029948
Wavelength Start : 200
Wavelength End : 1025
Wavelength Unit : Wavelength(nm)
Spectrum Unit : Reflectance(%)
-----------Spectrum Setting ------------
Integration Time : 20ms
Average : 10
Boxcar : 0
Background removal :  enabled
linearity correction :  enabled
SC :  disabled
Intensity correction :  disabled
DWT denoise :  enabled
savitzky-golay :  disabled
FFT :  disabled
Running average :  disabled
Kalman :  disabled
High pass :  disabled
---------------BEGIN--------------------
Wavelength(nm)             Reflectance(%)
200.29               0
200.75        105.8298
201.21        98.56712
201.67        88.89465
202.13         82.1384
202.58         79.1915
203.04        78.87497
203.50        79.94431
203.96        80.45639
204.42        79.87624
204.88        79.03319
205.34        78.48408
205.80        78.74026
206.26        80.15372
206.72        83.42681
207.18        89.66118
207.64        94.88189
208.10        90.69648
208.55        82.41557
209.01        77.32938
209.47        75.88956
209.93        76.60792
210.39        79.03548
210.85        81.48406
211.31        80.45877
211.77        75.27306
212.23        67.33099
212.69        60.33094
213.14        60.02861
213.60        67.07316
214.06        79.78126
214.52        93.59131
214.98        101.5068
215.44        101.7775
215.90        96.60332
216.36        89.26719
216.81        84.35107
217.27        83.22384
217.73        84.31392
218.19        85.32359
218.65        83.14531
219.11        76.59026
219.57        65.04937
220.02        50.12646
220.48        41.11374
220.94        43.41099
221.40        54.42147
221.86         65.2887
222.32         66.7719
222.77        59.71529
223.23        49.24299
223.69         40.0471
224.15        36.80959
224.61        39.13177
225.06        44.70541
225.52        50.47493
225.98         52.7676
226.44        50.91832
226.90        46.50819
227.36        41.72103
227.81        39.43588
228.27        40.46181
228.73        43.53689
229.19        47.09441
229.65        48.88508
230.10        48.55658
230.56        47.15092
231.02        45.72795
231.48         45.4456
231.93        46.36931
232.39        47.98019
232.85        49.72585
233.31        50.87101
233.77        51.16803
234.22        50.82749
234.68        50.05395
235.14        49.19308
235.60        48.47976
236.05        47.92963
236.51        47.43797
236.97        46.75682
237.43        45.85942
237.88        44.87224
238.34        44.30652
238.80        45.49776
239.26        48.93083
239.71         54.2733
240.17        60.08798
240.63        64.36348
241.08        66.47374
241.54          66.731
242.00        66.05381
242.46        65.89988
242.91        67.24158
243.37        70.80711
243.83        83.12398
244.28         129.076
244.74        191.6749
245.20        170.8346
245.66        145.4943
246.11        139.0208
246.57        145.0789
247.03        169.6436
247.48        239.6335
247.94         193.649
248.40        116.3555
248.85        93.71008
249.31        87.85498
249.77        88.64735
250.22         93.6562
250.68        103.6128
251.14        118.1381
251.59        127.4896
252.05        122.1666
252.51        106.5798
252.96        90.52857
253.42         83.2718
253.88        84.02804
254.33        89.23484
254.79        96.37317
255.25        101.3889
255.70        103.1337
256.16        103.5701
256.62        102.6639
257.07         100.164
257.53        96.82185
257.99        92.29813
258.44        87.59165
258.90        85.00742
259.35        83.62778
259.81        82.92905
260.27        81.30339
260.72        77.14229
261.18        71.31232
261.63        64.52541
262.09        58.42491
262.55        54.20679
263.00        51.80758
263.46        50.70773
263.91        49.93942
264.37        48.78625
264.83        47.01466
265.28        44.76348
265.74        42.59908
266.19        41.11723
266.65        40.53355
267.11        40.48484
267.56        40.40491
268.02        39.62953
268.47        38.03234
268.93        35.85059
269.38        33.50571
269.84        31.97102
270.30        31.51091
270.75        31.84752
271.21        32.43363
271.66        32.44137
272.12        31.66151
272.57        30.36202
273.03        28.97404
273.48        28.05787
273.94        27.77041
274.39        27.86387
274.85        28.04292
275.31        27.87987
275.76        27.27506
276.22         26.4183
276.67        25.52167
277.13        24.96928
277.58        24.78146
278.04        24.84632
278.49        24.91806
278.95        24.71881
279.40        24.17691
279.86        23.45469
280.31        22.69705
280.77        22.22396
281.22        22.05208
281.68        22.08999
282.13        22.18934
282.59        22.17693
283.04        22.00698
283.50        21.77908
283.95        21.52199
284.41        21.29366
284.86         21.1128
285.32        20.96188
285.77        20.89244
286.22        21.04459
286.68        21.39786
287.13         21.8828
287.59        22.32164
288.04        22.44165
288.50        22.22386
288.95        21.74141
289.41        21.20186
289.86        20.81695
290.32        20.69979
290.77        20.77707
291.22        21.00274
291.68        21.26217
292.13        21.53939
292.59        21.89359
293.04         22.3833
293.50          23.092
293.95         24.0163
294.40        25.08467
294.86        26.23198
295.31        27.37789
295.77        28.50218
296.22        29.63455
296.68        30.75971
297.13         31.8196
297.58        32.83073
298.04        33.82288
298.49        34.90487
298.95        36.29968
299.40        38.03167
299.85         40.0295
300.31        42.12418
300.76          44.036
301.21        45.66267
301.67        47.11137
302.12        48.42665
302.58        49.78128
303.03        51.20314
303.48        52.66742
303.94        54.24765
304.39        55.99797
304.84         57.9209
305.30        59.99102
305.75        62.02485
306.20        63.76165
306.66        65.16994
307.11        66.27793
307.57        67.28641
308.02        68.38437
308.47        69.67912
308.93        71.11374
309.38        72.58764
309.83        73.99341
310.29        75.27744
310.74        76.43963
311.19        77.51283
311.65        78.54419
312.10        79.53683
312.55        80.48823
313.00        81.32368
313.46        81.93516
313.91        82.29826
314.36        82.47219
314.82         82.6356
315.27        83.00807
315.72        83.67332
316.18        84.57213
316.63        85.55809
317.08         86.3417
317.53        86.83531
317.99        87.09811
318.44        87.30824
318.89        87.76718
319.35        88.51502
319.80        89.47879
320.25        90.39056
320.70        90.81248
321.16        90.65778
321.61        90.08397
322.06        89.40343
322.51          89.104
322.97        89.28847
323.42        89.85007
323.87        90.56347
324.32        91.03757
324.78        91.14024
325.23        91.03127
325.68        90.83047
326.13        90.75906
326.59        90.86671
327.04        91.10169
327.49        91.41152
327.94        91.75132
328.39        92.09119
328.85         92.4355
329.30        92.80281
329.75        93.05156
330.20        93.17986
330.66         93.2143
331.11        93.31414
331.56        93.66249
332.01        94.31641
332.46        95.19915
332.92        96.19753
333.37        97.28692
333.82        98.31467
334.27        99.28854
334.72        100.0583
335.17        100.3966
335.63         100.284
336.08        99.83746
336.53        99.32167
336.98        99.21104
337.43         99.6304
337.88        100.4565
338.34        101.4818
338.79        102.4401
339.24        103.1795
339.69        103.7979
340.14        104.2694
340.59        104.5516
341.05        104.6705
341.50         104.603
341.95        104.5148
342.40        104.6929
342.85        105.1897
343.30         105.937
343.75        106.7318
344.20        107.2013
344.66        107.2604
345.11         107.013
345.56        106.6406
346.01         106.418
346.46        106.4297
346.91        106.5908
347.36        106.8347
347.81        107.0632
348.26        107.2401
348.72        107.4168
349.17        107.5698
349.62        107.7028
350.07        107.8095
350.52        107.8671
350.97        107.8781
351.42        107.8602
351.87        107.8175
352.32        107.7531
352.77        107.6458
353.22        107.4626
353.67        107.2009
354.13        106.8812
354.58        106.5275
355.03        106.2345
355.48        106.0134
355.93          105.84
356.38         105.628
356.83        105.2391
357.28         104.651
357.73        103.9137
358.18        103.1325
358.63        102.4747
359.08         101.979
359.53        101.5909
359.98        101.2251
360.43        100.7456
360.88        100.1129
361.33        99.37103
361.78         98.5697
362.23        97.79161
362.68         97.0741
363.13        96.40094
363.58        95.75675
364.03        95.11397
364.48        94.46284
364.93        93.81512
365.38        93.18677
365.83        92.60018
366.28         92.0497
366.73        91.50877
367.18        90.95438
367.63        90.35813
368.08        89.72301
368.53        89.08359
368.98        88.43044
369.43        87.73683
369.88        87.00751
370.33        86.24626
370.78        85.54325
371.23        85.05067
371.68        84.79285
372.13        84.72214
372.58        84.69798
373.03        84.48161
373.48        84.01788
373.93        83.38822
374.38        82.71632
374.83        82.18907
375.28        81.84994
375.72        81.61758
376.17        81.44743
376.62        81.24689
377.07        80.96986
377.52        80.62971
377.97         80.2177
378.42        79.71896
378.87        79.15262
379.32        78.55322
379.77        77.92632
380.22        77.27116
380.67        76.59525
381.11        75.89922
381.56        75.27242
382.01        74.86502
382.46        74.70754
382.91        74.77166
383.36        74.87652
383.81        74.73266
384.26        74.28259
384.71        73.59719
385.15        72.88795
385.60        72.54417
386.05        72.58086
386.50        72.86462
386.95        73.12567
387.40        72.92021
387.85        72.20068
388.29        71.15937
388.74        70.15687
389.19        69.41387
389.64        68.97325
390.09        68.70749
390.54        68.62025
390.98         68.7204
391.43        68.96145
391.88        69.31808
392.33        69.58393
392.78        69.41212
393.23        68.79966
393.67        67.95567
394.12        67.20989
394.57        66.60075
395.02        66.30157
395.47        66.69715
395.91        67.61525
396.36        68.17286
396.81        68.21355
397.26        68.11368
397.71         67.9212
398.15        67.48808
398.60        66.94099
399.05        66.41099
399.50        65.93642
399.95        65.20108
400.39        64.60325
400.84        64.35762
401.29        64.49665
401.74        64.54371
402.18         64.4627
402.63        64.45736
403.08        64.58382
403.53        64.79495
403.97        65.07318
404.42        65.39719
404.87        65.61216
405.32        65.44923
405.76        64.87724
406.21        64.10579
406.66        63.35362
407.11        62.84851
407.55        62.74095
408.00        63.10517
408.45        63.76673
408.90        64.30054
409.34          64.439
409.79        63.96508
410.24        63.15118
410.68        62.73864
411.13        62.82963
411.58        63.02211
412.03        63.24628
412.47        63.55121
412.92        63.84014
413.37        64.13187
413.81        64.34096
414.26        64.37303
414.71        64.20535
415.15         63.8558
415.60        63.45796
416.05        63.25226
416.49        63.30167
416.94        63.56183
417.39        63.85879
417.83        63.87696
418.28         63.5648
418.73        63.03255
419.17        62.52065
419.62         62.4124
420.07        62.74524
420.51        63.38272
420.96        64.07649
421.41        64.36452
421.85        64.11514
422.30        63.70824
422.74        63.24996
423.19        62.68925
423.64        62.20454
424.08        62.44869
424.53        63.27388
424.98        63.77212
425.42         63.8212
425.87        64.08754
426.31        64.54415
426.76        64.46996
427.21        64.08598
427.65        64.44422
428.10        65.44425
428.54        66.19122
428.99        66.62427
429.44        66.89557
429.88        66.96001
430.33         67.4409
430.77        67.89619
431.22        66.64474
431.66        64.29679
432.11        63.51739
432.56        64.38776
433.00        65.21796
433.45        65.84526
433.89        67.34383
434.34        68.52146
434.78         69.9483
435.23        66.09547
435.67        64.77176
436.12        66.66653
436.57        67.74542
437.01        68.24441
437.46        68.54062
437.90        68.81982
438.35        68.40296
438.79        69.11687
439.24         69.0967
439.68        68.91512
440.13        68.50367
440.57         68.2231
441.02        69.05112
441.46        70.59874
441.91        71.48144
442.35        71.43021
442.80        70.62234
443.24        69.49571
443.69        70.03443
444.13        71.85668
444.58        71.88573
445.02        70.25045
445.47        70.06094
445.91        71.21054
446.36        71.62852
446.80        71.24145
447.24        71.13406
447.69        71.35677
448.13         71.5392
448.58        71.68967
449.02        71.85546
449.47        72.03472
449.91        72.24821
450.36        72.48545
450.80        72.69546
451.25        72.83503
451.69        72.82681
452.13        72.68173
452.58        72.42648
453.02        72.15681
453.47        72.07215
453.91        72.19217
454.36        72.45196
454.80        72.73946
455.24        72.81957
455.69        72.64429
456.13        72.33056
456.58        72.03165
457.02        71.64978
457.46        71.39069
457.91        71.74317
458.35        72.48387
458.79         72.8068
459.24        72.66171
459.68        72.39816
460.13        72.09236
460.57         71.7711
461.01        71.55278
461.46        70.95263
461.90        70.57185
462.34        70.89279
462.79        70.46606
463.23         70.7607
463.68        71.19865
464.12        71.51334
464.56        71.60321
465.01         71.7359
465.45        71.74033
465.89        71.40408
466.34        70.76653
466.78        69.75816
467.22        68.88676
467.67        68.42168
468.11        69.90948
468.55        70.36549
468.99        70.08285
469.44        69.67013
469.88        69.37283
470.32        69.64523
470.77        70.29573
471.21        70.41669
471.65        69.92983
472.10        69.50511
472.54        69.29427
472.98        69.21593
473.42        69.29427
473.87        69.67699
474.31        70.13166
474.75        70.06457
475.20        69.56572
475.64        69.28041
476.08        69.27777
476.52        69.18684
476.97        69.02889
477.41         69.0446
477.85        69.19988
478.29        69.42821
478.74        69.53712
479.18        69.68315
479.62        68.34952
480.06        68.87853
480.50        69.33623
480.95        69.92147
481.39         70.1164
481.83        69.36496
482.27          69.415
482.72        69.20296
483.16        67.71728
483.60        67.93751
484.04        69.35094
484.48        69.95659
484.93        70.16571
485.37        71.20175
485.81        71.61595
486.25        70.59959
486.69        95.15014
487.14        77.19223
487.58        48.07938
488.02        59.19539
488.46        66.99462
488.90        66.85815
489.34        68.45198
489.79        67.42071
490.23        69.39075
490.67        70.05669
491.11        69.03079
491.55        68.88798
491.99        69.25282
492.43        69.06734
492.88        68.43558
493.32        68.57125
493.76        68.91278
494.20        69.23925
494.64        69.28455
495.08        69.27301
495.52        69.32234
495.96        69.28761
496.41        69.15839
496.85        69.74545
497.29        70.70521
497.73        69.55091
498.17        67.32096
498.61        67.57625
499.05        70.27076
499.49         70.7079
499.93        70.41479
500.37        70.03766
500.82         69.5443
501.26        69.66779
501.70        70.07442
502.14        70.54548
502.58        70.07122
503.02        69.90199
503.46         69.7846
503.90        69.38184
504.34        68.85423
504.78        68.64461
505.22         68.7992
505.66        69.24359
506.10        69.81245
506.54        70.00539
506.98        69.68613
507.42        69.84419
507.86        69.12262
508.30        68.99877
508.74         69.0864
509.18        69.33953
509.62        69.63224
510.06        69.79528
510.50        69.79255
510.94        69.67554
511.38        69.52694
511.82        69.46539
512.26         69.5243
512.70        69.65315
513.14        69.79066
513.58        69.89951
514.02        69.96084
514.46        69.89224
514.90        69.69801
515.34         69.8869
515.78        69.63049
516.22        69.65073
516.66         69.6859
517.10        69.55894
517.54        69.26322
517.98        69.45686
518.42        69.29347
518.86        69.43386
519.30        69.61166
519.74        69.87074
520.18        70.15129
520.62        70.34994
521.06        70.44539
521.50        70.46345
521.93        70.40388
522.37        70.26807
522.81          70.084
523.25        69.86506
523.69        69.68748
524.13        69.66686
524.57        69.81944
525.01        70.10594
525.45        70.44335
525.89        70.69237
526.32        70.79848
526.76        70.79245
527.20        70.70052
527.64        70.59335
528.08        70.51331
528.52        70.37043
528.96        70.14711
529.40        70.04648
529.83        70.09886
530.27        69.49144
530.71        69.63373
531.15        69.52882
531.59        69.59735
532.03        69.73788
532.46        69.96198
532.90        70.27276
533.34        70.62389
533.78        70.99455
534.22        71.28456
534.66        71.35843
535.09        71.18784
535.53        70.84245
535.97        70.41769
536.41        70.09005
536.85        69.91746
537.28        69.86454
537.72        69.87643
538.16        69.86935
538.60        69.82021
539.04        69.71109
539.47        69.57475
539.91        69.64206
540.35        69.84399
540.79        69.86051
541.22        69.70879
541.66        69.71268
542.10        69.86973
542.54        69.97396
542.97         70.0029
543.41        70.10629
543.85         70.1521
544.29        70.24214
544.72        70.27297
545.16         70.1711
545.60        69.92303
546.04        69.55624
546.47        69.23438
546.91        69.20778
547.35         69.5107
547.79        70.13536
548.22         70.7844
548.66        70.91019
549.10        70.45456
549.53        69.69803
549.97         68.9764
550.41        68.64108
550.84        68.79403
551.28         69.3627
551.72        70.10385
552.15        70.51018
552.59        70.44783
553.03        70.31298
553.46         69.8543
553.90        69.65915
554.34        69.66273
554.77        69.80848
555.21        70.03757
555.65        69.94149
556.08        70.40628
556.52        69.84665
556.96        70.16869
557.39        70.02529
557.83        69.94831
558.27        69.87594
558.70        69.85051
559.14        69.96728
559.57        70.19273
560.01        70.43935
560.45        70.64482
560.88        70.83067
561.32        70.91738
561.75        70.67858
562.19        70.23306
562.63        69.66766
563.06        69.16595
563.50        69.22054
563.93        69.71375
564.37        69.87917
564.80        69.85405
565.24        69.87798
565.68        69.99364
566.11        70.00788
566.55        69.96764
566.98        69.86005
567.42        69.75734
567.85        69.87452
568.29        70.22318
568.72        70.34195
569.16        70.36945
569.60        70.81261
570.03        71.32917
570.47        71.23244
570.90         70.8389
571.34        69.27364
571.77        70.13897
572.21         70.1846
572.64        69.64601
573.08        68.64071
573.51        66.11411
573.95        68.55077
574.38        72.38577
574.82        70.55353
575.25        69.90771
575.69        68.08437
576.12        66.92197
576.56        65.87945
576.99        67.81823
577.42         70.9864
577.86        70.74916
578.29        69.79805
578.73        73.73109
579.16        68.21773
579.60        62.20167
580.03        64.99642
580.47        69.06576
580.90        71.06731
581.33        69.89523
581.77        68.45559
582.20        75.47902
582.64        75.14295
583.07        63.99813
583.51        62.79637
583.94        61.73698
584.37        64.58329
584.81        67.90253
585.24        71.56734
585.68        73.30904
586.11        71.88744
586.54         66.8921
586.98        64.74865
587.41        65.28775
587.85        68.92986
588.28        71.59581
588.71        67.73891
589.15        65.58429
589.58        67.29916
590.01        67.47969
590.45        68.19302
590.88        69.07243
591.31        68.35061
591.75        67.98537
592.18        68.08459
592.61        69.55374
593.05        70.07131
593.48        73.16778
593.91        73.44881
594.35         67.7084
594.78        66.27016
595.21        65.79609
595.65        68.80991
596.08        71.68952
596.51        68.60567
596.94        66.94685
597.38        67.52636
597.81        70.09728
598.24        71.91128
598.68        70.29789
599.11         69.1267
599.54         71.9418
599.97        73.60316
600.41        68.49234
600.84         68.6388
601.27        70.28369
601.70        69.08189
602.14        69.26987
602.57        68.13876
603.00        68.49514
603.43         70.0453
603.87        71.55445
604.30        71.27899
604.73        69.45357
605.16        68.02227
605.60        68.86775
606.03        69.85588
606.46        70.85183
606.89        70.56759
607.32         68.4576
607.76        68.38959
608.19        70.58495
608.62        69.61726
609.05         68.3308
609.48        68.88975
609.92        69.02163
610.35         68.3287
610.78        71.03073
611.21        71.20802
611.64        68.22633
612.07        68.81932
612.50        69.20383
612.94        69.60242
613.37        68.96603
613.80         69.2015
614.23        69.64322
614.66        69.60216
615.09        69.92178
615.52        69.95416
615.96         69.8617
616.39            69.9
616.82        68.87423
617.25          68.828
617.68         69.3159
618.11        69.97409
618.54        70.47179
618.97        70.07152
619.40        69.10468
619.84        69.00323
620.27        69.80354
620.70        70.24012
621.13         70.2004
621.56        69.63445
621.99        68.86884
622.42        69.69876
622.85        71.54789
623.28        71.47343
623.71        71.02389
624.14        70.55847
624.57        70.54854
625.00        70.29305
625.43        70.49723
625.86         69.8364
626.29        69.87751
626.72        70.22472
627.15         70.1234
627.58        70.32939
628.01        70.40993
628.44        70.89104
628.87        70.64803
629.30        70.90277
629.73        71.23871
630.16        71.26751
630.59        70.96385
631.02        70.56756
631.45        70.20261
631.88        69.94556
632.31        69.84271
632.74        69.87279
633.17        69.98734
633.60        70.09665
634.03        70.16457
634.46        70.21704
634.89        70.24137
635.32        70.21799
635.75        70.15063
636.18        70.03647
636.61        69.91903
637.04        69.87616
637.47        69.92183
637.89        70.04499
638.32          70.174
638.75        70.23329
639.18        70.19883
639.61        70.10066
640.04        69.96822
640.47        69.84762
640.90        69.76228
641.33        69.69524
641.76        69.63226
642.18        69.65292
642.61        69.75267
643.04        69.75027
643.47        69.59429
643.90        70.10462
644.33         69.8271
644.76        69.93773
645.18        69.97537
645.61        69.91284
646.04        69.73356
646.47        69.44251
646.90        69.18147
647.33        69.12765
647.75        69.33403
648.18        69.79016
648.61        70.23684
649.04        70.27522
649.47        69.85529
649.89        68.95195
650.32        68.02763
650.75        68.03066
651.18        68.89864
651.61        69.68737
652.03        70.03924
652.46        70.04273
652.89        69.98489
653.32        69.45254
653.74        68.81654
654.17        69.93305
654.60        70.29748
655.03        68.18336
655.46        69.16101
655.88        73.06097
656.31        77.74103
656.74        174.4875
657.16        113.3231
657.59        40.03254
658.02        30.17925
658.45        52.53419
658.87         67.3064
659.30        70.44563
659.73        68.98917
660.15        66.76998
660.58        69.47169
661.01        71.36195
661.44        68.95593
661.86        68.15538
662.29        68.20036
662.72        69.02274
663.14        70.36067
663.57        70.33031
664.00        69.17671
664.42        68.92764
664.85         69.6556
665.27        70.03877
665.70        69.89895
666.13        69.70884
666.55        69.46406
666.98        69.02363
667.41        68.55458
667.83        68.38746
668.26         68.5806
668.69        68.99809
669.11        69.41553
669.54        69.78291
669.96        69.37069
670.39        68.90485
670.82        68.38952
671.24        67.98164
671.67        67.88522
672.09        68.39484
672.52        69.17799
672.94        69.83192
673.37        69.12315
673.80        68.92435
674.22        68.96229
674.65        68.90222
675.07        68.74139
675.50        68.52074
675.92        68.32326
676.35        68.31342
676.77        68.50961
677.20          68.786
677.62        69.06047
678.05        69.20396
678.47        69.16994
678.90        69.01293
679.32        68.81778
679.75        68.59293
680.17        68.64547
680.60        68.71989
681.02         68.8191
681.45        68.79621
681.87        68.63762
682.30        68.38838
682.72        68.15858
683.15        68.14124
683.57        68.38282
684.00        68.71584
684.42        69.17919
684.85        69.43998
685.27        69.48132
685.70        69.37181
686.12        69.16827
686.54        69.01157
686.97        68.93392
687.39        68.91236
687.82        68.91296
688.24        68.93597
688.66        68.95433
689.09        68.97894
689.51        69.03234
689.94        69.11658
690.36         69.2354
690.78        69.37421
691.21         69.4901
691.63         69.5262
692.06        69.47486
692.48        69.35842
692.90        69.23797
693.33        69.19668
693.75        69.25863
694.17        69.40932
694.60         69.5892
695.02        69.70135
695.44        69.68742
695.87        69.67713
696.29         69.7283
696.71        69.54631
697.14        69.26546
697.56         69.7045
697.98        70.62239
698.41        70.37545
698.83        69.69698
699.25        69.25083
699.68        69.30657
700.10        69.24926
700.52        69.09679
700.94        69.20648
701.37        69.52104
701.79        69.84388
702.21        70.09251
702.64        70.32829
703.06        70.47664
703.48        70.40981
703.90        70.13342
704.33        69.68858
704.75        69.20474
705.17        68.97942
705.59        69.08788
706.01        69.33728
706.44        69.58863
706.86        70.21348
707.28        70.21368
707.70        70.36183
708.12        70.39292
708.55        70.33836
708.97        70.19436
709.39        69.95611
709.81        69.72249
710.23        69.65455
710.66        69.78922
711.08        70.11695
711.50        70.46167
711.92        70.55345
712.34        70.33625
712.76        69.87421
713.19        69.38007
713.61        69.23251
714.03        69.49918
714.45        70.06638
714.87        70.66224
715.29        70.85471
715.71        70.55328
716.13        69.90395
716.56        69.17388
716.98        68.82174
717.40        68.96032
717.82        69.44643
718.24        70.06657
718.66        70.46002
719.08        70.51422
719.50        70.34253
719.92        70.06094
720.34         69.8704
720.76        69.83656
721.19        69.77245
721.61         69.8682
722.03        69.94986
722.45        70.05846
722.87         70.2097
723.29        70.37254
723.71        70.47758
724.13        70.50798
724.55         70.4733
724.97        70.41694
725.39        70.42006
725.81          70.498
726.23        70.62189
726.65        70.74814
727.07        70.80551
727.49        70.78127
727.91        70.71172
728.33        70.62138
728.75        70.55044
729.17        70.51595
729.59        70.49706
730.01         70.5247
730.43        70.63966
730.85        70.84164
731.27        71.14137
731.69        71.43325
732.10        71.52388
732.52        71.37814
732.94        71.08575
733.36        70.79643
733.78        70.69839
734.20        70.84783
734.62         71.3502
735.04         71.9413
735.46        72.23894
735.88        71.26824
736.30        71.63013
736.72        72.88158
737.13        73.37514
737.55        72.86264
737.97        72.66197
738.39        72.86892
738.81        72.28786
739.23        71.30783
739.65        72.10639
740.06        74.19207
740.48        74.39017
740.90        72.80127
741.32        72.07555
741.74        72.46291
742.16         72.6521
742.57        72.69516
742.99         73.3436
743.41        74.38017
743.83        75.01363
744.25        75.10215
744.67        74.84361
745.08        74.46494
745.50        74.33164
745.92        74.55935
746.34        75.02439
746.75        75.53944
747.17         75.7926
747.59        75.73091
748.01        75.45417
748.42        75.19654
748.84        75.32714
749.26        75.92564
749.68        76.79256
750.09        77.67181
750.51        78.27224
750.93        78.43555
751.35        77.95505
751.76        77.10123
752.18        76.72164
752.60        76.85358
753.01        76.86641
753.43        76.74271
753.85        76.91429
754.27        77.38108
754.68         77.9433
755.10        78.48752
755.52        78.97638
755.93        79.34423
756.35        79.53706
756.77        79.64516
757.18        79.70289
757.60        79.72296
758.02        80.03627
758.43        80.42641
758.85        79.77609
759.26        78.49169
759.68        78.42567
760.10         79.4073
760.51        79.75768
760.93        79.30889
761.34         78.2125
761.76        78.17471
762.18        77.82004
762.59        77.72997
763.01        78.06824
763.42        78.83151
763.84        79.45412
764.26        79.83373
764.67        80.15988
765.09         80.3159
765.50        80.09131
765.92        79.50587
766.33         78.3461
766.75        77.07001
767.16        76.72228
767.58        77.40993
768.00        78.75532
768.41        80.39996
768.83        81.48727
769.24        81.57458
769.66        80.86067
770.07        79.75738
770.49        78.23797
770.90        76.79752
771.32        77.60629
771.73        79.98663
772.15        79.56276
772.56        76.77554
772.97        76.19483
773.39        77.77016
773.80        78.35213
774.22        77.74303
774.63        77.84129
775.05        78.56004
775.46        78.95216
775.88        78.89228
776.29        78.64468
776.70        78.32845
777.12        78.16945
777.53        78.24469
777.95        78.43421
778.36        78.60352
778.77        78.52251
779.19        78.18787
779.60        77.68012
780.02        77.21691
780.43        77.21385
780.84        77.79477
781.26        78.39203
781.67        78.89452
782.09        80.05021
782.50        81.27491
782.91        80.14893
783.33        77.48493
783.74         76.5778
784.15        77.61034
784.57        78.68258
784.98        79.28807
785.39        79.14902
785.81        78.35137
786.22         77.8025
786.63        77.77252
787.04        77.87087
787.46        78.15151
787.87        79.00772
788.28        80.10674
788.70         80.5949
789.11        80.32376
789.52        79.57681
789.93        78.69215
790.35        78.13531
790.76        78.04488
791.17        78.32912
791.58        78.78004
792.00        79.01614
792.41        78.92544
792.82        78.60762
793.23        78.33863
793.65        78.25105
794.06        78.48863
794.47        79.69202
794.88        81.13254
795.29        80.66046
795.71        78.51915
796.12        76.50333
796.53        75.26563
796.94        74.95251
797.35        75.63271
797.76          76.906
798.18        78.18551
798.59        79.03633
799.00        79.12375
799.41        78.28247
799.82        76.98513
800.23        76.25503
800.64        76.30782
801.06        76.75767
801.47        77.42806
801.88        77.92152
802.29        78.08183
802.70        78.06451
803.11        77.94022
803.52        77.79197
803.93        77.68294
804.34        77.55527
804.75        77.44729
805.17        77.53208
805.58        77.86917
805.99        78.10379
806.40        78.16562
806.81        78.70341
807.22        79.30728
807.63        78.28136
808.04        76.16466
808.45        75.28736
808.86        75.85054
809.27        76.68077
809.68        77.41801
810.09         77.9079
810.50        77.96487
810.91        77.66139
811.32        77.17407
811.73        76.79182
812.14        76.60326
812.55        76.47804
812.96        76.45656
813.37        76.60554
813.78        76.90973
814.19        77.41621
814.60        77.83783
815.01        77.71575
815.42        76.99559
815.83        75.76617
816.24        74.54263
816.65        74.23275
817.05        75.08581
817.46        76.80132
817.87        78.68168
818.28        79.48792
818.69        78.88849
819.10         77.2075
819.51        75.22459
819.92        74.26154
820.33         74.6754
820.74        76.06792
821.14        77.74663
821.55        78.48028
821.96        77.98645
822.37         76.6966
822.78        75.19755
823.19        74.34498
823.60        74.37421
824.00        75.05045
824.41        75.98777
824.82        76.64903
825.23        76.79584
825.64        76.62663
826.04        76.30764
826.45        76.06759
826.86        75.97578
827.27        75.90775
827.68        75.83952
828.08        75.79075
828.49        75.69414
828.90        75.63812
829.31           75.55
829.72        75.27693
830.12        74.84558
830.53        74.29998
830.94        73.87377
831.35        73.87907
831.75        74.39906
832.16         75.2702
832.57        76.29626
832.97        77.04737
833.38        77.29413
833.79        77.15039
834.20         76.7819
834.60        76.44939
835.01        76.26833
835.42        76.15705
835.82        76.05971
836.23        75.81292
836.64        75.43187
837.04        75.01081
837.45        74.66726
837.86        74.57713
838.26         74.7771
838.67        75.15621
839.08         75.6102
839.48        75.94644
839.89        76.05708
840.29        76.01082
840.70          75.811
841.11        75.45043
841.51        74.97548
841.92        74.38312
842.33        73.84043
842.73         73.6319
843.14        73.78041
843.54        74.24524
843.95        74.79478
844.35        75.09288
844.76        75.02952
845.17        74.72036
845.57        74.31128
845.98        74.04183
846.38        73.98293
846.79        74.02565
847.19        74.15749
847.60        74.27656
848.00        74.37154
848.41        74.44662
848.81        74.48613
849.22         74.3805
849.62        74.16888
850.03        73.88223
850.43        73.62678
850.84        73.52307
851.24        73.66058
851.65        73.84544
852.05        74.19977
852.46        74.73684
852.86        75.41872
853.27        76.25159
853.67         76.7498
854.07        76.29163
854.48        74.90264
854.88        72.79456
855.29        70.74667
855.69        69.88849
856.10        70.43953
856.50        72.27206
856.90        74.69426
857.31        76.10265
857.71        76.00213
858.12        74.78469
858.52        73.22631
858.92        72.34534
859.33        72.36546
859.73        73.02528
860.13        74.04833
860.54        74.85767
860.94        75.27445
861.34        75.42243
861.75        75.46278
862.15         75.7416
862.55         76.2989
862.96        77.00268
863.36        77.64852
863.76        77.87108
864.17        77.59797
864.57        77.02607
864.97        76.44748
865.38        76.28845
865.78        76.68443
866.18        77.41279
866.58         78.2681
866.99        78.89088
867.39        79.20089
867.79        79.33392
868.19        79.18732
868.60        78.57334
869.00        77.54672
869.40         76.1787
869.80        75.09196
870.21        75.24574
870.61        76.88271
871.01        79.70519
871.41         82.8316
871.81          84.729
872.22        84.96864
872.62        83.96945
873.02         82.4908
873.42        81.92992
873.82        82.44082
874.22        83.24512
874.63        84.06931
875.03        84.43401
875.43        84.04928
875.83        84.06924
876.23        82.74059
876.63        82.16255
877.03        82.18991
877.44        82.98325
877.84        104.5802
878.24        89.21613
878.64        89.77277
879.04        90.27953
879.44        86.24163
879.84        84.27119
880.24        88.49661
880.64        90.54322
881.04        91.26438
881.44        91.49571
881.84        90.78872
882.24        89.33092
882.65        88.00205
883.05        87.60483
883.45        88.27658
883.85        90.03482
884.25        92.19477
884.65        93.28474
885.05        92.88197
885.45        91.49488
885.85        89.90376
886.25        89.17446
886.65        89.53336
887.05        90.62167
887.45         92.0061
887.85        92.92165
888.25        93.07962
888.65        92.74406
889.04        92.13698
889.44        91.63774
889.84        91.35773
890.24        91.14261
890.64        90.98047
891.04        90.88015
891.44        90.82243
891.84        90.86707
892.24        90.91583
892.64        90.75132
893.04        90.39471
893.44        89.97636
893.83         89.6981
894.23        89.88017
894.63        90.54198
895.03        91.48996
895.43        92.66038
895.83        93.90257
896.23         95.0565
896.63        96.17239
897.02        96.79327
897.42        96.21346
897.82        94.45331
898.22         91.8214
898.62        89.31061
899.01        88.36873
899.41        89.24572
899.81        91.42425
900.21        94.00258
900.61        95.49848
901.00        95.49119
901.40        94.45456
901.80        92.92675
902.20        91.75487
902.59        91.21478
902.99        91.01682
903.39        91.01629
903.79        90.98614
904.18         90.8504
904.58        90.81873
904.98        90.88952
905.38        91.01063
905.77        91.15695
906.17        91.25452
906.57        91.41222
906.96        91.87997
907.36        92.58994
907.76        93.46927
908.15        94.18394
908.55         94.0713
908.95        93.08006
909.34        91.41322
909.74        89.65304
910.14        88.53434
910.53         88.3008
910.93        88.80906
911.33        89.80395
911.72         90.8074
912.12        91.49741
912.52        91.90241
912.91        92.15917
913.31        92.46135
913.70        92.89262
914.10        93.39647
914.49        93.59544
914.89        92.67449
915.29        90.62354
915.68        87.91025
916.08        85.69263
916.47        84.99417
916.87        85.84607
917.26        87.90079
917.66        90.25552
918.05         91.4202
918.45        90.96986
918.84        89.38734
919.24        87.52975
919.64        86.66612
920.03        87.14182
920.42        88.54142
920.82        90.29356
921.21        91.55513
921.61        91.86013
922.00        91.54886
922.40        90.81166
922.79        89.90062
923.19        89.01096
923.58        87.93331
923.98        86.68089
924.37        85.90073
924.77        86.00082
925.16        84.05638
925.55        85.50021
925.95        86.36793
926.34        88.19523
926.74        90.46922
927.13        92.67934
927.52        93.70393
927.92        93.39336
928.31        92.13021
928.70         90.3297
929.10         88.7335
929.49        87.57405
929.89        86.67689
930.28        86.32888
930.67        87.00503
931.07        88.56993
931.46        90.95032
931.85         93.1828
932.24         93.8053
932.64        92.55801
933.03        89.69494
933.42        86.06225
933.82        83.58964
934.21        82.88581
934.60        83.44473
934.99        84.41486
935.39        84.91814
935.78        84.79774
936.17        83.87637
936.56        81.93928
936.96        82.72464
937.35        81.14029
937.74        81.36439
938.13        81.72051
938.53        82.48141
938.92        83.67437
939.31        85.42845
939.70        87.34258
940.09        88.11126
940.49        87.32957
940.88        85.50107
941.27        83.60917
941.66        82.85808
942.05        83.39635
942.44        84.82553
942.84        86.64731
943.23        88.05026
943.62        88.61889
944.01        88.57755
944.40        88.09567
944.79        87.42277
945.18        86.64794
945.57        85.63573
945.97        84.40675
946.36        83.18504
946.75        82.27485
947.14         81.7982
947.53        81.71565
947.92         81.8855
948.31        82.25557
948.70        82.87169
949.09        83.67257
949.48        84.45641
949.87        85.05396
950.26        85.37479
950.65        85.53413
951.04        85.79062
951.43        86.18862
951.82        86.66148
952.21         86.8845
952.60        86.36434
952.99        85.06336
953.38        83.18722
953.77        81.32179
954.16         80.2934
954.55        80.25467
954.94        81.02998
955.33        81.97615
955.72        81.98892
956.11        80.81747
956.50        78.76916
956.89        76.68822
957.28        76.13573
957.66        77.61171
958.05        80.35765
958.44        83.42182
958.83        85.40153
959.22        85.89011
959.61        85.25479
960.00        83.89978
960.39        82.48474
960.78        81.29094
961.16        80.17757
961.55        79.05913
961.94        77.86352
962.33        76.66144
962.72        75.63421
963.11         74.9827
963.49          74.887
963.88        75.32243
964.27        76.24111
964.66        77.34005
965.04        77.98432
965.43        77.84749
965.82        77.15412
966.21        76.34196
966.60        76.01614
966.98        76.30788
967.37        76.99263
967.76        77.84053
968.15        78.37099
968.53        78.40893
968.92        78.09155
969.31        77.61287
969.69        77.19415
970.08        76.90639
970.47          76.677
970.86        76.43792
971.24        76.09594
971.63        75.62981
972.02        75.09373
972.40          74.625
972.79         74.4182
973.17        74.62922
973.56        75.12241
973.95         75.7606
974.33        76.21233
974.72        76.24758
975.11        75.88697
975.49        75.43545
975.88        75.44367
976.26        75.97837
976.65        76.97281
977.04         77.8381
977.42         77.2087
977.81        74.80373
978.19        71.29288
978.58        68.37099
978.96        67.69618
979.35        69.47201
979.74        73.35706
980.12        78.56656
980.51        82.09131
980.89        82.90295
981.28        81.71983
981.66        79.59694
982.05        77.92773
982.43         77.0527
982.82        76.48863
983.20        76.43935
983.59        77.30567
983.97        79.20552
984.35        82.30989
984.74        85.69779
985.12        87.40564
985.51        86.28322
985.89        82.52932
986.28        77.74113
986.66        74.63235
987.04        74.10626
987.43        75.39516
987.81        76.88006
988.20        76.49208
988.58        73.56367
988.96        67.69791
989.35        59.52026
989.73        54.57307
990.12        57.39161
990.50         65.9233
990.88        74.19267
991.27        77.37409
991.65        75.91148
992.03        71.34122
992.42        65.91608
992.80        63.55656
993.18        65.43567
993.56        69.29101
993.95         73.4688
994.33        76.76207
994.71        78.74318
995.10        80.23936
995.48        80.88641
995.86        79.79693
996.24        76.86035
996.63        71.83813
997.01        66.14169
997.39        64.02673
997.77         67.2796
998.15        74.86649
998.54        83.00096
998.92        86.49762
999.30        83.86929
999.68        76.47084
1000.06        66.35567
1000.45          58.698
1000.83        55.81904
1001.21        56.09739
1001.59        58.33932
1001.97         61.3236
1002.35        64.67047
1002.73        69.44347
1003.12        74.40626
1003.50        75.28603
1003.88        70.40601
1004.26        61.78435
1004.64        53.67138
1005.02        49.75176
1005.40        50.25903
1005.78        54.97818
1006.16        64.39276
1006.54        73.54776
1006.92        76.45713
1007.30        74.96033
1007.69        72.22928
1008.07        70.44473
1008.45        69.42564
1008.83        67.87891
1009.21        63.31867
1009.59         46.3608
1009.97       -4.136522
1010.35       -75.82091
1010.73       -66.77243
1011.11       -26.02685
1011.49        3.100649
1011.86         24.4556
1012.24        36.68327
1012.62        42.45387
1013.00        44.58617
1013.38        44.23803
1013.76        43.41518
1014.14        48.04319
1014.52        62.68821
1014.90        88.32986
1015.28        118.3479
1015.66        134.4848
1016.04        125.4417
1016.41        94.28264
1016.79        57.81782
1017.17         34.9122
1017.55        27.13351
1017.93        26.41215
1018.31        28.77318
1018.69        32.59747
1019.06        37.68352
1019.44        44.83157
1019.82        55.44455
1020.20        67.96439
1020.58        78.91331
1020.95        84.75867
1021.33        67.75321
1021.71         480.666
1022.09        154.3569
1022.46        141.0163
1022.84        139.7238
1023.22        145.0986
1023.60        163.8779
1023.97        355.5582
1024.35        31.80461
1024.73        70.36769
