SpectraSmart Spectrum 2.9.0.0
--------- Device Information -----------
Spectrum Name :  反射率_0
Saving Time :  2024/04/26 02:01:11
Spectro-Module Model Name : SE2030-DUVN
Spectro-Module Serial Number : OS361AC55029948
Wavelength Start : 200
Wavelength End : 1025
Wavelength Unit : Wavelength(nm)
Spectrum Unit : Reflectance(%)
-----------Spectrum Setting ------------
Integration Time : 20ms
Average : 10
Boxcar : 0
Background removal :  enabled
linearity correction :  enabled
SC :  disabled
Intensity correction :  disabled
DWT denoise :  enabled
savitzky-golay :  disabled
FFT :  disabled
Running average :  disabled
Kalman :  disabled
High pass :  disabled
---------------BEGIN--------------------
Wavelength(nm)             Reflectance(%)
200.29               0
200.75        86.21964
201.21        81.81194
201.67         77.0241
202.13        73.20673
202.58        70.52547
203.04        69.00494
203.50        68.64783
203.96        69.48881
204.42        71.10624
204.88         72.9907
205.34        74.85777
205.80        76.74465
206.26        79.10645
206.72        83.14756
207.18        89.55714
207.64        92.12235
208.10        83.25504
208.55        72.08286
209.01        66.44577
209.47        66.02319
209.93        68.87135
210.39        74.65899
210.85        81.13439
211.31        82.99821
211.77        78.61275
212.23         69.7264
212.69        61.10541
213.14        60.24693
213.60        68.14448
214.06        82.51212
214.52        97.53357
214.98        104.3533
215.44        101.1558
215.90        91.23244
216.36        79.39063
216.81         72.3012
217.27        71.61784
217.73        74.90434
218.19        78.79433
218.65        79.03661
219.11        74.24936
219.57        64.09261
220.02        50.63975
220.48        43.92474
220.94        49.09594
221.40         62.7565
221.86        74.53933
222.32        74.11326
222.77        63.31058
223.23        48.54682
223.69         36.1626
224.15        32.50384
224.61        36.82062
225.06        45.74078
225.52        55.06013
225.98        59.39664
226.44        57.70546
226.90        52.28633
227.36        45.71873
227.81        41.43874
228.27        40.56765
228.73        41.65943
229.19        43.74316
229.65        45.46222
230.10        46.33203
230.56        46.89846
231.02        47.27254
231.48        47.48238
231.93        47.57687
232.39        47.49612
232.85        47.34156
233.31        47.38156
233.77        47.65715
234.22        48.11266
234.68        48.61111
235.14        48.80309
235.60        48.59615
236.05        48.13576
236.51        47.62066
236.97        47.27354
237.43        47.22348
237.88        47.58117
238.34        48.36721
238.80        49.68361
239.26        51.43204
239.71        53.50446
240.17        55.80674
240.63        58.72744
241.08        62.29209
241.54        66.21667
242.00        69.83423
242.46        72.55134
242.91        74.82874
243.37        76.95523
243.83        83.41234
244.28        119.7463
244.74        191.0547
245.20        188.1906
245.66        167.7235
246.11        161.0385
246.57        163.7106
247.03        176.8975
247.48        203.3736
247.94        137.3241
248.40        96.09589
248.85        89.47694
249.31         89.6177
249.77        91.14146
250.22         93.5669
250.68         97.7634
251.14        103.4284
251.59        105.9265
252.05        101.5649
252.51        92.92644
252.96         84.2485
253.42        79.69306
253.88        78.65954
254.33         79.5627
254.79         82.5714
255.25        87.13925
255.70        92.02703
256.16        96.99221
256.62        100.0066
257.07        99.03455
257.53        95.10464
257.99        89.01301
258.44        82.80348
258.90        79.84594
259.35        79.17899
259.81        79.58945
260.27        79.04165
260.72        75.57214
261.18        70.05034
261.63        63.40558
262.09        57.33849
262.55        53.09568
263.00        50.64815
263.46        49.44964
263.91        48.60463
264.37        47.46958
264.83        45.80782
265.28        43.74539
265.74        41.74979
266.19        40.26565
266.65        39.51081
267.11        39.20082
267.56        38.90507
268.02        38.10938
268.47         36.6946
268.93        34.84133
269.38        32.86497
269.84        31.54042
270.30        31.07523
270.75        31.26572
271.21        31.66487
271.66        31.59702
272.12        30.89571
272.57        29.77274
273.03        28.62381
273.48        27.96181
273.94        27.91059
274.39        28.22634
274.85        28.58806
275.31         28.5255
275.76        27.93754
276.22        27.03483
276.67        26.04655
277.13        25.38937
277.58        25.10097
278.04        25.06367
278.49        25.06568
278.95        24.87449
279.40        24.41358
279.86        23.82925
280.31        23.19703
280.77        22.73133
281.22        22.43842
281.68        22.27055
282.13        22.15836
282.59        22.04188
283.04        21.89486
283.50        21.77618
283.95        21.65987
284.41         21.5204
284.86        21.35411
285.32         21.1718
285.77        21.05188
286.22        21.17481
286.68        21.52907
287.13        22.02431
287.59        22.47227
288.04        22.58723
288.50        22.34724
288.95        21.83767
289.41        21.26159
289.86        20.82066
290.32        20.63179
290.77        20.62478
291.22        20.77772
291.68         21.0142
292.13        21.31829
292.59        21.72878
293.04        22.26756
293.50        22.96063
293.95        23.78979
294.40        24.70278
294.86        25.65154
295.31        26.58342
295.77        27.48927
296.22        28.38852
296.68        29.27855
297.13        30.12404
297.58         30.9439
298.04        31.76511
298.49         32.6666
298.95        33.81745
299.40        35.23397
299.85         36.8642
300.31        38.57727
300.76        40.15941
301.21        41.52784
301.67         42.7659
302.12        43.89737
302.58        45.05445
303.03        46.25066
303.48        47.46521
303.94        48.76842
304.39        50.21379
304.84        51.80873
305.30        53.53604
305.75        55.22234
306.20        56.62125
306.66        57.71078
307.11        58.52377
307.57        59.28397
308.02        60.22029
308.47        61.43546
308.93        62.86307
309.38        64.34567
309.83        65.68081
310.29        66.79913
310.74        67.72928
311.19        68.58439
311.65        69.53931
312.10        70.62028
312.55        71.78008
313.00        72.85202
313.46        73.57401
313.91        73.88525
314.36        73.89823
314.82        73.86999
315.27        74.14757
315.72        74.84082
316.18        75.84145
316.63        76.95923
317.08        77.83719
317.53        78.36043
317.99        78.61509
318.44        78.77313
318.89        79.12015
319.35        79.70866
319.80        80.47146
320.25          81.194
320.70        81.53118
321.16        81.41791
321.61        80.98376
322.06        80.49154
322.51         80.3483
322.97        80.62984
323.42        81.24158
323.87        81.96499
324.32        82.42312
324.78        82.49462
325.23        82.33298
325.68        82.06654
326.13        81.93013
326.59        81.98586
327.04        82.18494
327.49         82.4922
327.94        82.88195
328.39        83.32442
328.85        83.81667
329.30        84.34492
329.75        84.72571
330.20        84.93758
330.66        85.01354
331.11        85.11447
331.56        85.43735
332.01        86.04664
332.46        86.86181
332.92         87.7917
333.37        88.83137
333.82        89.84508
334.27        90.84328
334.72        91.65655
335.17        92.01732
335.63        91.89717
336.08        91.42031
336.53         90.8804
336.98        90.79517
337.43        91.29817
337.88        92.25121
338.34         93.4158
338.79        94.47039
339.24        95.24957
339.69        95.86462
340.14        96.32021
340.59        96.62695
341.05        96.82055
341.50         96.8586
341.95        96.87791
342.40        97.12356
342.85        97.64234
343.30        98.38831
343.75          99.175
344.20        99.65635
344.66        99.75261
345.11        99.54829
345.56        99.23488
346.01        99.10448
346.46        99.23552
346.91        99.54169
347.36        99.90089
347.81        100.1257
348.26        100.1747
348.72        100.1352
349.17         100.077
349.62        100.1604
350.07        100.4125
350.52        100.7537
350.97        101.0993
351.42        101.3332
351.87        101.4203
352.32        101.4052
352.77        101.2957
353.22        101.1032
353.67        100.8504
354.13         100.548
354.58         100.237
355.03        100.0409
355.48        99.97453
355.93         100.006
356.38        100.0332
356.83        99.88873
357.28        99.53064
357.73        99.00307
358.18        98.39517
358.63        97.85174
359.08        97.41386
359.53        97.04404
359.98        96.67143
360.43        96.18512
360.88        95.55893
361.33        94.82822
361.78        94.07975
362.23        93.44932
362.68        92.97408
363.13        92.62522
363.58        92.29545
364.03        91.81275
364.48        91.14613
364.93        90.34914
365.38        89.56167
365.83        89.01083
366.28        88.73343
366.73        88.63397
367.18         88.5602
367.63        88.26924
368.08        87.70439
368.53        86.97098
368.98         86.1496
369.43        85.35253
369.88         84.6306
370.33        83.94604
370.78        83.36208
371.23        82.98907
371.68        82.83314
372.13        82.86658
372.58         82.9516
373.03        82.84344
373.48        82.48587
373.93        81.95724
374.38        81.37593
374.83        80.92934
375.28        80.66416
375.72        80.49739
376.17        80.40884
376.62        80.34211
377.07        80.25448
377.52        80.15088
377.97        79.96983
378.42        79.61165
378.87        79.08057
379.32        78.43506
379.77        77.75224
380.22        77.14021
380.67        76.62373
381.11        76.16715
381.56        75.78735
382.01        75.51195
382.46        75.34357
382.91        75.30286
383.36        75.27081
383.81        75.05536
384.26        74.63097
384.71        74.03417
385.15        73.45903
385.60         73.2749
386.05         73.4803
386.50        73.94495
386.95        74.36819
387.40        74.24742
387.85        73.52438
388.29        72.41512
388.74        71.31966
389.19        70.50437
389.64        70.03029
390.09        69.76672
390.54        69.72211
390.98        69.90912
391.43        70.26905
391.88        70.76075
392.33        71.16928
392.78        71.12046
393.23        70.59687
393.67        69.85336
394.12        69.18714
394.57        68.48986
395.02        67.98938
395.47        68.31359
395.91        69.30605
396.36        69.90655
396.81        69.94904
397.26          69.914
397.71        69.85728
398.15        69.54287
398.60        69.08398
399.05        68.73836
399.50        68.45844
399.95        67.59331
400.39        66.67075
400.84        66.37529
401.29        66.75834
401.74        67.07484
402.18        67.17255
402.63        67.10165
403.08         66.9872
403.53        67.13764
403.97        67.56473
404.42         68.0126
404.87        68.28345
405.32        68.17641
405.76        67.64831
406.21        66.84729
406.66        66.03531
407.11        65.58791
407.55        65.62434
408.00        66.03013
408.45        66.61457
408.90        67.05944
409.34        67.13107
409.79         66.6289
410.24        65.82877
410.68        65.42854
411.13        65.53244
411.58        65.78416
412.03        66.10218
412.47         66.4812
412.92        66.80833
413.37        67.11414
413.81        67.32333
414.26        67.35981
414.71        67.20358
415.15        66.86469
415.60         66.4601
416.05        66.20566
416.49        66.16199
416.94        66.29542
417.39        66.45823
417.83        66.37748
418.28        66.01538
418.73        65.47349
419.17        64.97151
419.62        64.85912
420.07        65.16522
420.51         65.7692
420.96         66.4362
421.41        66.71574
421.85        66.47832
422.30          66.124
422.74         65.7542
423.19        65.24071
423.64        64.78601
424.08        65.22224
424.53        66.35126
424.98        66.88177
425.42        66.87849
425.87        66.95524
426.31        67.22079
426.76        66.98118
427.21        66.50847
427.65        66.90859
428.10        68.02273
428.54        68.84087
428.99        69.25877
429.44         69.3922
429.88         69.3077
430.33        69.82497
430.77        70.43303
431.22        69.41714
431.66        67.22754
432.11        65.93513
432.56        65.83418
433.00        66.54202
433.45        68.05791
433.89        69.84387
434.34        70.78463
434.78        72.68956
435.23        68.71901
435.67        65.92199
436.12        68.99036
436.57        70.24979
437.01        71.09467
437.46        71.42449
437.90        71.39677
438.35        71.03211
438.79         71.2028
439.24         71.0312
439.68        70.81677
440.13        70.43571
440.57        70.22351
441.02        71.18034
441.46        72.85213
441.91        73.77726
442.35        73.66205
442.80        72.57422
443.24        71.08769
443.69        71.63675
444.13        73.80414
444.58        74.03401
445.02         72.4614
445.47        72.16878
445.91        73.26966
446.36        73.61376
446.80        73.19392
447.24        73.00752
447.69        73.13805
448.13         73.3212
448.58        73.57035
449.02         73.9002
449.47        74.24798
449.91         74.5294
450.36         74.7157
450.80        74.80906
451.25        74.81944
451.69         74.7309
452.13        74.58289
452.58        74.39932
453.02        74.24328
453.47         74.2557
453.91        74.43002
454.36        74.71803
454.80        75.04871
455.24        75.16164
455.69        74.99844
456.13        74.91917
456.58        74.95877
457.02        74.29982
457.46        73.28599
457.91        73.84982
458.35        74.74118
458.79        75.16189
459.24        74.77391
459.68           74.37
460.13        74.07267
460.57        73.81626
461.01        73.72871
461.46        73.06028
461.90        73.19556
462.34        73.09299
462.79         73.1396
463.23        73.29826
463.68        73.50408
464.12        73.72293
464.56        73.89946
465.01        73.96008
465.45        73.79793
465.89        73.82734
466.34        73.85027
466.78         72.7822
467.22         71.2614
467.67        70.57641
468.11        72.21406
468.55        73.02285
468.99        73.07696
469.44        72.75407
469.88        72.26755
470.32        72.27921
470.77        72.70827
471.21        72.71062
471.65        72.24821
472.10        71.98262
472.54         71.9983
472.98        72.06486
473.42        72.16756
473.87        72.56805
474.31        73.03696
474.75        72.83696
475.20        72.14965
475.64        71.91605
476.08        72.29308
476.52        72.30962
476.97        71.97469
477.41        72.06918
477.85        72.65101
478.29        72.03313
478.74        72.88218
479.18        72.65182
479.62        71.56948
480.06        72.11446
480.50         72.5976
480.95        73.05583
481.39        72.91785
481.83        72.54623
482.27        72.32838
482.72        72.04344
483.16         70.6331
483.60        70.84857
484.04        72.28413
484.48        72.78711
484.93        72.84194
485.37        73.96261
485.81        74.63956
486.25        73.31718
486.69        98.44719
487.14        79.88586
487.58        50.06482
488.02        61.42918
488.46        69.73006
488.90        69.74123
489.34        71.26028
489.79        70.36885
490.23         72.3952
490.67        73.11211
491.11        72.03259
491.55        72.06826
491.99        72.75059
492.43        72.65478
492.88        71.85096
493.32        71.74197
493.76        71.86443
494.20        72.11472
494.64        72.24804
495.08        72.54609
495.52        72.95515
495.96        72.85658
496.41        72.30354
496.85        72.64176
497.29        73.59641
497.73        72.48882
498.17        70.34149
498.61        70.58387
499.05        73.22211
499.49        73.88821
499.93        74.04979
500.37        73.69639
500.82        72.84425
501.26        72.48627
501.70        73.10024
502.14        73.44464
502.58        73.50005
503.02        73.44671
503.46        73.25346
503.90        72.85616
504.34        72.40679
504.78        72.06723
505.22        71.97079
505.66        72.39727
506.10        73.17075
506.54        73.52992
506.98        73.33533
507.42        73.14112
507.86        73.16257
508.30        72.40353
508.74        72.87631
509.18        72.96848
509.62        73.14902
510.06         73.1981
510.50        73.09173
510.94        72.87537
511.38        72.64595
511.82        72.60059
512.26        72.77209
512.70        73.09175
513.14        73.44698
513.58        73.65816
514.02         73.6685
514.46        73.52898
514.90        73.32234
515.34        73.16495
515.78        73.08699
516.22        73.11271
516.66        73.20004
517.10        73.12678
517.54        72.87673
517.98         73.0402
518.42        72.88287
518.86        73.02389
519.30        73.23193
519.74        73.53292
520.18        73.84922
520.62        74.05342
521.06        74.11951
521.50        74.08184
521.93        73.97094
522.37        73.83662
522.81        73.71455
523.25         73.6003
523.69         73.5291
524.13        73.55328
524.57        73.67709
525.01        73.88411
525.45         74.1254
525.89        74.31748
526.32        74.42105
526.76         74.4473
527.20        74.40813
527.64        74.34683
528.08        74.29761
528.52        74.19386
528.96        74.00469
529.40        73.89278
529.83        73.90298
530.27         73.2442
530.71        73.41747
531.15        73.33819
531.59         73.4483
532.03         73.6733
532.46        73.97513
532.90        74.25246
533.34        74.45149
533.78        74.59908
534.22         74.6712
534.66        74.64477
535.09        74.51545
535.53        74.31359
535.97        74.09048
536.41        73.95288
536.85        73.92941
537.28        74.00107
537.72        74.10073
538.16         74.1295
538.60        74.06306
539.04        73.87384
539.47        73.63137
539.91        73.63713
540.35        73.83199
540.79        73.87851
541.22        73.75063
541.66        73.70671
542.10        73.73581
542.54        73.66454
542.97        73.55723
543.41        73.62923
543.85        73.88313
544.29        74.26948
544.72        74.61214
545.16        74.67382
545.60        74.40416
546.04        73.87399
546.47        73.32172
546.91        73.15354
547.35        73.43227
547.79        74.03526
548.22        74.65739
548.66        74.83835
549.10        74.48306
549.53        73.73792
549.97        72.94654
550.41        72.57878
550.84        72.73048
551.28         73.2693
551.72        74.00822
552.15        74.40411
552.59        74.30117
553.03        74.52017
553.46        74.31393
553.90        73.68768
554.34        73.98562
554.77           73.77
555.21         73.5107
555.65        73.69357
556.08        74.26131
556.52        73.68568
556.96        73.75059
557.39         73.6016
557.83        73.78802
558.27         73.9959
558.70        74.17801
559.14        74.27419
559.57        74.29081
560.01        74.43083
560.45        74.64502
560.88        74.76933
561.32        74.73803
561.75         74.3968
562.19        73.90767
562.63        73.45884
563.06         73.1953
563.50        73.40562
563.93        73.92533
564.37        74.18952
564.80        74.11103
565.24        74.04228
565.68        73.99362
566.11        73.88719
566.55        73.80011
566.98        73.63734
567.42        73.47441
567.85        73.72437
568.29        74.34663
568.72        74.44037
569.16        74.15283
569.60        74.94629
570.03        75.23613
570.47        75.21449
570.90        74.85455
571.34        73.02229
571.77        73.62434
572.21        74.05543
572.64        73.27303
573.08        72.43219
573.51        69.29694
573.95        71.89172
574.38        76.15384
574.82        74.42364
575.25        73.82746
575.69        71.67763
576.12        70.11264
576.56         69.5806
576.99        71.37289
577.42        74.34011
577.86        74.25375
578.29        73.65868
578.73        77.24489
579.16        71.20841
579.60        65.53695
580.03        68.50211
580.47         72.9661
580.90        74.43077
581.33        73.31499
581.77        72.03707
582.20        78.84779
582.64        78.48535
583.07        67.22417
583.51        66.20283
583.94        65.16659
584.37        68.12447
584.81        71.50275
585.24        75.10456
585.68        76.60101
586.11        75.53215
586.54        70.03693
586.98        67.79506
587.41        68.88087
587.85          72.377
588.28        74.96767
588.71        71.66488
589.15        69.28753
589.58        70.86405
590.01        71.24929
590.45         72.4402
590.88         73.3952
591.31        72.68401
591.75        72.11745
592.18        72.09526
592.61        73.62369
593.05        74.18278
593.48        76.91788
593.91          78.068
594.35        71.38121
594.78        70.06864
595.21        69.92825
595.65        73.00278
596.08        75.49242
596.51        72.53269
596.94         70.6261
597.38        71.42958
597.81        74.31979
598.24        76.07794
598.68        75.00056
599.11        73.42976
599.54        76.30506
599.97        77.66412
600.41         72.2994
600.84        72.41649
601.27        74.00053
601.70        72.82557
602.14        73.06387
602.57        71.97828
603.00        72.44598
603.43        73.98199
603.87        75.63213
604.30        75.21703
604.73        73.16638
605.16        71.53212
605.60        72.62222
606.03        73.80103
606.46        74.89735
606.89         74.8676
607.32        72.42345
607.76        72.29223
608.19         74.6937
608.62        73.87057
609.05        72.49863
609.48        72.99008
609.92        72.77431
610.35        72.67402
610.78        74.72945
611.21        75.40585
611.64        71.73248
612.07        72.54404
612.50        73.32909
612.94        73.92364
613.37        73.16066
613.80        73.70587
614.23        74.17108
614.66        74.05785
615.09        74.08373
615.52        74.01668
615.96        73.95882
616.39        74.30483
616.82        73.05547
617.25        72.79675
617.68        73.63808
618.11        74.25242
618.54        74.57065
618.97        74.09882
619.40        73.20929
619.84        73.22052
620.27        74.08804
620.70        74.72852
621.13        74.94336
621.56        74.48253
621.99        73.64423
622.42        74.42031
622.85        76.24805
623.28        75.96903
623.71        75.18654
624.14        74.93809
624.57        74.69568
625.00         74.4315
625.43        74.62665
625.86        74.07545
626.29        74.37709
626.72        74.81435
627.15        74.71685
627.58        74.78376
628.01        74.62955
628.44        75.14768
628.87         75.3735
629.30        74.99143
629.73        75.65876
630.16        75.83154
630.59        75.39206
631.02        75.02087
631.45        74.65424
631.88        74.42229
632.31        74.35142
632.74        74.43641
633.17        74.61343
633.60        74.75254
634.03        74.81425
634.46        74.83509
634.89        74.83523
635.32        74.84834
635.75        74.88425
636.18        74.91562
636.61        74.94078
637.04        74.96874
637.47        74.99575
637.89        75.03359
638.32        75.03699
638.75        74.98099
639.18        74.86464
639.61        74.70928
640.04        74.54359
640.47        74.41069
640.90        74.32988
641.33        74.28574
641.76        74.25905
642.18        74.32354
642.61        74.46987
643.04        74.50658
643.47        74.36792
643.90        74.91804
644.33        74.60207
644.76        74.67503
645.18        74.67649
645.61        74.62954
646.04        74.52779
646.47        74.36472
646.90        74.23169
647.33        74.23608
647.75        74.41579
648.18        74.73525
648.61        75.00141
649.04        75.02505
649.47        74.72612
649.89        73.82848
650.32        72.79449
650.75         72.7197
651.18        73.54604
651.61        74.36265
652.03         74.8329
652.46        74.83771
652.89        74.59471
653.32        74.54433
653.74        73.51406
654.17        74.59478
654.60        75.58872
655.03        73.20405
655.46        73.94611
655.88        78.06742
656.31        82.29378
656.74        182.3741
657.16        118.1525
657.59        41.82945
658.02        32.27746
658.45         56.0288
658.87        71.96823
659.30        75.25448
659.73        74.14449
660.15        71.45819
660.58        74.15841
661.01        76.05114
661.44        73.67204
661.86        72.88691
662.29        72.88559
662.72        73.83971
663.14        75.42243
663.57        75.35143
664.00        73.92323
664.42        73.56368
664.85         74.3669
665.27        74.79968
665.70        74.66537
666.13         74.5026
666.55        74.29818
666.98        73.89449
667.41        73.44792
667.83        73.27118
668.26        73.42545
668.69        73.78482
669.11        74.13361
669.54        74.48152
669.96        74.06944
670.39        73.58492
670.82        73.04143
671.24        72.78673
671.67        72.95174
672.09        73.46662
672.52         74.0245
672.94        74.62935
673.37        73.96754
673.80        73.72831
674.22        73.62869
674.65         73.5127
675.07        73.38825
675.50        73.21657
675.92        73.06741
676.35        73.11111
676.77        73.35794
677.20        73.67605
677.62        73.98627
678.05        74.16106
678.47         74.1554
678.90        74.02676
679.32         73.8547
679.75         73.6293
680.17        73.67075
680.60        73.70741
681.02        73.76474
681.45        73.68559
681.87         73.4519
682.30        73.21727
682.72        73.05054
683.15        72.82136
683.57        72.69273
684.00        73.10293
684.42        73.98308
684.85        74.40623
685.27        74.18691
685.70        73.86293
686.12        73.53198
686.54        73.32143
686.97        73.29495
687.39        73.37965
687.82        73.46429
688.24        73.65583
688.66         73.6953
689.09         73.4216
689.51        73.50399
689.94        73.51729
690.36        73.68407
690.78        73.94301
691.21        74.21249
691.63        74.35357
692.06        74.33391
692.48        74.21317
692.90        74.07783
693.33        74.04923
693.75        74.15587
694.17        74.35918
694.60        74.59925
695.02        74.74784
695.44        74.72982
695.87        74.79635
696.29        74.95516
696.71        74.55341
697.14        73.84898
697.56        74.29601
697.98        75.59631
698.41        75.44321
698.83        74.59569
699.25        74.09519
699.68        74.24055
700.10        74.18997
700.52        73.94556
700.94        74.14754
701.37        74.36325
701.79        74.71371
702.21        75.00185
702.64        75.29107
703.06        75.48073
703.48        75.41322
703.90        75.09269
704.33        74.56667
704.75        73.99189
705.17        73.71405
705.59        73.81967
706.01        74.09448
706.44        74.37889
706.86        75.04382
707.28        75.01474
707.70        75.14825
708.12        75.16644
708.55        75.05478
708.97         74.8392
709.39        74.63728
709.81        74.52105
710.23        74.49482
710.66        74.57861
711.08        74.84225
711.50        75.14539
711.92        75.24001
712.34        75.08004
712.76        74.72715
713.19        74.33897
713.61        74.20677
714.03        74.38184
714.45        74.77521
714.87        75.19814
715.29        75.35099
715.71        75.16858
716.13         74.7555
716.56         74.2796
716.98        74.04082
717.40        74.11092
717.82        74.39198
718.24        74.76308
718.66        75.02177
719.08        75.09985
719.50        75.06004
719.92        74.93995
720.34         74.8194
720.76        74.73594
721.19        74.54284
721.61        74.49904
722.03        74.50549
722.45        74.63276
722.87         74.8589
723.29        75.13207
723.71        75.35226
724.13        75.48244
724.55        75.54285
724.97        75.54895
725.39        75.53487
725.81         75.5161
726.23        75.48174
726.65        75.44399
727.07        75.42243
727.49        75.42653
727.91        75.46707
728.33        75.52982
728.75        75.58442
729.17        75.61946
729.59        75.63106
730.01        75.65604
730.43        75.74583
730.85        75.90939
731.27        76.15469
731.69        76.38727
732.10        76.43342
732.52        76.26075
732.94        75.96667
733.36        75.71828
733.78        75.63577
734.20        75.76036
734.62        76.38231
735.04        77.24943
735.46         77.1869
735.88         76.4416
736.30        76.72123
736.72        77.98558
737.13        78.53829
737.55        78.10144
737.97        78.07741
738.39        78.44527
738.81         77.5548
739.23        75.94843
739.65        76.64177
740.06        79.14561
740.48        79.50988
740.90        77.82394
741.32        77.28915
741.74        78.08892
742.16        78.45966
742.57        78.39889
742.99        78.81573
743.41        79.59406
743.83         80.0831
744.25        80.19346
744.67        80.08088
745.08        79.88768
745.50        79.84381
745.92         80.0283
746.34        80.35398
746.75        80.71979
747.17        80.95002
747.59        81.01994
748.01        80.98094
748.42        80.96326
748.84         81.1736
749.26        81.65649
749.68        82.25763
750.09        82.83349
750.51        83.30133
750.93        83.54206
751.35        83.23241
751.76         82.5681
752.18        82.34819
752.60        82.57397
753.01         82.5919
753.43        82.43361
753.85        82.65473
754.27         83.2765
754.68        84.04482
755.10         84.7859
755.52        85.38376
755.93         85.7452
756.35        85.84131
756.77        85.80356
757.18        85.72625
757.60        85.65628
758.02        85.94937
758.43        86.29298
758.85        85.65299
759.26        83.94046
759.68        83.89097
760.10        85.58964
760.51          86.536
760.93        85.24338
761.34        84.03352
761.76        84.06969
762.18        83.52298
762.59         83.0256
763.01         83.3961
763.42        84.59382
763.84        85.42406
764.26        85.72495
764.67        85.92822
765.09         85.9863
765.50        85.83894
765.92        85.44473
766.33        84.19569
766.75        82.61291
767.16        82.20969
767.58        83.12288
768.00        84.66001
768.41        86.45494
768.83        87.84666
769.24        88.28318
769.66        87.69147
770.07         86.4811
770.49        84.68208
770.90        82.90606
771.32        83.69044
771.73         86.3148
772.15        85.85362
772.56        82.78178
772.97        82.19289
773.39        83.98556
773.80         84.5975
774.22        83.76344
774.63        83.62105
775.05         84.1416
775.46        84.43266
775.88        84.39881
776.29        84.28482
776.70         84.1598
777.12        84.17029
777.53        84.36605
777.95        84.64098
778.36        84.87023
778.77        84.83666
779.19        84.53494
779.60         84.0281
780.02        83.54063
780.43        83.45999
780.84        83.90205
781.26         84.4328
781.67        84.93331
782.09        85.79449
782.50        86.61063
782.91        85.72489
783.33        83.74902
783.74         83.1095
784.15        83.92981
784.57         84.5266
784.98        84.62338
785.39        84.63313
785.81        84.47839
786.22        83.92283
786.63        83.29389
787.04         83.1429
787.46        83.58481
787.87        84.62001
788.28        85.86069
788.70        86.45532
789.11        86.23906
789.52        85.56673
789.93        84.77434
790.35        84.27186
790.76        84.19416
791.17        84.46249
791.58        84.92371
792.00        85.24253
792.41        85.30563
792.82        85.30434
793.23        85.38113
793.65        85.16219
794.06        84.89734
794.47        85.96271
794.88        87.60931
795.29        87.05164
795.71        84.56824
796.12        82.40829
796.53        81.23425
796.94        80.95673
797.35        81.62606
797.76        82.92176
798.18        84.25021
798.59        85.15667
799.00        85.29516
799.41        84.48473
799.82        83.18682
800.23        82.42754
800.64        82.42533
801.06         82.7909
801.47        83.37811
801.88        83.83508
802.29        84.01984
802.70        84.08005
803.11        84.05907
803.52        83.99195
803.93        83.92414
804.34        83.80172
804.75        83.68659
805.17        83.79269
805.58        84.19116
805.99        84.50877
806.40        84.62753
806.81        85.13812
807.22        85.60923
807.63        84.32941
808.04        81.93212
808.45        80.91756
808.86        81.51582
809.27        82.50932
809.68        83.42805
810.09        83.92702
810.50        83.77425
810.91        83.10201
811.32        82.25208
811.73        81.77462
812.14        81.82016
812.55        82.18445
812.96         82.7371
813.37        83.23327
813.78        83.55075
814.19        83.81967
814.60        83.90477
815.01        83.57945
815.42        82.85142
815.83        81.74512
816.24        80.67268
816.65        80.36774
817.05        81.04117
817.46        82.46075
817.87         84.0518
818.28        84.76593
818.69        84.31815
819.10        82.95638
819.51        81.35395
819.92        80.65999
820.33        81.16953
820.74        82.53911
821.14         84.0956
821.55        84.64165
821.96        83.93221
822.37        82.38896
822.78         80.6694
823.19        79.74066
823.60        79.85143
824.00        80.74856
824.41        81.94421
824.82        82.71051
825.23         82.7504
825.64        82.32964
826.04        81.70023
826.45        81.22368
826.86        81.01355
827.27        80.90543
827.68        80.88139
828.08        80.97578
828.49        81.10125
828.90        81.34502
829.31        81.56518
829.72         81.4733
830.12        81.05417
830.53        80.38577
830.94        79.76828
831.35        79.61668
831.75        80.05271
832.16         80.8911
832.57        81.94257
832.97        82.78461
833.38        83.17028
833.79        83.20454
834.20        83.02647
834.60        82.85668
835.01        82.79581
835.42        82.76587
835.82        82.68563
836.23        82.35175
836.64        81.78813
837.04        81.10955
837.45         80.5086
837.86        80.27825
838.26        80.48099
838.67        80.97264
839.08        81.58891
839.48        82.01749
839.89        82.11412
840.29        81.99966
840.70        81.70143
841.11        81.24924
841.51        80.70263
841.92        80.01881
842.33        79.42488
842.73        79.30917
843.14        79.69549
843.54        80.52769
843.95        81.39128
844.35        81.64882
844.76        81.14764
845.17        80.10973
845.57        78.95998
845.98        78.36124
846.38        78.47289
846.79        79.06753
847.19        79.89554
847.60        80.40928
848.00        80.46735
848.41        80.22359
848.81        79.85909
849.22         79.5621
849.62         79.4572
850.03        79.46458
850.43        79.61792
850.84         79.8982
851.24        80.32012
851.65        80.70948
852.05        81.16681
852.46         81.6559
852.86        82.15158
853.27        82.69401
853.67        82.83673
854.07        82.02883
854.48        80.34033
854.88        77.97901
855.29        75.78569
855.69        74.97409
856.10        75.76353
856.50        78.01338
856.90        80.91592
857.31        82.59335
857.71        82.45455
858.12        80.97868
858.52        79.05295
858.92        77.85669
859.33        77.65395
859.73         78.1274
860.13        79.06638
860.54        80.02172
860.94        80.83374
861.34        81.58743
861.75        82.22176
862.15         82.7271
862.55        83.06142
862.96        83.16897
863.36        83.08515
863.76        82.86942
864.17        82.58681
864.57        82.32391
864.97         82.1892
865.38        82.31664
865.78        82.76839
866.18        83.42323
866.58        84.20088
866.99        84.94159
867.39        85.62226
867.79        86.28323
868.19         86.7065
868.60        86.50507
869.00        85.65338
869.40        84.26634
869.80        83.00297
870.21        82.88112
870.61        84.20335
871.01        86.68474
871.41        89.50585
871.81        91.24011
872.22        91.47585
872.62        90.59882
873.02        89.37495
873.42        89.12919
873.82        90.05864
874.22        91.63506
874.63         93.3421
875.03        94.07621
875.43        93.35546
875.83        92.11249
876.23        90.31107
876.63        89.85517
877.03        90.99931
877.44        94.08913
877.84         100.249
878.24         102.002
878.64        100.9192
879.04        98.18363
879.44        94.53033
879.84        92.62911
880.24        95.03318
880.64        97.17648
881.04        99.43459
881.44        100.9484
881.84        100.5949
882.24        98.92093
882.65        97.00022
883.05        96.04616
883.45        96.28607
883.85        97.44733
884.25        98.98899
884.65        99.86254
885.05         99.7252
885.45        98.98087
885.85        98.13876
886.25        97.86752
886.65        98.31705
887.05        99.23412
887.45         100.347
887.85         101.184
888.25        101.5534
888.65        101.6266
889.04        101.4859
889.44         101.313
889.84        101.1552
890.24        100.8973
890.64        100.6564
891.04        100.6325
891.44        100.8361
891.84        101.2779
892.24        101.6392
892.64        101.3317
893.04        100.3378
893.44        98.96181
893.83        97.75826
894.23        97.53316
894.63        98.39648
895.03        100.0341
895.43        102.1153
895.83        103.9896
896.23        105.3046
896.63        106.2023
897.02        106.4608
897.42        105.7774
897.82         104.267
898.22        102.0903
898.62        99.95844
899.01        98.91178
899.41        99.16949
899.81        100.4029
900.21        102.0365
900.61        103.0901
901.00        103.2579
901.40        102.8324
901.80        102.1118
902.20        101.5735
902.59        101.3808
902.99        101.3581
903.39         101.398
903.79        101.3423
904.18        101.1497
904.58        100.9503
904.98        100.8465
905.38        100.9719
905.77        101.3023
906.17        101.7288
906.57        102.1264
906.96        102.3746
907.36        102.3761
907.76        102.1987
908.15        101.7998
908.55        101.0039
908.95         99.8946
909.34        98.52516
909.74        97.26986
910.14        96.51712
910.53        96.40472
910.93        96.91415
911.33        97.82802
911.72         98.7257
912.12        99.34749
912.52        99.68362
912.91         99.9824
913.31        100.6479
913.70        101.8099
914.10        103.4091
914.49        104.9081
914.89        104.8734
915.29        102.9741
915.68        99.78569
916.08         96.8305
916.47        95.53882
916.87        96.02896
917.26        97.83936
917.66        99.90977
918.05        100.5043
918.45        99.19765
918.84        96.64222
919.24        93.94092
919.64          92.692
920.03         93.3297
920.42        95.34855
920.82        98.02302
921.21         100.205
921.61        101.2355
922.00        101.4422
922.40        101.0651
922.79        100.4256
923.19        99.71551
923.58        98.85331
923.98         97.7989
924.37         96.6112
924.77           95.63
925.16        93.94039
925.55        93.92256
925.95        94.66215
926.34        96.80619
926.74        99.77649
927.13        102.7104
927.52        104.0025
927.92        103.4179
928.31        101.4605
928.70        98.78278
929.10        96.50686
929.49        95.00625
929.89        94.01527
930.28        93.73544
930.67          94.498
931.07        96.10609
931.46        98.51791
931.85        100.8465
932.24        101.7355
932.64        100.9364
933.03        98.70194
933.42          95.646
933.82         93.2763
934.21        92.13281
934.60         91.8838
934.99        92.16379
935.39        92.56343
935.78        93.00585
936.17        93.57043
936.56        93.97179
936.96        94.51814
937.35        93.31289
937.74        92.06511
938.13        91.10463
938.53        91.32444
938.92        92.72932
939.31        95.19083
939.70        98.00748
940.09        99.21793
940.49        98.12727
940.88        95.56677
941.27        92.76299
941.66        91.13999
942.05        90.92175
942.44        91.61912
942.84        92.90529
943.23        94.33101
943.62        95.51996
944.01        96.56508
944.40        97.29572
944.79        97.43398
945.18        96.92445
945.57        95.74309
945.97        93.97021
946.36         92.1654
946.75        90.84104
947.14        90.03957
947.53        89.83647
947.92        90.21832
948.31        91.10242
948.70         92.5469
949.09         94.2306
949.48         95.3021
949.87        95.36125
950.26        94.51779
950.65        93.31863
951.04         92.6853
951.43        92.82816
951.82         93.4808
952.21        94.14939
952.60        94.03455
952.99        92.95845
953.38         91.2397
953.77        89.38929
954.16        88.09773
954.55        87.54692
954.94        87.60477
955.33        87.85351
955.72        87.59667
956.11        86.68886
956.50        85.32609
956.89         84.1958
957.28        84.50694
957.66        86.59523
958.05        89.80624
958.44        93.12781
958.83        95.09084
959.22        95.33502
959.61        94.20989
960.00        92.44489
960.39        91.25555
960.78        91.01579
961.16        91.45341
961.55        91.94601
961.94        91.45354
962.33        89.80762
962.72        87.52122
963.11        85.39392
963.49        84.42051
963.88        84.74973
964.27        86.10226
964.66        87.87824
965.04         88.8149
965.43        88.32813
965.82        86.91539
966.21         85.2698
966.60        84.26317
966.98        84.08596
967.37        84.40989
967.76        84.97224
968.15        85.28414
968.53        85.17042
968.92         84.7913
969.31        84.35904
969.69        84.09961
970.08        84.08139
970.47        84.23134
970.86        84.39331
971.24        84.33222
971.63        83.96875
972.02         83.3625
972.40          82.832
972.79        82.88293
973.17         83.7739
973.56        85.29642
973.95        86.97684
974.33        87.84773
974.72        87.55241
975.11        86.35533
975.49        85.05847
975.88        84.85793
976.26        85.94361
976.65        88.12273
977.04        90.48663
977.42        90.79162
977.81        88.29346
978.19        83.91742
978.58        79.92365
978.96        78.64249
979.35        80.36988
979.74         84.5641
980.12         90.0942
980.51        93.18926
980.89        92.70456
981.28        89.81676
981.66        86.10623
982.05        83.53372
982.43        82.49167
982.82        82.29104
983.20        82.90893
983.59        84.48407
983.97         87.0246
984.35        90.70934
984.74        94.64123
985.12        96.92556
985.51        96.33842
985.89        93.12243
986.28        88.42645
986.66        84.36045
987.04        82.01118
987.43        81.07685
987.81        80.88783
988.20        80.51721
988.58        79.63094
988.96        78.21323
989.35        76.87582
989.73        78.02299
990.12        82.31522
990.50        88.11407
990.88        92.19975
991.27        92.63297
991.65        89.95538
992.03        84.86199
992.42        79.14691
992.80        76.12324
993.18        76.89418
993.56        79.71066
993.95        83.07323
994.33        85.75225
994.71         87.2997
995.10        88.40526
995.48        88.72136
995.86        87.45039
996.24        84.48527
996.63        79.61645
997.01         74.0579
997.39        71.54017
997.77        73.73396
998.15        79.79623
998.54        86.66444
998.92        90.18319
999.30        89.05087
999.68        84.37125
1000.06        77.46662
1000.45        71.76227
1000.83        68.89571
1001.21        67.88035
1001.59        68.28354
1001.97        69.67924
1002.35        71.79346
1002.73        75.27925
1003.12        79.04502
1003.50        79.56066
1003.88        75.43072
1004.26        68.51951
1004.64        62.06971
1005.02        58.76578
1005.40        58.78534
1005.78         61.8703
1006.16        68.96208
1006.54        77.85628
1006.92        83.48061
1007.30        85.47677
1007.69        85.67889
1008.07        86.05791
1008.45        87.23999
1008.83         89.2437
1009.21        92.18295
1009.59        92.07178
1009.97        71.05865
1010.35        16.30925
1010.73      -0.1839681
1011.11        20.90376
1011.49        42.23938
1011.86        59.75135
1012.24        70.33041
1012.62        75.04567
1013.00        76.20289
1013.38        74.83641
1013.76         73.1937
1014.14        78.15733
1014.52        95.18043
1014.90        125.8104
1015.28        161.4057
1015.66        178.2322
1016.04         162.426
1016.41        119.0728
1016.79        72.26971
1017.17         47.8941
1017.55        44.49761
1017.93        49.35212
1018.31        56.40518
1018.69        62.98242
1019.06        69.57951
1019.44        78.36411
1019.82        91.42042
1020.20        108.3288
1020.58        127.5544
1020.95        146.5559
1021.33        168.3351
1021.71       -239.2363
1022.09        76.96965
1022.46        92.33712
1022.84         96.7095
1023.22        100.2139
1023.60        107.1058
1023.97        163.5829
1024.35         70.2563
1024.73        83.09084
