SpectraSmart Spectrum 2.9.0.0
--------- Device Information -----------
Spectrum Name :  反射率_0
Saving Time :  2024/04/26 01:39:49
Spectro-Module Model Name : SE2030-DUVN
Spectro-Module Serial Number : OS361AC55029948
Wavelength Start : 200
Wavelength End : 1025
Wavelength Unit : Wavelength(nm)
Spectrum Unit : Reflectance(%)
-----------Spectrum Setting ------------
Integration Time : 20ms
Average : 10
Boxcar : 0
Background removal :  enabled
linearity correction :  enabled
SC :  disabled
Intensity correction :  disabled
DWT denoise :  enabled
savitzky-golay :  disabled
FFT :  disabled
Running average :  disabled
Kalman :  disabled
High pass :  disabled
---------------BEGIN--------------------
Wavelength(nm)             Reflectance(%)
200.29               0
200.75        86.26784
201.21        84.00996
201.67        81.53294
202.13        79.94586
202.58        79.38227
203.04        79.87135
203.50        80.89402
203.96        81.64387
204.42        81.82375
204.88        81.53492
205.34         81.3331
205.80        81.93089
206.26        83.76155
206.72        87.98429
207.18        95.49869
207.64        98.92841
208.10        88.97749
208.55        76.40658
209.01        70.03341
209.47        69.40991
209.93        72.33237
210.39        78.18143
210.85        84.84109
211.31        87.26131
211.77        83.79415
212.23        76.26331
212.69          68.702
213.14        67.47559
213.60        73.46793
214.06        84.65352
214.52        96.83384
214.98         103.633
215.44         103.435
215.90        98.49066
216.36        91.45181
216.81        85.90052
217.27        83.23802
217.73        82.29769
218.19        81.56837
218.65        78.99696
219.11        73.56609
219.57        64.51036
220.02        52.93224
220.48        45.83404
220.94        47.23274
221.40        55.74439
221.86        63.67357
222.32        62.88882
222.77         54.6122
223.23        43.46822
223.69        34.72879
224.15        33.87455
224.61        40.02929
225.06        50.20695
225.52        60.09517
225.98        64.02404
226.44         61.0473
226.90        53.66272
227.36        44.97598
227.81        39.17433
228.27        37.60798
228.73         38.7424
229.19        41.41553
229.65        43.89949
230.10        45.52876
230.56        46.83611
231.02        48.00052
231.48        49.17875
231.93        50.38756
232.39         51.4635
232.85        52.27971
233.31        52.77063
233.77        52.90855
234.22        52.74712
234.68        52.36007
235.14        51.83992
235.60        51.31634
236.05        50.89332
236.51        50.62022
236.97        50.47961
237.43        50.51642
237.88        50.85152
238.34        51.69054
238.80        53.54714
239.26        56.45002
239.71        60.24572
240.17        64.00016
240.63        66.74679
241.08        68.26575
241.54        68.62486
242.00        68.57131
242.46        69.34498
242.91         72.0988
243.37        78.78503
243.83        99.02225
244.28        162.2363
244.74        229.1308
245.20        186.2983
245.66         150.598
246.11        142.6176
246.57        152.1737
247.03        189.3823
247.48        301.9833
247.94        255.4396
248.40        137.7699
248.85        100.5271
249.31        89.03543
249.77        87.23768
250.22        90.63671
250.68        98.88559
251.14        111.7468
251.59        121.1135
252.05        118.5713
252.51        107.6926
252.96        95.50821
253.42        89.10677
253.88        88.13729
254.33        89.85825
254.79        93.80989
255.25        98.77018
255.70        103.3628
256.16         107.814
256.62        110.3772
257.07        109.2003
257.53        105.3119
257.99        99.34333
258.44        93.06735
258.90        89.65561
259.35        88.21719
259.81        87.81782
260.27        86.63038
260.72        82.87755
261.18        77.39423
261.63        70.90515
262.09        65.00551
262.55        60.77814
263.00        58.16798
263.46        56.73944
263.91        55.60638
264.37        54.17649
264.83        52.20755
265.28        49.82262
265.74        47.52027
266.19        45.78599
266.65        44.87659
267.11        44.48487
267.56        44.16592
268.02        43.40949
268.47        42.07195
268.93        40.33444
269.38         38.4702
269.84        37.17981
270.30        36.64814
270.75        36.67886
271.21        36.87826
271.66        36.65308
272.12        35.85662
272.57        34.67994
273.03        33.46492
273.48        32.63243
273.94          32.305
274.39         32.2793
274.85        32.31768
275.31        32.06202
275.76        31.42562
276.22        30.57315
276.67         29.6631
277.13        29.01969
277.58        28.65277
278.04        28.48388
278.49        28.32293
278.95        27.97716
279.40        27.37885
279.86        26.66534
280.31         25.9163
280.77        25.36325
281.22        25.01131
281.68        24.81529
282.13        24.68946
282.59        24.55298
283.04        24.37412
283.50        24.22345
283.95        24.08346
284.41        23.94663
284.86        23.81105
285.32        23.67888
285.77        23.62264
286.22        23.82032
286.68          24.252
287.13        24.81684
287.59        25.31613
288.04        25.44439
288.50        25.18034
288.95        24.61863
289.41        23.96815
289.86        23.43303
290.32        23.14317
290.77        23.03281
291.22        23.10799
291.68        23.33178
292.13        23.69154
292.59        24.21369
293.04        24.88791
293.50         25.6883
293.95        26.58207
294.40        27.53285
294.86        28.51269
295.31         29.5009
295.77        30.50062
296.22        31.52229
296.68        32.56225
297.13        33.58094
297.58        34.59554
298.04        35.64069
298.49         36.7876
298.95        38.19664
299.40        39.88055
299.85        41.78054
300.31        43.77948
300.76        45.68396
301.21        47.40238
301.67        49.00622
302.12        50.47269
302.58        51.88042
303.03        53.24113
303.48        54.57159
303.94        55.99798
304.39        57.65053
304.84        59.55687
305.30        61.66932
305.75          63.787
306.20        65.62365
306.66        67.13345
307.11        68.34581
307.57        69.45894
308.02        70.65315
308.47        72.03489
308.93        73.54897
309.38        75.08419
309.83        76.52167
310.29        77.81101
310.74        78.95625
311.19        80.02349
311.65         81.1101
312.10        82.22541
312.55        83.35197
313.00        84.36838
313.46        85.08816
313.91        85.46667
314.36        85.58566
314.82        85.66902
315.27         86.0053
315.72        86.69665
316.18        87.66229
316.63        88.72507
317.08        89.54474
317.53        90.01978
317.99        90.22885
318.44        90.37698
318.89        90.80393
319.35         91.5634
319.80        92.57767
320.25        93.55763
320.70        94.03126
321.16        93.90057
321.61        93.32397
322.06        92.64902
322.51        92.42045
322.97        92.74433
323.42        93.49626
323.87        94.37669
324.32        94.86897
324.78        94.81811
325.23        94.43276
325.68        93.93293
326.13        93.70366
326.59        93.83974
327.04        94.24267
327.49        94.79435
327.94        95.33695
328.39        95.79482
328.85        96.19984
329.30        96.57877
329.75          96.799
330.20        96.87167
330.66        96.81756
331.11        96.82003
331.56        97.10419
332.01        97.74312
332.46         98.6611
332.92        99.73775
333.37        100.9344
333.82        102.0809
334.27        103.1765
334.72         104.064
335.17        104.5059
335.63         104.476
336.08         104.098
336.53        103.6059
336.98        103.4334
337.43        103.7084
337.88        104.3179
338.34        105.1458
338.79        106.0781
339.24        106.9915
339.69        107.9482
340.14        108.7836
340.59        109.2082
341.05        109.1927
341.50         108.799
341.95        108.3509
342.40        108.3682
342.85        108.9563
343.30        109.9713
343.75        111.1138
344.20        111.8443
344.66        112.0134
345.11        111.7715
345.56        111.3407
346.01        111.0562
346.46        111.0253
346.91        111.1413
347.36        111.3266
347.81        111.4723
348.26        111.5444
348.72        111.6096
349.17        111.6709
349.62        111.7666
350.07        111.8957
350.52        112.0199
350.97        112.1107
351.42        112.1392
351.87        112.0967
352.32        112.0001
352.77         111.844
353.22        111.6206
353.67        111.3407
354.13        111.0244
354.58        110.6934
355.03         110.443
355.48        110.2794
355.93        110.1676
356.38        110.0315
356.83        109.7484
357.28        109.2883
357.73        108.6939
358.18        108.0132
358.63        107.3244
359.08        106.6634
359.53        106.0162
359.98        105.3911
360.43        104.7981
360.88         104.227
361.33        103.6684
361.78        103.1046
362.23        102.5044
362.68        101.8653
363.13        101.2108
363.58        100.5236
364.03        99.77447
364.48        98.96909
364.93        98.11311
365.38         97.2916
365.83        96.64426
366.28        96.18223
366.73         95.8463
367.18        95.51183
367.63        94.97622
368.08        94.20526
368.53        93.29606
368.98        92.33002
369.43        91.42184
369.88        90.61562
370.33        89.86617
370.78        89.23338
371.23        88.82004
371.68        88.62455
372.13        88.62001
372.58        88.63954
373.03        88.39465
373.48        87.83079
373.93        87.04662
374.38        86.22282
374.83        85.64008
375.28        85.35841
375.72        85.26058
376.17        85.26513
376.62        85.21528
377.07        85.03796
377.52        84.76941
377.97         84.3772
378.42        83.81095
378.87        83.10033
379.32         82.2944
379.77        81.47777
380.22        80.76823
380.67        80.18573
381.11        79.69009
381.56        79.28321
382.01        78.96626
382.46        78.73113
382.91        78.60009
383.36         78.4511
383.81        78.09331
384.26        77.50522
384.71        76.72588
385.15        75.96399
385.60        75.60635
386.05        75.65752
386.50        75.99591
386.95        76.31509
387.40        76.10275
387.85        75.30687
388.29        74.14336
388.74        73.03921
389.19        72.29444
389.64        71.95972
390.09        71.87552
390.54        71.99337
390.98         72.2308
391.43        72.50494
391.88        72.81514
392.33        72.98534
392.78         72.6943
393.23        71.95752
393.67         71.0397
394.12        70.25887
394.57        69.50169
395.02        69.00329
395.47        69.44058
395.91        70.61621
396.36        71.32755
396.81        71.38059
397.26        71.31853
397.71         71.1948
398.15        70.78669
398.60        70.23006
399.05        69.69855
399.50        69.21716
399.95        68.41798
400.39        67.74347
400.84        67.43661
401.29        67.55367
401.74        67.71828
402.18        67.81838
402.63        67.73593
403.08        67.57258
403.53        67.65781
403.97        67.99934
404.42        68.35285
404.87        68.57001
405.32        68.48631
405.76        68.05401
406.21        67.47386
406.66        66.90958
407.11        66.41834
407.55        66.17281
408.00        66.50727
408.45        67.23798
408.90        67.61764
409.34        67.44238
409.79        66.90428
410.24        66.24599
410.68        65.87634
411.13         65.8861
411.58        66.04372
412.03        66.29508
412.47         66.6379
412.92        66.96967
413.37        67.31243
413.81         67.5611
414.26        67.59887
414.71        67.39838
415.15        66.98453
415.60        66.50336
416.05        66.21715
416.49         66.2007
416.94        66.40958
417.39        66.68049
417.83        66.70813
418.28        66.44584
418.73        66.00793
419.17        65.61482
419.62        65.62137
420.07        66.04488
420.51        66.74303
420.96        67.49374
421.41        67.81671
421.85        67.57212
422.30        67.32327
422.74        67.08105
423.19        66.27941
423.64        65.27161
424.08        65.61955
424.53        67.11947
424.98        67.89468
425.42        67.72308
425.87         67.9221
426.31        68.47531
426.76        68.15482
427.21        67.33176
427.65         67.7551
428.10        69.20013
428.54        70.13337
428.99        70.46003
429.44         70.3437
429.88         70.0128
430.33         71.0414
430.77        72.60046
431.22        71.48454
431.66        68.38627
432.11        66.97448
432.56        67.54589
433.00        68.52911
433.45        69.74844
433.89         71.5248
434.34        72.49131
434.78        74.09967
435.23        70.90031
435.67        68.52584
436.12        70.95219
436.57        71.98824
437.01        72.81135
437.46        73.08174
437.90        72.93747
438.35        72.97826
438.79        73.22044
439.24        73.18673
439.68        72.92999
440.13         72.4379
440.57        72.09221
441.02         72.9996
441.46        74.75825
441.91        75.75725
442.35        75.72611
442.80        75.02047
443.24        74.05251
443.69        74.68027
444.13        76.50285
444.58        76.41678
445.02        74.67826
445.47        74.38531
445.91        75.47923
446.36        75.85889
446.80        75.46329
447.24        75.42189
447.69        75.75585
448.13        76.02095
448.58         76.2075
449.02         76.3744
449.47        76.55547
449.91        76.81611
450.36        77.15439
450.80        77.53466
451.25        77.83041
451.69        77.78197
452.13        77.40706
452.58        76.87605
453.02         76.3832
453.47        76.20357
453.91        76.38358
454.36        76.86469
454.80        77.45368
455.24        77.69456
455.69        77.49991
456.13        77.16082
456.58        76.87249
457.02        76.27346
457.46        75.99134
457.91        76.27233
458.35         76.8657
458.79        77.19001
459.24        77.13971
459.68        77.01615
460.13        76.85756
460.57         76.5836
461.01        76.28082
461.46        75.65395
461.90        75.25967
462.34        75.14272
462.79        74.55224
463.23        74.77751
463.68        75.38808
464.12        75.92856
464.56        76.23545
465.01        76.25699
465.45        75.97243
465.89        76.09474
466.34         76.3708
466.78        75.29473
467.22        73.50317
467.67        72.73119
468.11        74.13184
468.55        74.94445
468.99        75.10158
469.44        74.78868
469.88        74.21413
470.32        74.21703
470.77        74.71696
471.21        74.75509
471.65        74.28119
472.10        73.98968
472.54        73.98698
472.98        74.05587
473.42        74.19321
473.87        74.67474
474.31         75.1925
474.75        74.88564
475.20        74.04177
475.64        73.37154
476.08        74.09757
476.52        74.09478
476.97        73.70126
477.41        73.84077
477.85        74.02388
478.29        74.27689
478.74        74.59819
479.18        74.63261
479.62         73.3615
480.06        73.88548
480.50        74.27476
480.95        74.79945
481.39        74.98476
481.83        73.97205
482.27        73.99284
482.72        74.04301
483.16        72.64117
483.60        72.55124
484.04         74.3241
484.48        74.71613
484.93        74.64443
485.37        75.86561
485.81        77.01653
486.25        75.42954
486.69        103.0016
487.14        83.01939
487.58        51.48904
488.02        63.47951
488.46        71.92817
488.90        71.34711
489.34        73.14565
489.79        72.13816
490.23        74.94218
490.67        75.77855
491.11        74.36748
491.55         74.1997
491.99         74.8476
492.43        74.66434
492.88        73.74362
493.32        73.66308
493.76        73.88836
494.20        74.16961
494.64        74.24126
495.08        74.38856
495.52        74.63108
495.96        74.59061
496.41        74.27624
496.85         74.6832
497.29        75.53549
497.73        74.42177
498.17        72.35059
498.61        72.58346
499.05         75.1115
499.49        75.56251
499.93        75.56516
500.37        75.25388
500.82        74.57774
501.26        74.66219
501.70        75.19712
502.14        75.60166
502.58        75.26396
503.02        75.10871
503.46        75.00162
503.90        74.61098
504.34        74.09934
504.78        73.89667
505.22        74.05801
505.66        74.47964
506.10        74.98824
506.54        75.20514
506.98        75.02641
507.42        74.88297
507.86        74.39684
508.30        74.20413
508.74        74.29469
509.18        74.53056
509.62        74.81989
510.06        74.98587
510.50        74.98289
510.94        74.86842
511.38        74.72317
511.82        74.66513
512.26         74.7268
512.70        74.86649
513.14        75.02459
513.58         75.1126
514.02        75.10103
514.46        75.01277
514.90        74.90547
515.34        74.85339
515.78        74.86523
516.22        74.97161
516.66        75.10525
517.10        75.01408
517.54        74.67995
517.98         74.6703
518.42        74.34828
518.86        74.37653
519.30        74.55718
519.74        74.89455
520.18        75.28423
520.62        75.55132
521.06        75.65369
521.50        75.64089
521.93        75.54917
522.37         75.4378
522.81        75.34406
523.25        75.25096
523.69        75.19686
524.13         75.2435
524.57        75.39491
525.01        75.63573
525.45        75.89915
525.89        76.07079
526.32        76.11034
526.76        76.04287
527.20         75.9144
527.64        75.82234
528.08        75.80982
528.52        75.78647
528.96        75.69035
529.40        75.63953
529.83        75.66524
530.27        74.97511
530.71        75.10927
531.15        74.96266
531.59        74.99731
532.03        75.13723
532.46        75.37076
532.90        75.64077
533.34        75.89754
533.78        76.14931
534.22        76.33619
534.66        76.37938
535.09        76.25976
535.53        76.02523
535.97        75.73679
536.41        75.52013
536.85        75.41387
537.28        75.39174
537.72        75.40703
538.16        75.39312
538.60        75.33316
539.04        75.19939
539.47        75.02184
539.91        75.04323
540.35        75.19153
540.79        75.13428
541.22        74.90801
541.66        74.87435
542.10        75.03616
542.54        75.18655
542.97        75.29189
543.41        75.41628
543.85        75.53266
544.29        75.64531
544.72        75.69592
545.16        75.59904
545.60        75.33875
546.04        75.02711
546.47        74.79301
546.91        74.64445
547.35        74.70783
547.79         75.4174
548.22        76.41486
548.66        76.69729
549.10         76.1665
549.53        75.31447
549.97        74.51176
550.41        74.10103
550.84        74.20493
551.28        74.71283
551.72        75.39375
552.15        75.83018
552.59        75.89741
553.03        75.75558
553.46        75.51524
553.90        75.31303
554.34        75.29578
554.77        75.39968
555.21         75.2659
555.65        75.39977
556.08        75.83711
556.52        75.21044
556.96        75.37483
557.39        75.19172
557.83        75.23136
558.27        75.26098
558.70        75.30894
559.14        75.47765
559.57        75.72172
560.01        76.01306
560.45        76.25308
560.88        76.30841
561.32        76.17038
561.75        75.83357
562.19        75.45181
562.63        75.06085
563.06        74.78977
563.50        74.97753
563.93        75.45451
564.37        75.68291
564.80         75.5593
565.24        75.33768
565.68        75.11487
566.11        75.00351
566.55        75.08751
566.98        75.25999
567.42        75.47002
567.85        75.72306
568.29         76.0174
568.72        76.01027
569.16        75.92502
569.60        76.44101
570.03        76.83344
570.47        76.86472
570.90        76.77558
571.34        74.78355
571.77        75.76153
572.21        76.13675
572.64        75.65683
573.08         74.4659
573.51        71.45505
573.95        74.10578
574.38        78.54868
574.82        76.38229
575.25        76.21366
575.69        73.51996
576.12        72.13269
576.56        71.74102
576.99        73.48282
577.42        76.76116
577.86        76.46588
578.29        75.74508
578.73        80.01598
579.16        73.71224
579.60        67.49475
580.03        70.50935
580.47        74.94777
580.90        76.76507
581.33        75.43565
581.77        74.06903
582.20         81.7104
582.64        81.62467
583.07        69.56385
583.51        68.09412
583.94        66.99006
584.37         69.9559
584.81        73.48796
585.24        77.50642
585.68        79.50642
586.11        78.14649
586.54        72.63673
586.98        70.20885
587.41        70.80672
587.85        74.71429
588.28        77.21892
588.71        73.90582
589.15        71.07774
589.58        72.83979
590.01        73.11651
590.45        74.21214
590.88        75.04513
591.31        74.52266
591.75        73.70428
592.18         73.8373
592.61        75.70532
593.05        75.90764
593.48         78.9934
593.91        79.83595
594.35        73.51672
594.78        71.95228
595.21        71.31186
595.65        74.52929
596.08        77.69655
596.51        74.68894
596.94        72.58926
597.38        73.31808
597.81        76.37212
598.24        78.30165
598.68        76.67523
599.11        75.48447
599.54        78.54118
599.97        79.89877
600.41        74.57412
600.84        74.18102
601.27        76.02202
601.70        75.06295
602.14        75.06659
602.57        73.95769
603.00         74.4714
603.43         76.1543
603.87        77.69893
604.30        77.90215
604.73        75.44659
605.16        73.85342
605.60        74.56094
606.03        75.76708
606.46        77.20544
606.89        76.65497
607.32        74.53928
607.76        74.06669
608.19        76.85735
608.62        75.91964
609.05        74.68267
609.48        75.26147
609.92        75.04861
610.35        74.99081
610.78        77.14596
611.21        77.28044
611.64        74.20721
612.07        74.89143
612.50        75.28342
612.94        75.68214
613.37         74.9493
613.80        75.46569
614.23        75.78966
614.66        75.80428
615.09        76.15146
615.52        76.21638
615.96        76.10744
616.39        76.20934
616.82        75.26981
617.25        74.67054
617.68        75.52929
618.11        76.07578
618.54        76.46205
618.97        75.96781
619.40        74.98523
619.84        74.99288
620.27         75.9313
620.70        76.68018
621.13        76.98114
621.56        76.39272
621.99        75.26643
622.42        75.99401
622.85        78.07594
623.28        77.85537
623.71        77.07966
624.14        77.21031
624.57        76.67806
625.00        75.98401
625.43         76.8148
625.86        76.16354
626.29        76.06682
626.72        76.97676
627.15        76.43231
627.58        76.59369
628.01        76.53669
628.44         76.7096
628.87        77.19989
629.30        76.75139
629.73        77.16295
630.16        77.83014
630.59        76.99506
631.02        76.65481
631.45        76.26974
631.88        75.99023
632.31        75.82533
632.74         75.9724
633.17        76.05141
633.60        76.19495
634.03        76.26646
634.46        76.31834
634.89        76.34419
635.32        76.34048
635.75        76.31834
636.18         76.2594
636.61        76.21525
637.04        76.27901
637.47        76.45786
637.89        76.73545
638.32        76.99836
638.75        77.09652
639.18        76.99046
639.61        76.77905
640.04        76.45914
640.47        76.21547
640.90         76.0704
641.33        75.99084
641.76        75.94096
642.18        75.97128
642.61        76.06713
643.04        76.04794
643.47        75.86218
643.90        76.40867
644.33        76.10468
644.76        76.22194
645.18        76.27249
645.61        76.25105
646.04        76.14131
646.47        75.94575
646.90        75.77708
647.33        75.75739
647.75        75.93427
648.18        76.32066
648.61        76.69411
649.04        76.70953
649.47         76.3198
649.89        75.48042
650.32        74.63792
650.75        74.64477
651.18        75.43111
651.61        76.25482
652.03        76.69493
652.46        76.40825
652.89        75.89212
653.32        75.24763
653.74        74.86942
654.17        76.29091
654.60        77.69366
655.03        74.18387
655.46        75.45182
655.88        79.30145
656.31        85.00262
656.74        193.1339
657.16        124.9709
657.59        43.98503
658.02        33.11547
658.45        57.25684
658.87        73.54241
659.30        76.84486
659.73        75.47491
660.15        73.23669
660.58        76.36934
661.01        78.30882
661.44        75.30006
661.86        74.22967
662.29        74.29028
662.72        75.25898
663.14        76.79536
663.57        76.72802
664.00        75.35503
664.42        75.10655
664.85        76.05915
665.27        76.59981
665.70        76.50262
666.13        76.33153
666.55        76.07456
666.98        75.55939
667.41        74.97579
667.83        74.70503
668.26        74.82505
668.69        75.19083
669.11        75.58159
669.54         75.9903
669.96         75.6284
670.39        75.23354
670.82        74.78142
671.24        74.48239
671.67        74.50011
672.09        74.97411
672.52        75.59902
672.94        76.20134
673.37        75.46373
673.80        75.29203
674.22        75.37408
674.65        75.37402
675.07        75.27748
675.50        75.12572
675.92        74.98711
676.35        75.00478
676.77        75.19501
677.20        75.42973
677.62        75.65862
678.05        75.80595
678.47        75.83591
678.90        75.78784
679.32        75.71053
679.75        75.54105
680.17        75.59478
680.60        75.61086
681.02        75.62544
681.45        75.50613
681.87        75.24678
682.30        74.96281
682.72        74.74519
683.15        74.56791
683.57        74.55956
684.00        74.99613
684.42        75.81142
684.85        76.18324
685.27        76.04784
685.70        75.74705
686.12        75.41104
686.54        75.19496
686.97        75.15396
687.39        75.23665
687.82        75.39088
688.24        75.49462
688.66        75.50493
689.09        75.45612
689.51        75.42015
689.94        75.47728
690.36        75.65095
690.78        75.89663
691.21        76.12901
691.63        76.22648
692.06        76.16428
692.48         75.9895
692.90        75.79424
693.33        75.70581
693.75        75.76256
694.17        75.93896
694.60        76.16116
695.02        76.30377
695.44        76.29465
695.87        76.29766
696.29        76.38216
696.71        76.18153
697.14         75.8668
697.56         76.4445
697.98        77.59901
698.41        77.34933
698.83        76.49082
699.25        75.83815
699.68        75.75211
700.10        75.64331
700.52        75.55543
700.94        75.85102
701.37        76.40067
701.79        76.87267
702.21        77.14383
702.64        77.31688
703.06        77.35493
703.48        77.19202
703.90        76.85847
704.33        76.37399
704.75        75.86911
705.17        75.65222
705.59        75.79775
706.01        76.10571
706.44         76.4148
706.86        77.11436
707.28        77.10398
707.70        77.22989
708.12        77.22165
708.55        77.14763
708.97        77.00935
709.39        76.79668
709.81        76.58516
710.23        76.49458
710.66        76.55663
711.08        76.78113
711.50        77.03074
711.92        77.09602
712.34        76.93385
712.76         76.5884
713.19        76.23299
713.61        76.18435
714.03        76.48753
714.45        77.04326
714.87        77.60289
715.29        77.77276
715.71        77.47409
716.13        76.84173
716.56        76.12486
716.98        75.75775
717.40        75.84804
717.82        76.26365
718.24         76.8162
718.66        77.18402
719.08         77.2633
719.50        77.15325
719.92        76.93961
720.34        76.77851
720.76        76.72551
721.19        76.59702
721.61        76.62789
722.03         76.6694
722.45        76.77961
722.87         76.9585
723.29        77.16203
723.71        77.29928
724.13         77.3447
724.55        77.31744
724.97        77.25803
725.39        77.24152
725.81        77.28687
726.23        77.36823
726.65        77.46002
727.07        77.52021
727.49        77.54193
727.91        77.55287
728.33        77.55863
728.75        77.56626
729.17        77.57871
729.59        77.57874
730.01        77.60615
730.43        77.71731
730.85        77.91818
731.27        78.22016
731.69        78.50816
732.10        78.56963
732.52        78.36909
732.94        78.02042
733.36        77.71815
733.78        77.62984
734.20        77.79992
734.62        78.49323
735.04        79.45066
735.46        79.45649
735.88        78.76136
736.30        79.16668
736.72        80.55653
737.13          81.035
737.55        80.33779
737.97        79.93047
738.39        79.96516
738.81        79.22189
739.23        78.16074
739.65        79.19682
740.06         81.7261
740.48        82.09087
740.90        80.36237
741.32        79.52264
741.74        79.87544
742.16        80.01221
742.57        80.01189
742.99        80.68931
743.41        81.80329
743.83        82.48305
744.25        82.57336
744.67        82.30029
745.08        81.90868
745.50        81.78943
745.92        82.06076
746.34        82.57249
746.75        83.13187
747.17        83.42199
747.59        83.39337
748.01        83.16283
748.42        82.92955
748.84        83.03648
749.26        83.57122
749.68        84.23588
750.09        84.89304
750.51        85.69461
750.93        86.38677
751.35        86.13859
751.76        85.18414
752.18        84.81477
752.60        85.05469
753.01        84.95337
753.43        84.57214
753.85        84.67104
754.27        85.29719
754.68        86.15155
755.10        87.00867
755.52        87.67128
755.93        88.01577
756.35        88.01939
756.77        87.87695
757.18        87.79479
757.60        87.84073
758.02        88.35853
758.43        88.92213
758.85        88.39448
759.26        86.27782
759.68        86.14308
760.10        87.54996
760.51        88.36074
760.93        88.11226
761.34        87.05243
761.76        86.25437
762.18        85.55784
762.59        85.42664
763.01        85.84547
763.42        86.75418
763.84        87.47038
764.26        87.86929
764.67        88.23151
765.09        88.41829
765.50        88.17374
765.92        87.48965
766.33        86.02247
766.75        84.36376
767.16        83.91464
767.58        84.83413
768.00        86.59168
768.41        88.70128
768.83        90.13729
769.24        90.33988
769.66        89.38891
770.07        87.88815
770.49        86.28117
770.90        85.05152
771.32        86.06672
771.73        88.56093
772.15        88.08141
772.56        85.11434
772.97        84.48221
773.39        86.11695
773.80        86.65771
774.22         85.8849
774.63        85.80038
775.05        86.35955
775.46        86.67525
775.88        86.63647
776.29        86.48204
776.70        86.27766
777.12        86.17873
777.53        86.24167
777.95        86.35075
778.36        86.43012
778.77        86.34827
779.19        86.12672
779.60        85.79994
780.02        85.50267
780.43        85.56783
780.84        86.10664
781.26        86.40861
781.67        86.71494
782.09        87.80685
782.50        89.20706
782.91        88.30019
783.33        85.80236
783.74         85.0552
784.15        86.21584
784.57        87.07555
784.98        87.28045
785.39         87.3866
785.81        87.29639
786.22        86.69067
786.63        85.93986
787.04        85.76089
787.46        86.24344
787.87        87.16747
788.28         88.1897
788.70        88.72405
789.11        88.61562
789.52        88.06105
789.93        87.36231
790.35        86.92999
790.76        86.88905
791.17        87.17856
791.58        87.59547
792.00        87.76479
792.41        87.58644
792.82        87.14687
793.23        86.77348
793.65        86.65776
794.06        86.95683
794.47        88.36061
794.88         90.0102
795.29        89.47062
795.71        87.00541
796.12         84.5721
796.53        82.97714
796.94        82.63781
797.35        83.62509
797.76        85.22378
798.18        86.71275
798.59        87.70266
799.00        87.79983
799.41        86.73222
799.82        85.07161
800.23        84.08954
800.64        84.05608
801.06        84.50536
801.47        85.25066
801.88        85.87028
802.29        86.18275
802.70        86.35781
803.11        86.41782
803.52        86.35643
803.93        86.21448
804.34        85.94538
804.75        85.64597
805.17        85.58841
805.58        85.86838
805.99        86.12654
806.40        86.24498
806.81        86.75463
807.22        87.24161
807.63         86.1105
808.04        83.94695
808.45        83.08569
808.86        83.73787
809.27        84.74934
809.68        85.69247
810.09        86.27002
810.50        86.26362
810.91        85.79018
811.32        85.11809
811.73        84.68571
812.14        84.61803
812.55        84.73296
812.96        84.99862
813.37        85.34846
813.78        85.71286
814.19         86.1808
814.60        86.48677
815.01        86.20231
815.42         85.2975
815.83        83.85628
816.24        82.43616
816.65        82.02306
817.05        82.89047
817.46        84.71839
817.87        86.76933
818.28        87.72246
818.69        87.21138
819.10        85.56844
819.51         83.5797
819.92         82.5854
820.33        82.95173
820.74        84.27613
821.14        85.86256
821.55        86.47575
821.96        85.84414
822.37        84.40928
822.78        82.79204
823.19         81.8932
823.60        81.95132
824.00        82.72295
824.41        83.76176
824.82        84.44127
825.23         84.4953
825.64         84.1551
826.04        83.63815
826.45        83.25029
826.86        83.08755
827.27         83.0142
827.68         82.9958
828.08        83.03624
828.49        83.05066
828.90        83.12872
829.31        83.20586
829.72        83.13894
830.12        82.92917
830.53        82.58678
830.94        82.29243
831.35        82.28911
831.75        82.66422
832.16        83.29455
832.57        84.03048
832.97        84.53857
833.38         84.6368
833.79        84.41462
834.20        84.09128
834.60        84.00104
835.01        84.24378
835.42        84.71259
835.82        85.16798
836.23        85.12077
836.64         84.5187
837.04        83.55067
837.45        82.57149
837.86        82.14132
838.26        82.40247
838.67        83.14236
839.08        84.09224
839.48         84.7541
839.89         84.9118
840.29        84.73174
840.70        84.33257
841.11         83.8753
841.51        83.44765
841.92        82.97224
842.33        82.55225
842.73        82.38099
843.14        82.45585
843.54        82.79317
843.95        83.18215
844.35        83.32297
844.76        83.12402
845.17        82.67357
845.57        82.16566
845.98        81.91899
846.38        82.00519
846.79        82.30611
847.19         82.6759
847.60        82.76015
848.00        82.51525
848.41        82.03854
848.81        81.54369
849.22        81.26548
849.62        81.32359
850.03        81.65706
850.43        82.19208
850.84        82.68255
851.24        83.08197
851.65        83.24987
852.05        83.45071
852.46        83.93746
852.86        84.73883
853.27        85.78033
853.67        86.42787
854.07        85.85505
854.48        84.07457
854.88        81.39566
855.29        78.78719
855.69         77.6386
856.10         78.2252
856.50        80.36722
856.90        83.22198
857.31        84.85223
857.71        84.64787
858.12        83.11066
858.52        81.16493
858.92         80.0336
859.33        79.97726
859.73        80.66781
860.13        81.79758
860.54         82.7272
860.94        83.25997
861.34        83.54927
861.75        83.71249
862.15        84.02396
862.55        84.50797
862.96        85.01122
863.36        85.44853
863.76        85.65644
864.17        85.59644
864.57        85.41005
864.97         85.1754
865.38        84.98569
865.78         84.9243
866.18        84.87875
866.58        84.91529
866.99        85.12727
867.39        85.58258
867.79        86.32127
868.19        86.99599
868.60        86.94187
869.00        86.05692
869.40         84.5198
869.80        83.19265
870.21        83.43536
870.61        85.58529
871.01        89.18305
871.41        93.09079
871.81        95.36971
872.22         95.4594
872.62        93.93346
873.02         91.7991
873.42        90.70235
873.82        90.99197
874.22        92.07503
874.63        93.43719
875.03        94.05613
875.43        93.46908
875.83        92.56103
876.23        91.22194
876.63        91.21232
877.03        92.82494
877.44        96.47614
877.84        99.34197
878.24        104.6668
878.64        103.3177
879.04        99.93256
879.44        96.39548
879.84        94.49283
880.24        96.43789
880.64        98.57468
881.04        101.0845
881.44        102.5864
881.84        101.8386
882.24         99.5621
882.65        97.17798
883.05        96.32261
883.45        97.27988
883.85        99.65671
884.25        102.5588
884.65        104.2827
885.05        104.2425
885.45        103.0412
885.85        101.4787
886.25        100.6271
886.65        100.7461
887.05        101.4512
887.45        102.4269
887.85        103.1415
888.25        103.3708
888.65        103.3466
889.04        103.1138
889.44        102.7528
889.84        102.3232
890.24        101.7733
890.64        101.2834
891.04        101.1636
891.44        101.4407
891.84        102.0364
892.24        102.6957
892.64        102.9196
893.04        102.6353
893.44        102.1088
893.83        101.5588
894.23        101.3255
894.63        101.4801
895.03        101.8229
895.43        102.5252
895.83        103.8779
896.23         105.786
896.63         108.115
897.02        110.0265
897.42         110.155
897.82        108.3386
898.22        105.1236
898.62        101.6573
899.01        99.62106
899.41        99.43356
899.81        100.5282
900.21        102.3081
900.61        103.7793
901.00        104.5523
901.40        104.9406
901.80        104.9794
902.20        104.7113
902.59        104.2229
902.99        103.4235
903.39        102.5311
903.79        101.9899
904.18         101.928
904.58        102.3051
904.98        102.9214
905.38        103.4223
905.77        103.6694
906.17        103.7426
906.57        103.7146
906.96        103.7477
907.36        103.8209
907.76         103.885
908.15        103.8203
908.55         103.343
908.95        102.4754
909.34        101.2943
909.74        100.1543
910.14        99.40791
910.53        99.19151
910.93        99.49207
911.33        100.1096
911.72        100.6775
912.12        100.9987
912.52        101.0943
912.91        101.2443
913.31        101.8817
913.70        103.1271
914.10         104.901
914.49        106.6699
914.89        106.9396
915.29        105.3126
915.68        102.3703
916.08        99.54791
916.47        98.17972
916.87        98.42371
917.26        99.84675
917.66        101.6056
918.05        102.3435
918.45        101.6881
918.84        100.1334
919.24        98.47015
919.64        97.82743
920.03        98.50068
920.42        100.0772
920.82        101.9875
921.21        103.4245
921.61        103.9089
922.00        103.7473
922.40        103.0916
922.79        102.0913
923.19         100.908
923.58        99.53928
923.98        98.14891
924.37        97.16167
924.77        96.92285
925.16        96.68227
925.55        97.68232
925.95        99.15294
926.34        101.2866
926.74         103.718
927.13        105.8388
927.52        106.4814
927.92         105.566
928.31        103.4652
928.70        100.8269
929.10        98.76138
929.49        97.59415
929.89        97.07391
930.28        97.26181
930.67        98.22401
931.07        99.70757
931.46        101.7436
931.85        103.5848
932.24        104.1128
932.64        103.1477
933.03        100.8685
933.42        97.89931
933.82        95.74238
934.21        94.89199
934.60         95.0234
934.99        95.63408
935.39        96.09589
935.78        96.29402
936.17        96.37582
936.56        96.22049
936.96        96.33559
937.35        95.63082
937.74        95.02161
938.13         94.5709
938.53        94.72748
938.92        95.48972
939.31        96.86691
939.70        98.35636
940.09          98.647
940.49         97.4044
940.88         95.2098
941.27        93.12253
941.66         92.3931
942.05         93.1554
942.44        94.99822
942.84        97.30675
943.23        99.07355
943.62        99.80624
944.01        99.74948
944.40        99.23022
944.79        98.78132
945.18        98.55766
945.57        98.34979
945.97        97.90278
946.36        96.89187
946.75        95.44127
947.14        94.00748
947.53        92.91419
947.92        92.30053
948.31        92.12124
948.70        92.31242
949.09        92.82378
949.48        93.52116
949.87        94.25722
950.26        94.93774
950.65        95.55519
951.04        96.17439
951.43        96.77489
951.82        97.28681
952.21        97.43376
952.60        96.83831
952.99        95.49382
953.38        93.57892
953.77        91.61913
954.16        90.34506
954.55        89.91562
954.94        90.22359
955.33        90.74321
955.72        90.55069
956.11        89.45358
956.50        87.71574
956.89        86.11729
957.28         86.0746
957.66        88.00244
958.05        91.15173
958.44        94.54539
958.83        96.76292
959.22        97.40736
959.61        96.83112
960.00        95.49699
960.39        94.17823
960.78        93.17432
961.16        92.31797
961.55        91.43122
961.94        90.29215
962.33        88.93746
962.72         87.6245
963.11        86.62537
963.49         86.1973
963.88        86.34288
964.27        86.99055
964.66        87.87963
965.04        88.47764
965.43        88.46349
965.82        88.01885
966.21         87.4857
966.60         87.3547
966.98        87.72607
967.37        88.38392
967.76        89.07798
968.15        89.32372
968.53        88.96835
968.92        88.17475
969.31        87.21326
969.69        86.37804
970.08        85.78076
970.47        85.40059
970.86        85.11765
971.24        84.74081
971.63        84.22752
972.02        83.62391
972.40        83.32346
972.79        83.95451
973.17        85.74078
973.56        88.36262
973.95        91.01915
974.33        92.18519
974.72        91.38494
975.11         89.1297
975.49        86.54852
975.88        85.18275
976.26         85.2821
976.65        86.54736
977.04        88.17778
977.42        88.22688
977.81        86.07707
978.19        82.57698
978.58         79.6673
978.96        79.32263
979.35        81.81113
979.74         86.6564
980.12        92.80116
980.51        96.58205
980.89        96.77052
981.28        94.37062
981.66        90.87348
982.05        88.18849
982.43        86.74992
982.82        86.00698
983.20        85.95271
983.59        86.71106
983.97        88.29539
984.35        90.83112
984.74        93.67804
985.12        95.57446
985.51        95.56947
985.89        93.79905
986.28        90.79505
986.66        87.56577
987.04        84.95009
987.43        83.02309
987.81        81.67831
988.20        80.64646
988.58        79.71371
988.96        78.73976
989.35        78.26377
989.73        80.07459
990.12        84.27041
990.50        89.52962
990.88        93.02423
991.27         93.1096
991.65         90.3333
992.03        85.22889
992.42        79.63715
992.80        76.97311
993.18        78.25153
993.56        81.64682
993.95        85.43945
994.33        88.11752
994.71        89.27036
995.10        89.72302
995.48        89.35635
995.86        87.73505
996.24        84.88654
996.63        80.56609
997.01        75.94342
997.39        74.51031
997.77        77.68256
998.15        84.48643
998.54        91.88255
998.92        95.89021
999.30        95.25818
999.68        91.09496
1000.06        84.29897
1000.45         77.5535
1000.83        72.63368
1001.21        69.15233
1001.59        67.61996
1001.97        68.59287
1002.35         71.9229
1002.73        78.16936
1003.12        85.98218
1003.50        90.08537
1003.88        87.51544
1004.26        80.36436
1004.64        72.66324
1005.02        68.02223
1005.40        66.69983
1005.78        67.82926
1006.16        72.25251
1006.54        79.19891
1006.92        84.88165
1007.30        88.37812
1007.69        90.11886
1008.07        91.16491
1008.45        92.19959
1008.83         93.0313
1009.21        93.31943
1009.59        91.03253
1009.97        78.03127
1010.35        51.06609
1010.73        44.33245
1011.11        51.89014
1011.49        59.21555
1011.86        66.68504
1012.24        71.29758
1012.62        73.16864
1013.00        73.33079
1013.38        71.65652
1013.76        70.48536
1014.14          77.289
1014.52        97.87096
1014.90        134.6525
1015.28        176.5182
1015.66        193.2684
1016.04        168.1486
1016.41        108.5685
1016.79        48.24322
1017.17        22.15511
1017.55        24.92816
1017.93        37.93126
1018.31        51.67621
1018.69        61.70553
1019.06        69.03455
1019.44        76.31602
1019.82        86.60117
1020.20        104.1302
1020.58        134.4156
1020.95        186.7425
1021.33         291.346
1021.71       -1126.102
1022.09        23.48084
1022.46         89.7795
1022.84        112.6842
1023.22        123.1442
1023.60         130.113
1023.97        154.6474
1024.35        123.7491
1024.73        134.6374
