SpectraSmart Spectrum 2.9.0.0
--------- Device Information -----------
Spectrum Name :  反射率_0
Saving Time :  2024/04/26 02:06:02
Spectro-Module Model Name : SE2030-DUVN
Spectro-Module Serial Number : OS361AC55029948
Wavelength Start : 200
Wavelength End : 1025
Wavelength Unit : Wavelength(nm)
Spectrum Unit : Reflectance(%)
-----------Spectrum Setting ------------
Integration Time : 20ms
Average : 10
Boxcar : 0
Background removal :  enabled
linearity correction :  enabled
SC :  disabled
Intensity correction :  disabled
DWT denoise :  enabled
savitzky-golay :  disabled
FFT :  disabled
Running average :  disabled
Kalman :  disabled
High pass :  disabled
---------------BEGIN--------------------
Wavelength(nm)             Reflectance(%)
200.29               0
200.75        96.42375
201.21        91.61392
201.67        85.58054
202.13        81.73148
202.58        80.54568
203.04         81.5234
203.50        83.00109
203.96        82.37403
204.42        79.51853
204.88        75.73367
205.34        72.79547
205.80        72.50806
206.26        75.68496
206.72        84.45208
207.18        102.8859
207.64        121.3554
208.10        114.6106
208.55        94.82142
209.01        81.54346
209.47        76.98151
209.93        77.57498
210.39        81.31918
210.85        85.68291
211.31        85.51752
211.77         79.4949
212.23        69.89194
212.69        60.92925
213.14        59.00473
213.60        64.99909
214.06        76.84492
214.52        90.32072
214.98        98.98035
215.44        100.9251
215.90        98.16208
216.36        92.87152
216.81        87.98339
217.27        84.97771
217.73        83.13454
218.19        81.42783
218.65        78.40894
219.11        73.27676
219.57         65.1934
220.02        55.66605
220.48        51.97684
220.94        57.32197
221.40        69.29827
221.86        78.89743
222.32        77.20715
222.77        66.18024
223.23         51.5574
223.69         39.4699
224.15        36.17719
224.61        40.85947
225.06        50.21217
225.52        59.92891
225.98        64.40179
226.44        62.58303
226.90        56.87138
227.36        50.01516
227.81        45.69307
228.27        45.09768
228.73        46.70906
229.19        49.45486
229.65        51.81782
230.10         53.1961
230.56         54.1254
231.02        54.75432
231.48        55.18713
231.93        55.45741
232.39        55.48551
232.85        55.23916
233.31        54.78401
233.77        54.13888
234.22        53.33073
234.68        52.41026
235.14        51.45768
235.60        50.59377
236.05        49.90105
236.51        49.41245
236.97        49.06653
237.43        48.83159
237.88        48.76942
238.34        48.87662
238.80        49.32159
239.26        50.11615
239.71        51.29578
240.17        52.46661
240.63        53.47036
241.08        54.36184
241.54        55.12877
242.00        56.00106
242.46        57.46411
242.91        60.29041
243.37        66.06171
243.83         82.9677
244.28        138.2613
244.74        202.5925
245.20        169.1043
245.66        136.5539
246.11        125.1864
246.57        124.1272
247.03        131.6453
247.48          151.57
247.94        115.3645
248.40        87.01321
248.85        81.32297
249.31        81.43684
249.77        84.05364
250.22         88.9099
250.68         97.1964
251.14        108.3001
251.59        113.5662
252.05        105.7544
252.51        89.56219
252.96        74.04262
253.42         67.1877
253.88        67.90897
254.33         72.8677
254.79        79.92326
255.25        85.47102
255.70        88.15656
256.16        89.52827
256.62        88.78144
257.07        84.90532
257.53        79.02455
257.99        71.61024
258.44        64.79651
258.90        61.96302
259.35        62.04924
259.81         63.5211
260.27        64.09849
260.72        61.59313
261.18        56.78309
261.63        50.73388
262.09        45.14878
262.55        41.36463
263.00        39.37544
263.46         38.5581
263.91        38.06149
264.37        37.21235
264.83        35.82162
265.28        34.04425
265.74        32.34214
266.19        31.16894
266.65         30.6983
267.11        30.64605
267.56         30.6022
268.02         30.0573
268.47        28.92445
268.93        27.38034
269.38        25.72638
269.84        24.69432
270.30        24.46639
270.75          24.848
271.21        25.40583
271.66        25.49817
272.12        24.96239
272.57        23.99378
273.03        22.98101
273.48        22.43708
273.94        22.48092
274.39        22.88632
274.85        23.30953
275.31        23.25296
275.76        22.62251
276.22        21.63562
276.67        20.58256
277.13        19.95432
277.58         19.7995
278.04        19.96206
278.49        20.16352
278.95        20.06129
279.40        19.57386
279.86        18.88242
280.31        18.13658
280.77        17.64813
281.22        17.44768
281.68        17.44228
282.13        17.51271
282.59        17.51851
283.04        17.41866
283.50        17.28626
283.95        17.13188
284.41        16.97671
284.86        16.82771
285.32        16.67414
285.77        16.55618
286.22        16.59279
286.68        16.76912
287.13        17.03197
287.59        17.24829
288.04        17.21952
288.50        16.93763
288.95        16.46494
289.41        15.95677
289.86        15.55502
290.32        15.35146
290.77        15.29085
291.22        15.36825
291.68         15.5368
292.13        15.78402
292.59        16.12771
293.04        16.56244
293.50        17.07259
293.95        17.63943
294.40        18.23536
294.86        18.84373
295.31        19.45921
295.77        20.08632
296.22        20.73374
296.68        21.40204
297.13        22.05768
297.58        22.72209
298.04        23.43465
298.49        24.25148
298.95         25.2951
299.40        26.58272
299.85        28.07411
300.31        29.69907
300.76        31.34556
301.21        32.93732
301.67        34.50515
302.12        35.99864
302.58        37.42648
303.03        38.79044
303.48         40.1197
303.94         41.5283
304.39        43.14167
304.84        44.99398
305.30        47.04445
305.75        49.14403
306.20        51.07571
306.66        52.79662
307.11        54.31428
307.57        55.77154
308.02        57.29181
308.47        58.95391
308.93         60.7166
309.38        62.47566
309.83        64.11378
310.29        65.58394
310.74        66.89132
311.19        68.11688
311.65        69.38961
312.10        70.72793
312.55        72.10364
313.00        73.38022
313.46        74.33652
313.91        74.91677
314.36        75.21699
314.82        75.45699
315.27         75.9306
315.72        76.74417
316.18        77.81236
316.63        78.99046
317.08        79.99252
317.53        80.71921
317.99        81.23031
318.44        81.66103
318.89        82.24152
319.35        83.00507
319.80         83.8998
320.25        84.71679
320.70        85.12125
321.16        85.05402
321.61        84.63966
322.06        84.15126
322.51        84.01413
322.97        84.31174
323.42        84.95737
323.87        85.72608
324.32        86.22406
324.78        86.32713
325.23        86.19363
325.68        85.96981
326.13         85.9231
326.59        86.11326
327.04        86.47133
327.49        86.92581
327.94        87.39349
328.39        87.82988
328.85        88.25558
329.30        88.67066
329.75        88.91228
330.20        88.97961
330.66        88.89923
331.11        88.88751
331.56        89.22431
332.01        89.98531
332.46        91.07738
332.92        92.30072
333.37        93.45786
333.82        94.35152
334.27        95.03334
334.72        95.47044
335.17        95.64084
335.63        95.58262
336.08        95.34692
336.53        95.09308
336.98         95.1247
337.43        95.51637
337.88         96.1983
338.34        97.02392
338.79        97.82205
339.24         98.4781
339.69        99.06098
340.14        99.52383
340.59        99.79404
341.05         99.8838
341.50        99.78358
341.95        99.67689
342.40        99.86765
342.85        100.4112
343.30        101.2382
343.75        102.1052
344.20        102.5762
344.66        102.5522
345.11        102.1456
345.56        101.6207
346.01        101.3787
346.46        101.5163
346.91        101.9088
347.36        102.3607
347.81        102.5699
348.26        102.4688
348.72        102.1836
349.17        101.8449
349.62        101.7135
350.07        101.8477
350.52        102.1364
350.97        102.4572
351.42         102.637
351.87        102.6199
352.32        102.4659
352.77        102.1979
353.22        101.8481
353.67        101.4489
354.13        101.0102
354.58        100.5549
355.03        100.1816
355.48        99.90491
355.93         99.6999
356.38        99.51772
356.83        99.27134
357.28        98.92868
357.73        98.51042
358.18        98.01486
358.63         97.4442
359.08        96.81316
359.53        96.12629
359.98        95.42111
360.43        94.75789
360.88        94.14395
361.33        93.55738
361.78        92.97723
362.23        92.36545
362.68        91.71899
363.13        91.07257
363.58        90.40709
364.03        89.68573
364.48        88.91373
364.93        88.09548
365.38        87.32652
365.83        86.76579
366.28        86.42404
366.73        86.23225
367.18        86.04159
367.63        85.60995
368.08        84.89359
368.53        84.00253
368.98        83.03951
369.43        82.15341
369.88        81.40028
370.33        80.72593
370.78        80.18399
371.23         79.8669
371.68        79.76376
372.13        79.84381
372.58        79.93292
373.03        79.73132
373.48         79.1779
373.93          78.373
374.38        77.49233
374.83        76.80803
375.28        76.39112
375.72        76.14418
376.17        76.01431
376.62        75.88754
377.07        75.70296
377.52        75.47612
377.97        75.17991
378.42         74.7684
378.87        74.25102
379.32        73.66549
379.77        73.02679
380.22        72.35297
380.67        71.66104
381.11         70.9509
381.56        70.31918
382.01        69.92683
382.46        69.80488
382.91        69.91954
383.36        70.08383
383.81        69.99666
384.26        69.59217
384.71        68.94053
385.15        68.24339
385.60        67.87191
386.05        67.84433
386.50        68.03638
386.95        68.20067
387.40        67.93321
387.85        67.20038
388.29         66.1882
388.74        65.23352
389.19        64.54316
389.64        64.15233
390.09        63.93386
390.54        63.88908
390.98        64.02215
391.43        64.28278
391.88        64.64713
392.33        64.90203
392.78        64.69441
393.23        64.02861
393.67        63.12113
394.12        62.31918
394.57        61.71122
395.02        61.46803
395.47        61.93373
395.91        62.92328
396.36        63.56089
396.81        63.67922
397.26        63.64235
397.71        63.48832
398.15        63.09233
398.60         62.5882
399.05        62.03946
399.50        61.51654
399.95        60.92974
400.39        60.59555
400.84        60.33122
401.29        60.21622
401.74        60.33327
402.18         60.6033
402.63        60.64724
403.08        60.53422
403.53        60.65598
403.97        61.01498
404.42        61.36739
404.87        61.54963
405.32         61.3925
405.76         60.8665
406.21         60.1133
406.66         59.3656
407.11        58.94577
407.55        58.95824
408.00        59.31503
408.45        59.84989
408.90        60.25758
409.34        60.33829
409.79        59.96117
410.24        59.34577
410.68        59.03588
411.13        59.12013
411.58        59.31783
412.03        59.57578
412.47        59.91146
412.92        60.23134
413.37        60.55046
413.81        60.78878
414.26        60.86009
414.71        60.74024
415.15        60.44959
415.60        60.08328
416.05        59.81954
416.49        59.71768
416.94        59.75669
417.39        59.84211
417.83        59.79333
418.28        59.58639
418.73        59.28312
419.17        59.03579
419.62        59.09454
420.07        59.46872
420.51        60.06391
420.96        60.67419
421.41        60.92391
421.85         60.7099
422.30        60.33701
422.74        59.91582
423.19        59.48704
423.64        59.18704
424.08        59.47981
424.53        60.22635
424.98        60.72254
425.42        60.85915
425.87        61.13663
426.31        61.54388
426.76        61.53456
427.21        61.30059
427.65        61.68281
428.10        62.57382
428.54        63.26569
428.99        63.71406
429.44        63.90311
429.88        63.84162
430.33        64.43661
430.77        65.16782
431.22        63.95924
431.66        61.47081
432.11        60.69958
432.56        61.72359
433.00         62.7117
433.45        63.48963
433.89        64.91434
434.34        65.74621
434.78        67.32154
435.23        63.59935
435.67        61.58282
436.12        64.14169
436.57        65.38599
437.01        66.13084
437.46        66.60008
437.90        66.84507
438.35        66.17336
438.79        66.64521
439.24        66.53266
439.68         66.4811
440.13        66.22773
440.57        66.07963
441.02        67.07996
441.46        68.78218
441.91        69.60717
442.35        69.36049
442.80        68.50279
443.24        67.47229
443.69        68.04665
444.13        69.82221
444.58        69.86961
445.02        68.21585
445.47        67.97919
445.91        69.03849
446.36         69.3999
446.80        69.00225
447.24        68.88799
447.69        69.13809
448.13        69.44122
448.58         69.7997
449.02        70.23981
449.47        70.67439
449.91        70.97756
450.36        71.11681
450.80        71.10844
451.25         70.9988
451.69        70.83401
452.13        70.66814
452.58        70.50616
453.02        70.39153
453.47        70.42794
453.91        70.59838
454.36        70.87716
454.80        71.21463
455.24        71.30124
455.69        71.07988
456.13        71.02097
456.58        71.21342
457.02        70.17219
457.46        69.83889
457.91         70.0125
458.35        70.93546
458.79        71.27127
459.24        70.96592
459.68         70.6699
460.13        70.48717
460.57         70.2321
461.01        69.97704
461.46         69.7811
461.90        69.61687
462.34        69.67457
462.79        69.38037
463.23        69.73629
463.68        70.40685
464.12        70.79443
464.56        70.79587
465.01        70.72801
465.45        70.54842
465.89        70.41476
466.34         70.2102
466.78        69.47885
467.22        68.16301
467.67        67.74246
468.11        68.99261
468.55        69.65477
468.99        69.71466
469.44        69.41709
469.88        68.97913
470.32        69.09496
470.77        69.66865
471.21        69.80573
471.65        69.44928
472.10        69.26275
472.54        69.29269
472.98        69.28776
473.42        69.24405
473.87        69.36082
474.31        69.52369
474.75        69.34082
475.20        68.92786
475.64        68.83013
476.08        69.05764
476.52        69.09045
476.97        68.90109
477.41        68.94066
477.85        69.25652
478.29        68.97511
478.74         69.4023
479.18        69.52837
479.62         68.5896
480.06        69.10792
480.50          69.496
480.95        69.89561
481.39        69.94009
481.83        69.07674
482.27        69.34223
482.72        69.14444
483.16         67.9212
483.60        68.24589
484.04        69.75139
484.48        70.17001
484.93        69.95756
485.37        71.49121
485.81        71.77274
486.25        70.62378
486.69        94.11715
487.14        76.27637
487.58        48.15153
488.02        59.43699
488.46        67.49306
488.90        66.76804
489.34         68.6013
489.79        67.59421
490.23         70.0258
490.67         70.8071
491.11        69.64066
491.55        69.59071
491.99        70.23277
492.43        70.13557
492.88        69.36734
493.32        69.30732
493.76        69.48447
494.20        69.75529
494.64        69.87183
495.08        70.13322
495.52        70.51405
495.96         70.3989
496.41        69.86839
496.85        70.35546
497.29        71.51974
497.73        70.47496
498.17        68.22681
498.61        68.34582
499.05        70.84417
499.49         71.4141
499.93        71.51283
500.37        71.06789
500.82        70.10439
501.26        70.12391
501.70        70.84357
502.14        71.18274
502.58        70.93974
503.02        70.78381
503.46        70.70373
503.90        70.31422
504.34        69.77714
504.78        69.55156
505.22        69.70526
505.66        70.06039
506.10        70.46149
506.54        70.77531
506.98        70.86112
507.42        70.51439
507.86        69.94419
508.30        69.72288
508.74           69.93
509.18        70.30717
509.62        70.68852
510.06        70.88874
510.50        70.84393
510.94         70.6247
511.38        70.36995
511.82        70.28987
512.26        70.43641
512.70        70.73756
513.14        71.08342
513.58         71.2982
514.02        71.32613
514.46        71.22189
514.90        71.06538
515.34        70.96326
515.78        70.94006
516.22        71.02241
516.66        71.16093
517.10        71.11283
517.54        70.85806
517.98         71.0277
518.42        70.83592
518.86        70.95408
519.30        71.13935
519.74        71.42729
520.18        71.73265
520.62         71.9136
521.06        71.94415
521.50        71.86021
521.93        71.71828
522.37        71.61012
522.81        71.57258
523.25        71.58271
523.69        71.62505
524.13        71.67549
524.57         71.7251
525.01        71.78392
525.45        71.85448
525.89        71.93712
526.32        72.01914
526.76         72.0907
527.20        72.13248
527.64         72.1365
528.08        72.11962
528.52        72.03049
528.96        71.85682
529.40        71.78264
529.83        71.85532
530.27        71.29179
530.71        71.52702
531.15        71.47069
531.59        71.54673
532.03         71.6935
532.46         71.9048
532.90        72.13271
533.34        72.33699
533.78        72.52952
534.22        72.65392
534.66        72.63631
535.09        72.46419
535.53        72.18755
535.97        71.88789
536.41         71.7181
536.85        71.71758
537.28        71.84876
537.72        72.02562
538.16        72.11833
538.60        72.09128
539.04        71.92884
539.47        71.69884
539.91        71.69621
540.35        71.86449
540.79        71.86802
541.22        71.69859
541.66        71.63424
542.10        71.66986
542.54        71.63904
542.97         71.5657
543.41        71.59538
543.85        71.72128
544.29        71.91661
544.72        72.08482
545.16        72.08446
545.60        71.88042
546.04        71.58648
546.47        71.33511
546.91        71.18166
547.35        71.24506
547.79         71.8559
548.22        72.69686
548.66        72.95306
549.10        72.51284
549.53         71.6889
549.97        70.84894
550.41        70.44794
550.84        70.59983
551.28        71.14908
551.72        71.85464
552.15        72.26008
552.59        72.23428
553.03        72.16193
553.46        71.74352
553.90        71.59652
554.34         71.6556
554.77        71.75963
555.21         71.8414
555.65         72.0368
556.08        72.35614
556.52        71.89613
556.96        72.32239
557.39        72.20809
557.83        72.09395
558.27        71.98643
558.70        71.95079
559.14        72.02746
559.57        72.19236
560.01        72.44697
560.45         72.6804
560.88        72.75199
561.32        72.63958
561.75         72.2712
562.19        71.81865
562.63         71.4787
563.06        71.33758
563.50        71.48017
563.93        71.78734
564.37        72.00423
564.80         72.0386
565.24        71.98313
565.68        71.87571
566.11        71.80885
566.55        71.84633
566.98        71.88206
567.42        71.93217
567.85        72.09041
568.29        72.36873
568.72        72.44821
569.16        72.47659
569.60        72.81961
570.03        73.13195
570.47        72.88278
570.90        72.43329
571.34         70.4956
571.77        71.71337
572.21         71.6544
572.64        70.93568
573.08        70.57271
573.51        67.52538
573.95        70.07923
574.38        73.96673
574.82        72.23447
575.25        71.62141
575.69        69.65083
576.12        68.31031
576.56        67.63096
576.99        68.84607
577.42        72.44274
577.86        71.86709
578.29        71.25637
578.73        74.96259
579.16        69.07185
579.60        63.40819
580.03         66.4229
580.47        70.84705
580.90        72.24008
581.33        70.92834
581.77        70.27922
582.20        76.56443
582.64        76.20689
583.07        65.37403
583.51        64.28735
583.94        63.08043
584.37        66.19916
584.81        69.41959
585.24         73.1577
585.68        74.91158
586.11        73.34502
586.54         68.5414
586.98        66.25687
587.41        66.76123
587.85        70.60103
588.28        72.82347
588.71        69.47527
589.15        67.20303
589.58        68.88022
590.01        69.28141
590.45        70.46163
590.88        71.31152
591.31        70.49644
591.75        69.81956
592.18        70.06224
592.61        72.10673
593.05        72.35358
593.48        74.74023
593.91        75.62682
594.35        69.50178
594.78        68.10118
595.21        67.98032
595.65        70.97239
596.08        73.52298
596.51        70.82717
596.94        69.16585
597.38        69.85143
597.81        72.55069
598.24        74.34467
598.68        72.48297
599.11        71.45989
599.54        74.24265
599.97        75.52277
600.41        70.40874
600.84        70.55337
601.27        72.09673
601.70        71.14977
602.14        71.27103
602.57        70.26591
603.00        70.76379
603.43        72.40083
603.87        74.03236
604.30        73.63052
604.73        71.22609
605.16        69.97032
605.60        70.86317
606.03        72.08324
606.46        73.22258
606.89        72.62533
607.32        70.71684
607.76        70.64944
608.19        72.95172
608.62        72.12772
609.05        70.85527
609.48        71.42473
609.92        71.39746
610.35         70.6953
610.78        73.39075
611.21        73.54247
611.64        70.61477
612.07        71.31029
612.50        71.76958
612.94        72.22813
613.37        71.58274
613.80         71.9577
614.23        72.29971
614.66        72.29398
615.09        72.62157
615.52        72.64813
615.96        72.52507
616.39         72.5788
616.82         71.5808
617.25        71.50072
617.68        72.25564
618.11        72.76942
618.54        72.90725
618.97        72.47086
619.40        71.79018
619.84        71.72264
620.27        72.72744
620.70        73.26833
621.13        73.35931
621.56        72.78704
621.99        71.86408
622.42        72.71414
622.85        74.78918
623.28        74.31535
623.71        73.51029
624.14        73.64219
624.57        73.09218
625.00        72.98997
625.43        73.16488
625.86        72.72484
626.29        73.15608
626.72        73.51469
627.15        73.40208
627.58        73.47806
628.01        73.50199
628.44        73.57848
628.87        73.75229
629.30        73.84825
629.73        73.74901
630.16        74.48676
630.59        73.73715
631.02        73.50043
631.45        73.18841
631.88        72.96592
632.31        72.86079
632.74        72.87136
633.17        72.97527
633.60        73.06453
634.03        73.11296
634.46        73.14597
634.89        73.17439
635.32        73.21678
635.75        73.27586
636.18        73.33142
636.61        73.37363
637.04        73.39722
637.47        73.39873
637.89        73.39287
638.32          73.357
638.75        73.30083
639.18        73.22248
639.61        73.14867
640.04        73.08831
640.47        72.98462
640.90        72.83028
641.33         72.9058
641.76        72.71246
642.18        72.72879
642.61        72.81173
643.04        72.78849
643.47        72.60358
643.90        73.12264
644.33        72.83624
644.76        72.95809
645.18        73.03253
645.61        73.06791
646.04        73.04442
646.47        72.95466
646.90        72.87263
647.33        72.86337
647.75        72.96115
648.18        73.19538
648.61        73.39457
649.04        73.28415
649.47        72.84159
649.89        72.05408
650.32        71.31966
650.75        71.32803
651.18        72.05257
651.61        72.95839
652.03        73.60367
652.46        73.56576
652.89         73.1943
653.32        72.40403
653.74        71.62128
654.17        73.04239
654.60        73.92978
655.03        71.61592
655.46        72.13519
655.88        76.33578
656.31        80.81843
656.74        175.2119
657.16        113.8942
657.59        40.57223
658.02        31.15108
658.45        54.49289
658.87        70.55212
659.30        73.47414
659.73        72.66413
660.15        70.28912
660.58        72.79328
661.01        74.70589
661.44        72.38453
661.86        71.61395
662.29        71.58558
662.72        72.52166
663.14        74.09336
663.57        73.96851
664.00         72.4609
664.42        72.05122
664.85        72.83655
665.27        73.26489
665.70        73.13422
666.13        72.97691
666.55        72.77689
666.98        72.38242
667.41        71.94658
667.83        71.77433
668.26        71.92573
668.69         72.2757
669.11        72.62325
669.54        72.98834
669.96        72.62582
670.39        72.22317
670.82        71.76923
671.24        71.51981
671.67        71.62029
672.09        72.11831
672.52         72.7084
672.94        73.30493
673.37        72.61425
673.80          72.334
674.22        72.20438
674.65        72.09415
675.07        72.01382
675.50        71.90839
675.92         71.8245
676.35        71.89944
676.77        72.13695
677.20        72.42046
677.62        72.67928
678.05        72.80505
678.47        72.76054
678.90        72.58868
679.32        72.39546
679.75        72.21622
680.17        72.37107
680.60        72.58475
681.02        72.80672
681.45        72.79474
681.87        72.51878
682.30        72.05251
682.72         71.5826
683.15        71.42446
683.57        71.65438
684.00        72.07688
684.42        72.64949
684.85        72.93742
685.27        72.89449
685.70         72.6339
686.12        72.25475
686.54         72.0038
686.97        71.94173
687.39        71.92451
687.82        71.88857
688.24        72.21054
688.66        72.23788
689.09        72.34817
689.51        72.39243
689.94        72.49145
690.36        72.65141
690.78        72.79544
691.21        72.89498
691.63        72.93426
692.06         72.9131
692.48        72.84601
692.90        72.78115
693.33        72.77885
693.75        72.85693
694.17        73.00716
694.60        73.18758
695.02        73.32232
695.44        73.35303
695.87        73.42671
696.29        73.57139
696.71         73.3688
697.14        72.97747
697.56        73.40113
697.98        74.38824
698.41         74.1055
698.83        73.32877
699.25        72.81902
699.68         72.8701
700.10        72.82265
700.52         72.6928
700.94        72.85789
701.37         73.2345
701.79        73.57407
702.21        73.78352
702.64        73.94364
703.06         73.9978
703.48        73.84908
703.90        73.51559
704.33        73.02663
704.75        72.52409
705.17        72.32776
705.59        72.51204
706.01        72.87524
706.44         73.2327
706.86        73.91046
707.28        73.84681
707.70         73.8723
708.12        73.76833
708.55        73.65994
708.97        73.56114
709.39        73.44263
709.81        73.34839
710.23        73.34296
710.66        73.43733
711.08        73.65418
711.50        73.87245
711.92        73.90865
712.34        73.72999
712.76        73.37428
713.19         73.0097
713.61         72.9447
714.03        73.22493
714.45        73.75668
714.87         74.3042
715.29        74.49188
715.71        74.24079
716.13        73.67485
716.56        73.02153
716.98        72.68032
717.40        72.74912
717.82         73.1053
718.24        73.57417
718.66        73.85907
719.08        73.86974
719.50        73.70588
719.92        73.45576
720.34        73.27518
720.76        73.22063
721.19        73.11753
721.61        73.19191
722.03        73.30367
722.45        73.50212
722.87        73.77718
723.29        74.07346
723.71        74.28419
724.13         74.3743
724.55        74.36966
724.97        74.31604
725.39        74.24086
725.81        74.15851
726.23        74.16525
726.65        74.29002
727.07        74.00788
727.49        74.22512
727.91        74.22716
728.33        74.26964
728.75        74.30055
729.17        74.31523
729.59        74.30101
730.01        74.28046
730.43        74.30944
730.85        74.39883
731.27        74.56178
731.69        74.72557
732.10        74.74908
732.52        74.60705
732.94        74.38618
733.36        74.22783
733.78        74.21429
734.20        74.36988
734.62        74.98014
735.04        75.81654
735.46        75.75401
735.88        75.04832
736.30        75.39131
736.72         76.7076
737.13        77.26134
737.55        76.78993
737.97        76.66517
738.39        76.94234
738.81        76.27004
739.23        75.09089
739.65        75.88656
740.06        78.15095
740.48        78.38969
740.90         76.7066
741.32        75.99519
741.74         76.4991
742.16        76.74312
742.57         76.7672
742.99        77.39142
743.41        78.41257
743.83        79.03983
744.25        79.13751
744.67        78.90063
745.08        78.54783
745.50        78.43052
745.92        78.66226
746.34        79.12486
746.75        79.63776
747.17        79.89851
747.59        79.85433
748.01        79.59928
748.42        79.36823
748.84        79.51346
749.26        80.10944
749.68         81.0127
750.09        81.95417
750.51        82.49327
750.93        82.53396
751.35         82.1572
751.76        81.57827
752.18        81.33391
752.60        81.43702
753.01        81.40424
753.43        81.26903
753.85         81.4909
754.27        82.08636
754.68        82.84287
755.10        83.57426
755.52         84.1376
755.93        84.43475
756.35        84.42654
756.77        84.27681
757.18        84.17162
757.60        84.18339
758.02          84.589
758.43        84.96158
758.85        84.51875
759.26        82.55904
759.68        82.23705
760.10        84.20283
760.51         85.3658
760.93        84.23788
761.34         82.8073
761.76        82.29548
762.18        81.79931
762.59        81.84535
763.01        82.37646
763.42        83.30276
763.84        84.04908
764.26        84.47047
764.67        84.67233
765.09        84.62518
765.50        84.35183
765.92         83.8496
766.33        82.71476
766.75        81.40446
767.16        80.96451
767.58        81.57041
768.00        83.18171
768.41        85.36355
768.83        86.61268
769.24        86.47543
769.66        85.71898
770.07        84.77145
770.49        83.29317
770.90        81.77546
771.32        82.55114
771.73         84.9483
772.15        84.47503
772.56        81.61488
772.97         81.1246
773.39        82.89829
773.80        83.53002
774.22        82.78738
774.63        82.71323
775.05        83.27686
775.46        83.58272
775.88        83.53135
776.29        83.36886
776.70        83.17928
777.12        83.13551
777.53        83.28866
777.95         83.5203
778.36        83.69672
778.77        83.58662
779.19        83.20225
779.60        82.63496
780.02        82.09284
780.43        82.01708
780.84         82.5406
781.26        82.96021
781.67        83.25847
782.09        84.61051
782.50        86.33287
782.91        85.35344
783.33        82.43537
783.74        81.39539
784.15        82.43269
784.57        83.09064
784.98        83.06763
785.39        83.12433
785.81        83.18169
786.22        82.86561
786.63        82.44942
787.04        82.50025
787.46         83.0663
787.87        83.96163
788.28        84.88718
788.70        85.32973
789.11        85.16944
789.52        84.60072
789.93        83.88875
790.35        83.38909
790.76        83.21211
791.17        83.30598
791.58         83.5743
792.00        83.76687
792.41        83.79688
792.82        83.88111
793.23        83.97604
793.65        83.82466
794.06        83.58537
794.47        84.49611
794.88        85.89214
795.29        85.29527
795.71        83.00494
796.12        81.05471
796.53        80.05595
796.94        80.00379
797.35        80.87035
797.76        82.08238
798.18        83.10815
798.59        83.85538
799.00        84.03229
799.41        83.27737
799.82        82.02013
800.23        81.31004
800.64        81.35188
801.06        81.75718
801.47        82.38226
801.88        82.87315
802.29        83.08686
802.70        83.16935
803.11        83.15877
803.52        83.08388
803.93        82.98839
804.34        82.82133
804.75        82.65867
805.17        82.72096
805.58        83.07873
805.99        83.40403
806.40         83.5604
806.81        83.98355
807.22        84.29612
807.63        83.07453
808.04        80.89448
808.45        79.93637
808.86        80.40983
809.27        81.25491
809.68        82.07535
810.09         82.5815
810.50        82.56508
810.91        82.14102
811.32        81.53754
811.73         81.1244
812.14        81.01104
812.55        81.03735
812.96        81.19913
813.37        81.48571
813.78        81.84801
814.19        82.34879
814.60        82.72765
815.01        82.56762
815.42        81.82941
815.83         80.5948
816.24        79.36116
816.65        79.00784
817.05        79.78405
817.46         81.3989
817.87            83.2
818.28         84.0173
818.69        83.52742
819.10        82.02364
819.51        80.21968
819.92         79.3289
820.33        79.67874
820.74        80.90796
821.14        82.36204
821.55        82.87643
821.96        82.20277
822.37        80.75406
822.78        79.14066
823.19         78.2506
823.60        78.31692
824.00        79.10957
824.41        80.17288
824.82        80.84534
825.23         80.8577
825.64        80.44531
826.04        79.87216
826.45         79.5191
826.86        79.48875
827.27        79.61477
827.68        79.79722
828.08        79.92451
828.49        79.88377
828.90        79.80552
829.31        79.66838
829.72         79.4128
830.12        79.08893
830.53        78.68985
830.94        78.41988
831.35        78.55914
831.75        79.18269
832.16        80.15022
832.57         81.2375
832.97        81.95773
833.38        82.07757
833.79        81.73285
834.20        81.18411
834.60        80.83662
835.01        80.82584
835.42        81.02134
835.82        81.25777
836.23        81.17513
836.64        80.73139
837.04        80.07907
837.45        79.41702
837.86        79.05046
838.26        79.06406
838.67        79.31526
839.08        79.68799
839.48        79.96656
839.89         80.0366
840.29        79.99036
840.70        79.83685
841.11        79.56722
841.51        79.21733
841.92        78.75919
842.33        78.34734
842.73        78.25487
843.14          78.491
843.54        79.01995
843.95        79.57251
844.35        79.75899
844.76        79.47595
845.17        78.86948
845.57        78.17438
845.98        77.76357
846.38        77.72995
846.79        77.92257
847.19        78.25822
847.60          78.491
848.00        78.57265
848.41        78.57178
848.81        78.50111
849.22        78.29387
849.62        78.01561
850.03        77.66314
850.43        77.42651
850.84        77.56886
851.24        78.18773
851.65        79.02276
852.05         79.9842
852.46        80.73094
852.86        81.15237
853.27        81.38105
853.67        81.13515
854.07        80.11079
854.48        78.43487
854.88         76.2385
855.29        74.23711
855.69        73.45528
856.10        74.07157
856.50        76.00713
856.90        78.57472
857.31        80.14989
857.71        80.22056
858.12        79.14694
858.52        77.68513
858.92         76.8671
859.33        76.91969
859.73         77.5743
860.13         78.5831
860.54        79.41988
860.94        79.92818
861.34        80.22649
861.75        80.39418
862.15        80.64371
862.55        80.99171
862.96        81.33668
863.36        81.62099
863.76        81.72395
864.17        81.62701
864.57        81.44678
864.97        81.29559
865.38        81.32019
865.78        81.60029
866.18        82.01197
866.58        82.49511
866.99        82.93766
867.39        83.34045
867.79        83.74858
868.19        83.99701
868.60        83.77175
869.00        83.06578
869.40        81.99751
869.80        81.11131
870.21        81.24364
870.61        82.63809
871.01        85.00517
871.41        87.68093
871.81        89.50961
872.22        90.12679
872.62        89.84616
873.02        89.13159
873.42         88.8644
873.82        89.18151
874.22        89.61697
874.63        90.02505
875.03        90.25525
875.43        90.13615
875.83        90.30913
876.23        89.74826
876.63        89.84299
877.03        90.60971
877.44        92.31245
877.84        101.4944
878.24        97.38001
878.64        96.75485
879.04        95.45421
879.44        92.11681
879.84        90.53853
880.24        93.44436
880.64        95.51788
881.04        97.25349
881.44        98.18291
881.84        97.42953
882.24        95.45081
882.65        93.47869
883.05        92.87267
883.45        93.86878
883.85         96.2565
884.25        99.14757
884.65        100.7674
885.05        100.5666
885.45          99.174
885.85        97.51968
886.25        96.87873
886.65        97.52604
887.05        98.99681
887.45        100.8239
887.85        102.1801
888.25        102.7133
888.65        102.7231
889.04         102.291
889.44        101.5773
889.84        100.7057
890.24        99.61731
890.64         98.6043
891.04        98.13686
891.44        98.27659
891.84        98.93703
892.24        99.75116
892.64        100.0049
893.04        99.56747
893.44        98.75188
893.83        97.91135
894.23        97.58118
894.63        97.85475
895.03         98.4614
895.43        99.40591
895.83        100.6845
896.23        102.1403
896.63        103.7688
897.02        104.9428
897.42         104.643
897.82        102.8142
898.22        99.88359
898.62        96.91547
899.01        95.46967
899.41        95.88215
899.81        97.60802
900.21        99.92585
900.61        101.6379
901.00        102.3323
901.40        102.3797
901.80        101.9963
902.20        101.5267
902.59        101.1279
902.99        100.6224
903.39        100.1124
903.79         99.8248
904.18          99.814
904.58        100.1312
904.98        100.5918
905.38        100.8611
905.77        100.8417
906.17        100.6003
906.57        100.3303
906.96        100.3832
907.36        100.7471
907.76        101.3113
908.15        101.7751
908.55        101.5447
908.95        100.5652
909.34        99.00742
909.74        97.38875
910.14        96.32728
910.53        96.04199
910.93        96.44479
911.33        97.26814
911.72        98.02182
912.12        98.44205
912.52        98.58013
912.91        98.72731
913.31        99.31519
913.70        100.4649
914.10         102.089
914.49        103.6197
914.89        103.5705
915.29        101.5988
915.68        98.34048
916.08        95.30872
916.47        93.91268
916.87        94.28628
917.26         95.9722
917.66        98.03313
918.05        98.94344
918.45        98.27673
918.84        96.56365
919.24        94.68707
919.64        93.92277
920.03        94.61375
920.42        96.33237
920.82        98.42989
921.21        99.94563
921.61        100.3641
922.00        100.0298
922.40        99.24619
922.79        98.39647
923.19        97.67512
923.58        96.96674
923.98        96.20186
924.37        95.41352
924.77        94.83974
925.16         93.3931
925.55        93.60181
925.95        94.31749
926.34         96.2328
926.74        98.81377
927.13        101.2661
927.52        102.0845
927.92        101.0876
928.31        98.78567
928.70         95.9137
929.10        93.71323
929.49        92.55865
929.89        92.13698
930.28        92.49243
930.67        93.68785
931.07        95.43789
931.46        97.74982
931.85        99.83668
932.24        100.5189
932.64        99.60273
933.03        97.28584
933.42        94.15211
933.82        91.66151
934.21        90.35523
934.60        89.96057
934.99        90.10844
935.39        90.38517
935.78        90.71182
936.17        91.07019
936.56        91.17666
936.96        91.99466
937.35         90.8263
937.74        89.92721
938.13         89.2347
938.53        89.55079
938.92        90.89252
939.31        93.16471
939.70        95.72787
940.09         96.7718
940.49        95.68203
940.88        93.24245
941.27        90.60901
941.66        89.12654
942.05        88.99292
942.44        89.72739
942.84        91.02632
943.23        92.46485
943.62        93.68118
944.01        94.78882
944.40        95.53732
944.79        95.52387
945.18        94.66707
945.57        92.92628
945.97        90.64648
946.36        88.93336
946.75        88.37527
947.14         88.7121
947.53        89.48765
947.92        90.18296
948.31        90.71288
948.70         91.2612
949.09        91.82259
949.48        92.29934
949.87        92.59781
950.26        92.59826
950.65        92.40157
951.04        92.24231
951.43        92.16673
951.82        92.15339
952.21        91.97723
952.60        91.28071
952.99        90.04723
953.38        88.42798
953.77         86.8749
954.16        86.01418
954.55        85.96558
954.94        86.62439
955.33          87.449
955.72        87.51657
956.11        86.62399
956.50        84.99161
956.89        83.43759
957.28        83.45736
957.66        85.48123
958.05        88.77249
958.44         92.2179
958.83        94.18175
959.22        94.25975
959.61         92.8829
960.00        90.80354
960.39        89.25774
960.78        88.65735
961.16        88.72692
961.55        88.93769
961.94        88.41913
962.33         87.0162
962.72        85.15407
963.11         83.5068
963.49        82.90467
963.88        83.46722
964.27        84.98711
964.66        86.82829
965.04        87.66904
965.43        86.94669
965.82        85.16506
966.21        83.24615
966.60        82.36845
966.98        82.74657
967.37        83.99227
967.76        85.50565
968.15        86.14117
968.53         85.5508
968.92        84.11651
969.31        82.51549
969.69        81.61152
970.08        81.58916
970.47        82.20674
970.86        82.97366
971.24        83.04764
971.63        82.18053
972.02        80.63217
972.40        79.08281
972.79        78.69997
973.17        79.95095
973.56        82.39869
973.95        85.28401
974.33        87.10432
974.72        87.23664
975.11        86.09447
975.49        84.50065
975.88        83.64211
976.26        83.72874
976.65        84.50044
977.04        85.26128
977.42        84.46462
977.81        81.76334
978.19         77.9651
978.58        74.90151
978.96        74.33644
979.35        76.47295
979.74        80.92828
980.12        86.72155
980.51        90.37059
980.89         90.7235
981.28        88.69618
981.66        85.68906
982.05        83.53065
982.43        82.60677
982.82        82.30244
983.20        82.64244
983.59        83.79993
983.97        85.80145
984.35        88.82626
984.74        92.01646
985.12        93.60145
985.51        92.51836
985.89        89.06389
986.28        84.49895
986.66        81.00982
987.04        79.54346
987.43        79.57793
987.81        80.25563
988.20        80.52482
988.58        80.05534
988.96        78.89645
989.35        77.38327
989.73        77.28616
990.12        79.37375
990.50        82.85683
990.88        85.40083
991.27        85.37231
991.65        83.17115
992.03        79.31069
992.42        75.45764
992.80        74.45419
993.18        76.89242
993.56        80.94044
993.95        84.92843
994.33        87.44278
994.71        88.17615
995.10        88.00934
995.48        86.83851
995.86          84.259
996.24        80.30135
996.63        74.62671
997.01        68.73494
997.39        66.95393
997.77        71.06174
998.15        80.02492
998.54        89.66896
998.92        94.31526
999.30        92.34904
999.68        85.06319
1000.06        74.67548
1000.45         66.8351
1000.83        64.00654
1001.21        64.46142
1001.59        66.68937
1001.97        68.98595
1002.35        70.88251
1002.73        73.48948
1003.12        75.96563
1003.50        75.64561
1003.88        71.69716
1004.26        65.37155
1004.64        59.89838
1005.02        58.27854
1005.40        60.91336
1005.78        68.30122
1006.16        80.46951
1006.54        89.72955
1006.92        89.48963
1007.30         83.7393
1007.69        78.01218
1008.07        75.54816
1008.45        76.19584
1008.83         79.9648
1009.21        88.35073
1009.59        97.01684
1009.97        78.26322
1010.35        1.031886
1010.73       -37.30605
1011.11       -14.11335
1011.49        15.04143
1011.86        39.19446
1012.24        54.18894
1012.62          61.978
1013.00        65.66341
1013.38        67.28657
1013.76        68.87542
1014.14        74.96565
1014.52           88.65
1014.90        109.9508
1015.28        132.0043
1015.66        138.8241
1016.04        121.7079
1016.41        85.35692
1016.79        49.53382
1017.17         33.1762
1017.55        33.45874
1017.93        40.05199
1018.31        47.45524
1018.69        53.08677
1019.06        57.48426
1019.44        61.87881
1019.82        68.02921
1020.20        78.19905
1020.58        94.93913
1020.95          122.04
1021.33        170.1028
1021.71       -411.2626
1022.09        65.64285
1022.46        95.82458
1022.84         108.707
1023.22        120.9902
1023.60        146.2269
1023.97        377.5847
1024.35       -13.85338
1024.73        28.29496
