SpectraSmart Spectrum 2.9.0.0
--------- Device Information -----------
Spectrum Name :  反射率_0
Saving Time :  2024/04/26 01:53:51
Spectro-Module Model Name : SE2030-DUVN
Spectro-Module Serial Number : OS361AC55029948
Wavelength Start : 200
Wavelength End : 1025
Wavelength Unit : Wavelength(nm)
Spectrum Unit : Reflectance(%)
-----------Spectrum Setting ------------
Integration Time : 20ms
Average : 10
Boxcar : 0
Background removal :  enabled
linearity correction :  enabled
SC :  disabled
Intensity correction :  disabled
DWT denoise :  enabled
savitzky-golay :  disabled
FFT :  disabled
Running average :  disabled
Kalman :  disabled
High pass :  disabled
---------------BEGIN--------------------
Wavelength(nm)             Reflectance(%)
200.29               0
200.75        97.32678
201.21        91.27394
201.67        84.22568
202.13        80.45387
202.58        80.46416
203.04        83.52936
203.50        87.34671
203.96        88.03479
204.42        85.14072
204.88        80.45263
205.34        76.35329
205.80        75.17551
206.26        77.68761
206.72        85.63858
207.18        102.2667
207.64         116.724
208.10        106.4805
208.55        86.28872
209.01         73.7909
209.47        69.94595
209.93        71.20053
210.39        75.79763
210.85        81.28107
211.31        82.46129
211.77        77.78484
212.23        69.30933
212.69        61.21967
213.14        59.96468
213.60        66.41418
214.06        78.49124
214.52        91.72824
214.98         99.3367
215.44        99.60483
215.90        94.89794
216.36        88.04796
216.81        82.92032
217.27        80.92612
217.73        80.73645
218.19        80.85777
218.65        79.33345
219.11        75.30627
219.57        68.30703
220.02        59.22829
220.48        53.86455
220.94        55.14718
221.40        61.48456
221.86        66.79391
222.32        64.72984
222.77        56.42659
223.23        46.10178
223.69        37.50743
224.15        34.43039
224.61        36.37569
225.06        41.22884
225.52        46.56021
225.98        49.59301
226.44        49.60214
226.90        47.70293
227.36        44.89113
227.81        42.38383
228.27        40.89527
228.73        39.94814
229.19        39.41483
229.65        39.18272
230.10        39.19076
230.56        39.43161
231.02        40.02562
231.48        41.08743
231.93        42.49071
232.39        44.10188
232.85        45.46075
233.31        45.90218
233.77         45.2761
234.22        43.72715
234.68        41.69626
235.14        40.08077
235.60        39.29787
236.05        39.23269
236.51         39.5515
236.97        39.64046
237.43        39.37985
237.88        39.04866
238.34        39.03604
238.80        40.27228
239.26        43.10686
239.71        47.21226
240.17        51.79984
240.63        56.05704
241.08        59.60783
241.54        62.33437
242.00        64.48578
242.46        66.83652
242.91        70.50729
243.37        77.37677
243.83        95.94998
244.28        151.0231
244.74        204.5573
245.20        163.9705
245.66        131.7612
246.11        121.9213
246.57        123.4689
247.03        138.2202
247.48        181.8235
247.94        146.5379
248.40         96.4149
248.85        82.76447
249.31         79.8083
249.77        81.21858
250.22        85.65707
250.68        93.66875
251.14        105.3645
251.59        114.0378
252.05         112.206
252.51        102.5381
252.96        90.76055
253.42        82.69467
253.88        78.16126
254.33        75.41251
254.79        74.92294
255.25         76.8199
255.70        80.10317
256.16         84.1444
256.62        87.03102
257.07        86.81683
257.53        84.14817
257.99        79.63199
258.44        74.54306
258.90         71.3428
259.35        69.44176
259.81          68.234
260.27        66.48828
260.72        62.98755
261.18        58.33844
261.63        53.03001
262.09        48.26716
262.55        44.81536
263.00        42.64584
263.46        41.44048
263.91        40.51486
264.37        39.36526
264.83        37.81006
265.28        35.91325
265.74        34.12569
266.19        32.90361
266.65        32.40738
267.11        32.34662
267.56        32.27293
268.02        31.62297
268.47        30.30362
268.93        28.51906
269.38        26.58534
269.84        25.28024
270.30        24.81645
270.75        24.97879
271.21        25.38517
271.66         25.4649
272.12        25.04459
272.57        24.29614
273.03        23.46812
273.48        22.85891
273.94        22.56631
274.39        22.44542
274.85        22.33296
275.31        22.00046
275.76        21.40436
276.22        20.66747
276.67        19.93448
277.13        19.48084
277.58         19.3076
278.04        19.33073
278.49        19.36699
278.95        19.20038
279.40        18.77493
279.86        18.22326
280.31         17.6229
280.77        17.18497
281.22        16.92306
281.68           16.78
282.13        16.71786
282.59        16.70473
283.04        16.71528
283.50          16.788
283.95        16.84145
284.41        16.75563
284.86        16.52131
285.32        16.18472
285.77        15.90031
286.22        15.95605
286.68        16.36243
287.13        16.99536
287.59        17.61686
288.04        17.87552
288.50         17.7232
288.95        17.27049
289.41        16.72798
289.86        16.31631
290.32        16.15652
290.77        16.17506
291.22        16.34976
291.68        16.60945
292.13        16.94057
292.59        17.37769
293.04        17.94745
293.50        18.67825
293.95        19.55045
294.40         20.5107
294.86        21.49257
295.31          22.417
295.77        23.27447
296.22        24.09916
296.68        24.92216
297.13        25.76069
297.58        26.65019
298.04        27.60588
298.49        28.68279
298.95        30.00988
299.40        31.59163
299.85        33.38098
300.31        35.26349
300.76        37.05146
301.21        38.66113
301.67         40.1622
302.12        41.54992
302.58        42.91215
303.03         44.2697
303.48        45.63025
303.94        47.10928
304.39        48.82859
304.84        50.80644
305.30        52.99346
305.75        55.19109
306.20        57.10957
306.66        58.69952
307.11         59.9963
307.57        61.19059
308.02        62.46862
308.47        63.93533
308.93        65.53411
309.38        67.16795
309.83        68.73247
310.29        70.17589
310.74        71.50019
311.19        72.75037
311.65        73.99249
312.10        75.23702
312.55        76.48186
313.00        77.62856
313.46        78.52435
313.91        79.13034
314.36        79.50769
314.82        79.86952
315.27        80.49941
315.72        81.48544
316.18        82.73936
316.63         84.0536
317.08        85.03894
317.53        85.58334
317.99        85.78302
318.44        85.87015
318.89        86.22937
319.35        86.93668
319.80        87.90805
320.25        88.87045
320.70        89.37186
321.16        89.31574
321.61        88.86067
322.06        88.32246
322.51        88.19286
322.97        88.56837
323.42        89.33284
323.87        90.22086
324.32        90.77735
324.78        90.85908
325.23        90.64818
325.68        90.32398
326.13        90.20611
326.59        90.37267
327.04        90.74599
327.49        91.23518
327.94         91.7264
328.39        92.16272
328.85        92.56567
329.30        92.95887
329.75        93.21084
330.20        93.32515
330.66        93.31976
331.11        93.36324
331.56        93.65658
332.01        94.26582
332.46        95.12404
332.92        96.11218
333.37        97.18852
333.82        98.19968
334.27        99.15579
334.72        99.93919
335.17        100.3765
335.63        100.4488
336.08        100.2448
336.53        99.95887
336.98        99.95766
337.43        100.3432
337.88        101.0266
338.34        101.8619
338.79        102.6879
339.24        103.3895
339.69        104.0392
340.14        104.5884
340.59        104.9522
341.05        105.1313
341.50        105.1082
341.95        105.0475
342.40        105.2308
342.85        105.7133
343.30        106.4359
343.75        107.1795
344.20        107.5522
344.66        107.4782
345.11          107.07
345.56        106.5848
346.01        106.4081
346.46        106.6317
346.91         107.132
347.36        107.7203
347.81        108.1075
348.26        108.2168
348.72        108.1528
349.17        108.0154
349.62        108.0159
350.07        108.2012
350.52        108.4836
350.97        108.7537
351.42         108.859
351.87        108.7632
352.32        108.5261
352.77         108.216
353.22        107.9354
353.67        107.7173
354.13        107.5405
354.58        107.3487
355.03        107.1158
355.48        106.8248
355.93        106.4887
356.38         106.109
356.83        105.6835
357.28        105.2141
357.73        104.7023
358.18        104.1495
358.63        103.5604
359.08        102.9466
359.53        102.3205
359.98        101.6983
360.43        101.1007
360.88        100.5259
361.33        99.95612
361.78        99.39202
362.23        98.83574
362.68        98.28805
363.13        97.76317
363.58        97.21431
364.03         96.5631
364.48        95.80562
364.93        94.96413
365.38        94.14687
365.83        93.53327
366.28        93.14396
366.73        92.90054
367.18        92.66975
367.63        92.23556
368.08        91.55293
368.53        90.72457
368.98        89.81264
369.43        88.89986
369.88        88.03435
370.33        87.18894
370.78        86.46494
371.23        86.03491
371.68        85.91473
372.13        86.05106
372.58        86.25155
373.03        86.18233
373.48        85.75789
373.93        85.07829
374.38        84.29993
374.83        83.66768
375.28        83.24987
375.72        82.95745
376.17        82.75072
376.62        82.54353
377.07        82.29056
377.52        82.00604
377.97         81.6799
378.42         81.2888
378.87        80.83939
379.32        80.35707
379.77        79.82299
380.22        79.20716
380.67        78.51279
381.11        77.74714
381.56        77.02698
382.01          76.548
382.46        76.35856
382.91        76.42963
383.36        76.55576
383.81        76.40496
384.26        75.91279
384.71        75.16001
385.15        74.40347
385.60        74.10212
386.05        74.27338
386.50        74.75555
386.95        75.20036
387.40        75.03133
387.85        74.18317
388.29        72.91367
388.74        71.67384
389.19        70.78769
389.64        70.31959
390.09        70.10782
390.54        70.13512
390.98        70.37239
391.43         70.7429
391.88        71.22176
392.33        71.58314
392.78        71.43885
393.23        70.78351
393.67        69.87733
394.12        69.06128
394.57        68.30199
395.02         67.8237
395.47        68.20036
395.91        69.24576
396.36        69.86874
396.81        69.89561
397.26        69.82355
397.71        69.70155
398.15        69.33047
398.60         68.8369
399.05         68.3499
399.50        67.91032
399.95        67.22768
400.39         66.7018
400.84        66.48031
401.29        66.60124
401.74        66.66692
402.18        66.62933
402.63        66.58897
403.08        66.61595
403.53        66.77056
403.97        67.04275
404.42        67.35419
404.87        67.57001
405.32        67.44689
405.76        66.93949
406.21        66.32359
406.66        65.75728
407.11        65.17383
407.55         64.8014
408.00        65.23058
408.45        66.23273
408.90        66.74626
409.34        66.51118
409.79         65.8347
410.24        65.03196
410.68        64.60336
411.13         64.6597
411.58        64.92216
412.03        65.29482
412.47        65.71774
412.92        66.06853
413.37        66.39098
413.81        66.61208
414.26        66.66564
414.71        66.53465
415.15        66.21479
415.60        65.84082
416.05        65.66251
416.49        65.73944
416.94        66.02811
417.39        66.33098
417.83        66.28783
418.28        65.85197
418.73         65.1683
419.17        64.52164
419.62        64.35719
420.07        64.72499
420.51         65.4654
420.96        66.32798
421.41        66.81936
421.85        66.77105
422.30        66.61395
422.74         66.3917
423.19        65.83416
423.64        65.18723
424.08        65.45902
424.53        66.47114
424.98        66.97451
425.42        66.83253
425.87        66.87496
426.31        67.16099
426.76        67.10224
427.21        66.90447
427.65        67.38898
428.10        68.39635
428.54        69.20934
428.99        69.74342
429.44        69.86934
429.88        69.69256
430.33        70.34405
430.77        71.23754
431.22        70.23624
431.66        67.84027
432.11        66.57161
432.56        66.72947
433.00        67.44747
433.45        68.63028
433.89        70.51887
434.34        71.67105
434.78        73.00489
435.23        69.33029
435.67        67.10218
436.12        69.77585
436.57        71.07332
437.01        71.93803
437.46        72.28029
437.90        72.21502
438.35        72.23978
438.79        72.34251
439.24        72.26511
439.68        72.05084
440.13         71.5879
440.57        71.25679
441.02        72.22208
441.46        74.03756
441.91        75.02528
442.35        74.90128
442.80        73.95293
443.24        72.67972
443.69        73.24715
444.13        75.25066
444.58         75.2765
445.02         73.5573
445.47        73.37363
445.91         74.6265
446.36        75.06092
446.80        74.59805
447.24        74.40091
447.69        74.56549
448.13         74.7743
448.58        75.04356
449.02        75.39489
449.47         75.7692
449.91        76.08724
450.36        76.31959
450.80         76.4672
451.25        76.51267
451.69        76.40346
452.13        76.17084
452.58         75.8381
453.02        75.52772
453.47        75.47014
453.91        75.67281
454.36        76.10296
454.80        76.60352
455.24        76.69495
455.69         76.2942
456.13        76.05153
456.58        75.54785
457.02        74.86711
457.46        74.77682
457.91        74.97562
458.35        75.49711
458.79        75.73817
459.24        75.66307
459.68        75.48602
460.13        75.28136
460.57        75.03813
461.01        74.83997
461.46        74.39034
461.90        74.26733
462.34        74.11272
462.79        73.96604
463.23        74.04403
463.68        74.26857
464.12        74.52383
464.56        74.74528
465.01         74.9986
465.45        75.07968
465.89        75.01868
466.34        74.71339
466.78        73.62891
467.22        72.33738
467.67        71.69395
468.11        72.85796
468.55         73.6576
468.99        74.02337
469.44        73.77821
469.88        73.10943
470.32        72.96718
470.77        73.32177
471.21         73.2821
471.65        72.82671
472.10        72.62952
472.54        72.71916
472.98        72.78967
473.42        72.81483
473.87        73.04638
474.31        73.33371
474.75        73.13953
475.20        72.61348
475.64        72.50834
476.08        72.83099
476.52        72.85245
476.97        72.53024
477.41        72.54218
477.85        72.93674
478.29        72.43846
478.74        72.63333
479.18         72.9637
479.62        72.01208
480.06        72.74162
480.50        73.02503
480.95        73.40316
481.39        73.42583
481.83        72.46838
482.27        72.63742
482.72        72.40716
483.16         71.1003
483.60        71.29285
484.04        72.63184
484.48        72.99027
484.93        72.96487
485.37        73.87387
485.81         74.7598
486.25        73.83355
486.69        99.78037
487.14        81.23013
487.58        50.35583
488.02         61.9313
488.46        70.34386
488.90        69.88378
489.34        71.34019
489.79         70.7861
490.23        72.76668
490.67        73.76118
491.11        72.82967
491.55        72.66714
491.99        72.89087
492.43        72.58047
492.88        71.88944
493.32        71.96425
493.76        72.22891
494.20        72.54392
494.64        72.63654
495.08        72.67782
495.52        72.77476
495.96        72.83871
496.41        72.80547
496.85        73.33178
497.29        74.10432
497.73        72.78585
498.17        70.49937
498.61        70.80159
499.05        73.62627
499.49        74.21445
499.93        74.09132
500.37        73.55785
500.82        72.66115
501.26        72.70554
501.70        73.40988
502.14        73.81596
502.58        73.71291
503.02        73.63039
503.46        73.54934
503.90        73.12217
504.34        72.53867
504.78        72.28724
505.22        72.43897
505.66         72.8364
506.10         73.3231
506.54        73.59874
506.98        73.54213
507.42        73.31705
507.86        73.09721
508.30        72.48972
508.74        72.71516
509.18        72.73559
509.62        72.83463
510.06        72.91772
510.50        72.96321
510.94        72.98919
511.38        73.01052
511.82        73.07017
512.26        73.17204
512.70        73.29642
513.14        73.41165
513.58        73.47523
514.02        73.47295
514.46        73.41193
514.90        73.33355
515.34        73.28938
515.78        73.28251
516.22        73.35637
516.66        73.46203
517.10        73.36457
517.54        73.04996
517.98        73.10816
518.42        72.83126
518.86        72.87583
519.30        73.02466
519.74        73.30162
520.18        73.62333
520.62        73.84858
521.06        73.94424
521.50         73.9435
521.93        73.87777
522.37        73.79862
522.81        73.73491
523.25          73.674
523.69          73.631
524.13        73.63002
524.57        73.67577
525.01        73.76846
525.45        73.88605
525.89         73.9893
526.32        74.05245
526.76        74.07085
527.20        74.05377
527.64        74.03791
528.08        74.04671
528.52        74.01546
528.96        73.87896
529.40        73.74532
529.83         73.6563
530.27        72.84514
530.71        72.86122
531.15        72.71258
531.59        72.85802
532.03        73.19752
532.46        73.65072
532.90        74.04405
533.34        74.29663
533.78        74.45174
534.22        74.50415
534.66        74.46044
535.09        74.32587
535.53        74.12165
535.97        73.88658
536.41        73.71064
536.85        73.62276
537.28        73.61495
537.72        73.64715
538.16        73.65984
538.60        73.63548
539.04         73.5324
539.47        73.38544
539.91        73.44457
540.35        73.63707
540.79        73.63692
541.22        73.44655
541.66        73.36622
542.10        73.39898
542.54        73.36882
542.97        73.30306
543.41        73.35778
543.85        73.52126
544.29        73.75849
544.72        73.96629
545.16        73.97953
545.60        73.75491
546.04         73.4531
546.47        73.18989
546.91        72.90166
547.35        72.75522
547.79        73.30385
548.22        74.21996
548.66        74.47625
549.10        73.96301
549.53        73.14719
549.97        72.37882
550.41        72.00061
550.84        72.11866
551.28        72.61629
551.72        73.28581
552.15        73.70921
552.59         73.7608
553.03        73.83507
553.46        73.52613
553.90        73.42244
554.34        73.42543
554.77        73.39566
555.21         73.3157
555.65        73.38375
556.08        73.63078
556.52        73.19666
556.96        73.72729
557.39        73.51935
557.83        73.19531
558.27        73.17162
558.70        73.46629
559.14        73.70043
559.57        73.81801
560.01        74.05206
560.45        74.31758
560.88        74.37334
561.32        74.21609
561.75        73.90437
562.19         73.5553
562.63        73.11903
563.06        72.72931
563.50        72.77619
563.93        73.15758
564.37        73.40888
564.80        73.44182
565.24        73.49763
565.68        73.56488
566.11        73.57612
566.55        73.58366
566.98        73.52911
567.42        73.44741
567.85        73.55611
568.29        73.89565
568.72        73.92694
569.16        73.78371
569.60        74.60371
570.03        74.78952
570.47        74.76172
570.90        74.52644
571.34        72.58501
571.77         73.7933
572.21        73.70675
572.64        73.53771
573.08         72.1893
573.51        69.32053
573.95        71.92271
574.38        76.33991
574.82        74.33816
575.25         73.5959
575.69         71.6408
576.12        70.12462
576.56        69.53947
576.99        71.10498
577.42        74.64458
577.86        74.35617
578.29        73.24821
578.73        77.63972
579.16         71.6579
579.60        65.30247
580.03        68.17334
580.47        72.76318
580.90        74.49767
581.33        73.38121
581.77        72.20803
582.20         79.2611
582.64         79.0257
583.07        67.54303
583.51        66.27728
583.94        64.91396
584.37        67.78339
584.81        71.37054
585.24        75.11995
585.68        76.64027
586.11         75.6105
586.54        70.21321
586.98        68.11892
587.41        68.48788
587.85        72.19803
588.28        75.07487
588.71         71.1733
589.15        69.07772
589.58        70.39044
590.01        70.77912
590.45        71.86394
590.88        72.81942
591.31        72.16216
591.75        71.71879
592.18        71.74486
592.61        73.17178
593.05        73.83196
593.48        76.72793
593.91        77.17909
594.35        71.65974
594.78        70.16302
595.21        69.43257
595.65        72.42671
596.08        75.45615
596.51        72.33718
596.94        70.48113
597.38        71.16141
597.81        74.04954
598.24        75.76782
598.68        74.31249
599.11        73.09429
599.54        75.87211
599.97        77.39349
600.41         72.1038
600.84        72.32305
601.27        73.93135
601.70        72.49189
602.14        72.80692
602.57        71.62709
603.00        71.97367
603.43        74.06009
603.87        75.44763
604.30        75.19566
604.73        73.28083
605.16        71.31847
605.60        72.23167
606.03        73.27209
606.46        74.48844
606.89        74.20922
607.32          71.863
607.76        71.49237
608.19        74.04747
608.62         73.2907
609.05        71.98335
609.48        72.56612
609.92        72.45421
610.35        72.28809
610.78        74.69048
611.21        74.93305
611.64        71.90854
612.07        72.58221
612.50        72.98026
612.94        73.39212
613.37        72.72744
613.80        72.93755
614.23        73.35365
614.66        73.25727
615.09        73.51513
615.52        73.56441
615.96        73.48442
616.39        73.62678
616.82        72.79035
617.25        71.98445
617.68        72.92486
618.11        73.54574
618.54        74.07723
618.97        73.62146
619.40        72.67149
619.84        72.06921
620.27        73.51949
620.70        74.16229
621.13        74.33881
621.56          73.432
621.99        72.71487
622.42        73.39468
622.85        75.24294
623.28        74.95432
623.71        74.03397
624.14        74.46723
624.57        74.02115
625.00        73.70625
625.43        74.05964
625.86        73.41315
626.29        73.55355
626.72        73.98869
627.15        73.75864
627.58         73.9621
628.01        74.10571
628.44        74.33936
628.87        74.09821
629.30        74.28637
629.73        74.69561
630.16        74.89131
630.59        74.70797
631.02        74.32526
631.45        73.85453
631.88        73.54315
632.31        73.44084
632.74        73.46365
633.17        73.54863
633.60        73.52087
634.03        73.40662
634.46        73.50159
634.89        73.75256
635.32        73.82885
635.75        73.71085
636.18        73.55609
636.61        73.45332
637.04        73.49212
637.47         73.6861
637.89        73.98622
638.32        74.26246
638.75          74.375
639.18        74.28075
639.61        74.02393
640.04        73.69312
640.47         73.4365
640.90        73.30559
641.33        73.25549
641.76        73.24567
642.18        73.31511
642.61        73.44305
643.04        73.45671
643.47        73.30486
643.90        73.85345
644.33        73.57259
644.76        73.69247
645.18        73.73749
645.61        73.69879
646.04        73.56137
646.47        73.32664
646.90        73.11822
647.33         73.0812
647.75        73.26141
648.18        73.65681
648.61        74.03189
649.04        74.02227
649.47        73.59102
649.89        72.71367
650.32        71.82215
650.75        71.81584
651.18        72.63005
651.61        73.30309
652.03        73.50443
652.46        73.52729
652.89        73.67074
653.32        73.09121
653.74        72.13786
654.17        73.61855
654.60        74.15035
655.03        71.58288
655.46        72.86765
655.88        77.22955
656.31        81.87479
656.74        184.4044
657.16        119.9221
657.59        42.45167
658.02        31.93179
658.45        55.12645
658.87        70.61226
659.30        73.88671
659.73        73.56777
660.15        70.29256
660.58        72.93495
661.01        74.59496
661.44        72.41861
661.86        71.70491
662.29        71.64921
662.72        72.64987
663.14        74.34705
663.57        74.32917
664.00        72.88457
664.42        72.52791
664.85        73.35303
665.27          73.773
665.70        73.60396
666.13        73.43366
666.55        73.25317
666.98        72.88951
667.41        72.48316
667.83        72.32032
668.26        72.45798
668.69        72.78674
669.11        73.10886
669.54        73.43793
669.96        73.02473
670.39        72.56612
670.82        72.09628
671.24        71.78169
671.67        72.11478
672.09        72.64825
672.52        73.17219
672.94        73.68217
673.37        72.90564
673.80        72.56194
674.22        72.40043
674.65        72.26704
675.07        72.17834
675.50        72.12737
675.92        72.12492
676.35        72.21974
676.77        72.40175
677.20          72.576
677.62        72.72836
678.05        72.83524
678.47         72.8736
678.90        72.86952
679.32        72.85274
679.75        72.66718
680.17         72.7293
680.60         72.7167
681.02        72.69753
681.45        72.55836
681.87        72.30694
682.30        71.97894
682.72        71.70132
683.15        71.68961
683.57        71.98978
684.00        72.44345
684.42        73.02375
684.85        73.32169
685.27        73.29966
685.70        73.05468
686.12         72.7048
686.54        72.49563
686.97        72.48544
687.39         72.5898
687.82        72.71813
688.24        72.86482
688.66        72.98744
689.09        72.78841
689.51        72.86002
689.94        72.83595
690.36        72.90099
690.78        72.99921
691.21        73.09568
691.63        73.14117
692.06        73.12107
692.48        73.06892
692.90        73.02345
693.33         73.0173
693.75         73.0612
694.17        73.18022
694.60        73.34711
695.02        73.42009
695.44        73.38059
695.87        73.59151
696.29        74.00847
696.71        73.83302
697.14        73.24129
697.56        73.59047
697.98        74.64458
698.41        74.35704
698.83        73.51279
699.25        72.99298
699.68        73.08639
700.10        73.06648
700.52        72.94351
700.94         73.1156
701.37        73.50331
701.79        73.86398
702.21        74.10455
702.64        74.29603
703.06        74.38034
703.48        74.26161
703.90        73.95758
704.33        73.50079
704.75        73.02254
705.17        72.82707
705.59        72.98737
706.01         73.3015
706.44        73.61405
706.86        74.30382
707.28        74.30911
707.70        74.44708
708.12        74.44612
708.55        74.35355
708.97        74.17252
709.39         73.9031
709.81          73.642
710.23        73.54575
710.66        73.65336
711.08        73.95602
711.50        74.30195
711.92        74.45808
712.34        74.36996
712.76        74.09017
713.19        73.77262
713.61        73.70248
714.03        73.92683
714.45        74.35642
714.87        74.79387
715.29        74.92924
715.71        74.69728
716.13        74.20444
716.56        73.64284
716.98        73.34969
717.40        73.40687
717.82        73.71513
718.24        74.11879
718.66        74.35375
719.08        74.34318
719.50        74.17095
719.92        73.93427
720.34        73.80534
720.76        73.83575
721.19        73.84463
721.61        74.02031
722.03        74.15347
722.45        74.28163
722.87        74.41565
723.29        74.54755
723.71        74.65339
724.13        74.72231
724.55        74.74892
724.97        74.74014
725.39        74.71587
725.81        74.68497
726.23        74.65238
726.65        74.61241
727.07        74.55103
727.49        74.47444
727.91        74.39655
728.33        74.34871
728.75        74.38062
729.17        74.49541
729.59        74.66552
730.01        74.85835
730.43        75.01315
730.85        75.11647
731.27        75.21411
731.69        75.28194
732.10        75.26091
732.52         75.1489
732.94        75.00228
733.36        74.93858
733.78        75.00059
734.20        75.19598
734.62        75.83071
735.04        76.66868
735.46        76.55837
735.88        75.76315
736.30        76.00065
736.72        77.21838
737.13        77.69682
737.55          77.192
737.97        77.12292
738.39        77.50417
738.81        76.83225
739.23        75.55152
739.65        76.29378
740.06        78.54729
740.48        78.70259
740.90        76.87195
741.32        76.01443
741.74        76.40935
742.16        76.62162
742.57        76.70369
742.99        77.46356
743.41        78.64298
743.83        79.35451
744.25        79.43668
744.67        79.11031
745.08          78.641
745.50        78.46198
745.92        78.70967
746.34        79.23628
746.75        79.83498
747.17        80.16245
747.59        80.15032
748.01        79.90878
748.42         79.6719
748.84        79.78855
749.26        80.33875
749.68        81.17679
750.09        82.05318
750.51        82.57079
750.93        82.63545
751.35        82.29675
751.76        81.75635
752.18        81.54388
752.60        81.66417
753.01         81.6322
753.43        81.47137
753.85        81.63309
754.27        82.13766
754.68        82.77355
755.10        83.39451
755.52        83.92632
755.93        84.27989
756.35        84.39463
756.77        84.40948
757.18         84.3993
757.60        84.39825
758.02        84.84779
758.43        85.41384
758.85         84.6034
759.26        82.91525
759.68        82.64095
760.10        83.72896
760.51        84.43901
760.93        84.31288
761.34        83.69913
761.76        82.87997
762.18         82.1815
762.59        81.90128
763.01        82.30903
763.42        83.34497
763.84        84.07905
764.26        84.38538
764.67        84.71712
765.09        84.95712
765.50        84.77435
765.92        84.16066
766.33        82.83601
766.75         81.3344
767.16        80.89615
767.58        81.65017
768.00        83.19495
768.41        85.10453
768.83        86.22927
769.24        86.16175
769.66        85.52605
770.07        84.69022
770.49        83.23581
770.90        81.65987
771.32        82.40308
771.73        84.80959
772.15        84.33665
772.56        81.47046
772.97        80.99224
773.39        82.80013
773.80        83.47478
774.22        82.77698
774.63        82.76118
775.05        83.36012
775.46        83.61315
775.88        83.41785
776.29        83.04445
776.70        82.66038
777.12        82.57058
777.53        82.85419
777.95        83.35433
778.36        83.84448
778.77        83.93449
779.19        83.57874
779.60        82.90482
780.02        82.19687
780.43        81.97351
780.84        82.39464
781.26        82.86148
781.67        83.28308
782.09        84.42108
782.50        85.71028
782.91        84.76669
783.33        82.31329
783.74        81.54485
784.15        82.63008
784.57        83.47192
784.98        83.70135
785.39        83.78861
785.81        83.63551
786.22        82.96037
786.63        82.17964
787.04        82.06845
787.46        82.71322
787.87        83.86171
788.28        85.10404
788.70        85.71834
789.11        85.52571
789.52        84.84669
789.93        84.01105
790.35        83.33428
790.76        83.01991
791.17        83.28191
791.58        83.93591
792.00        84.28729
792.41        84.18841
792.82        84.09268
793.23        84.13197
793.65        83.73282
794.06        83.23943
794.47         84.2681
794.88        85.98826
795.29        85.79328
795.71        83.04229
796.12        80.81715
796.53        79.57915
796.94        79.41221
797.35        80.33566
797.76        81.77578
798.18        83.09229
798.59        83.97092
799.00        84.06492
799.41         83.0751
799.82        81.54874
800.23        80.71816
800.64        80.83002
801.06        81.42996
801.47        82.28926
801.88        82.91339
802.29        83.11008
802.70        83.07346
803.11        82.88371
803.52        82.63582
803.93         82.4104
804.34        82.14291
804.75         81.9174
805.17        81.98531
805.58        82.41953
805.99        82.83829
806.40        83.10038
806.81        83.74081
807.22        84.30824
807.63        83.11486
808.04        80.76839
808.45        79.72953
808.86        80.23063
809.27        81.05547
809.68        81.81686
810.09        82.32057
810.50        82.36509
810.91        82.04029
811.32        81.54288
811.73        81.18858
812.14        81.07162
812.55        81.04836
812.96        81.13168
813.37        81.34373
813.78        81.65314
814.19        82.11585
814.60        82.47424
815.01        82.31516
815.42        81.59457
815.83        80.39102
816.24        79.19053
816.65        78.84972
817.05        79.61098
817.46        81.19299
817.87        82.94112
818.28         83.6834
818.69        83.10567
819.10        81.50735
819.51        79.63924
819.92        78.77348
820.33        79.24706
820.74        80.67861
821.14        82.36499
821.55        83.05786
821.96        82.48035
822.37        81.06332
822.78         79.4434
823.19        78.55499
823.60        78.64627
824.00        79.47218
824.41         80.5705
824.82         81.2679
825.23         81.2921
825.64        80.89341
826.04        80.33216
826.45         79.9802
826.86         79.9394
827.27        80.03658
827.68        80.19734
828.08         80.3561
828.49        80.40401
828.90         80.4602
829.31        80.43604
829.72        80.15318
830.12        79.64069
830.53        78.93934
830.94         78.3535
831.35        78.30073
831.75         78.8863
832.16        79.93584
832.57        81.16596
832.97        81.97632
833.38        82.09087
833.79        81.67615
834.20        81.04118
834.60         80.6634
835.01        80.69688
835.42        80.99016
835.82        81.33404
836.23         81.2974
836.64        80.82566
837.04        80.10085
837.45        79.38739
837.86        79.09077
838.26        79.31696
838.67        79.88743
839.08        80.61304
839.48        81.15083
839.89        81.33083
840.29         81.2639
840.70        81.00792
841.11         80.6314
841.51        80.19929
841.92        79.68001
842.33        79.18233
842.73        78.90725
843.14        78.86009
843.54        79.02819
843.95          79.269
844.35        79.39519
844.76        79.32997
845.17        79.14907
845.57        78.88174
845.98        78.58753
846.38        78.30251
846.79         77.9754
847.19        77.72086
847.60        77.65539
848.00        77.83855
848.41        78.20834
848.81        78.63594
849.22        78.84666
849.62        78.83757
850.03        78.67805
850.43        78.54144
850.84        78.65397
851.24        79.12171
851.65        79.66819
852.05        80.32844
852.46         80.9804
852.86        81.56007
853.27        82.15492
853.67        82.31075
854.07        81.44992
854.48        79.65023
854.88        77.12218
855.29        74.75932
855.69        73.86028
856.10         74.6627
856.50        77.01363
856.90        80.04633
857.31        81.75027
857.71         81.4907
858.12        79.79227
858.52        77.63716
858.92        76.32189
859.33        76.13221
859.73        76.72377
860.13        77.81903
860.54        78.83345
860.94        79.55875
861.34        80.11913
861.75        80.55688
862.15         81.0269
862.55        81.52239
862.96        81.93305
863.36        82.17745
863.76        82.11735
864.17        81.76572
864.57        81.28344
864.97        80.87426
865.38        80.81708
865.78         81.2153
866.18        81.89227
866.58        82.74827
866.99        83.59335
867.39        84.38056
867.79        85.17432
868.19        85.69665
868.60         85.4467
869.00        84.37903
869.40        82.63528
869.80        81.00641
870.21        80.72904
870.61        82.15519
871.01        84.94559
871.41        88.14654
871.81        90.09303
872.22        90.31031
872.62        89.25932
873.02        87.80909
873.42        87.46072
873.82        88.42486
874.22        90.04815
874.63         91.7996
875.03        92.54484
875.43        91.78048
875.83        90.57874
876.23        88.60577
876.63        87.75801
877.03        88.16024
877.44        89.99737
877.84        101.9675
878.24        96.98497
878.64        96.94836
879.04        95.87659
879.44        92.75758
879.84         91.2272
880.24        93.88468
880.64        95.72292
881.04        97.12871
881.44        97.64577
881.84        96.53082
882.24        94.31049
882.65        92.19919
883.05        91.43265
883.45        92.21584
883.85         94.4039
884.25        97.20865
884.65        98.99226
885.05        99.19553
885.45        98.32281
885.85        97.14499
886.25        96.74541
886.65        97.36162
887.05        98.60314
887.45        100.0224
887.85        100.8462
888.25        100.8046
888.65         100.215
889.04        99.32873
889.44         98.5555
889.84        98.03348
890.24        97.60689
890.64        97.33675
891.04        97.33379
891.44        97.57327
891.84        98.07632
892.24        98.57279
892.64        98.54431
893.04        97.94773
893.44        97.02177
893.83        96.17487
894.23        96.02418
894.63        96.66211
895.03        97.83381
895.43         99.3645
895.83        100.9009
896.23        102.1883
896.63        103.2839
897.02        103.8505
897.42        103.3736
897.82        101.9009
898.22        99.69024
898.62        97.45087
899.01        96.21766
899.41        96.23231
899.81        97.13834
900.21        98.51678
900.61         99.6468
901.00        100.2447
901.40        100.5263
901.80        100.4934
902.20         100.159
902.59        99.59078
902.99          98.728
903.39         97.8131
903.79        97.30229
904.18        97.32278
904.58        97.83425
904.98        98.55418
905.38        99.01146
905.77        99.06155
906.17        98.81311
906.57        98.49615
906.96        98.51059
907.36        98.86106
907.76        99.42435
908.15        99.88229
908.55        99.61703
908.95        98.57923
909.34        96.96394
909.74        95.32854
910.14        94.35247
910.53        94.25687
910.93        94.91191
911.33        96.01302
911.72        96.99454
912.12        97.55272
912.52        97.77153
912.91        97.90791
913.31        98.34086
913.70        99.19273
914.10        100.3618
914.49        101.4267
914.89        101.2823
915.29        99.69746
915.68        97.14902
916.08        94.81623
916.47        93.74194
916.87         94.0259
917.26        95.31822
917.66        96.86081
918.05        97.44341
918.45         96.7446
918.84        95.21343
919.24        93.57362
919.64        92.85631
920.03        93.34634
920.42        94.68727
920.82        96.42131
921.21        97.91357
921.61         98.7133
922.00        99.02857
922.40        98.89136
922.79        98.33886
923.19        97.50653
923.58        96.36891
923.98        95.05441
924.37        94.05342
924.77        93.75631
925.16        92.76822
925.55        93.64146
925.95        94.67564
926.34        96.51215
926.74        98.74297
927.13        100.7884
927.52        101.4706
927.92        100.6688
928.31         98.7597
928.70        96.30823
929.10        94.29029
929.49        93.00706
929.89        92.25665
930.28        92.16198
930.67        92.91007
931.07         94.2933
931.46        96.29742
931.85        98.20213
932.24          98.928
932.64        98.28876
933.03        96.46511
933.42        93.93287
933.82          91.892
934.21          90.775
934.60        90.36423
934.99        90.39822
935.39        90.61689
935.78        90.97762
936.17        91.41621
936.56        91.64434
936.96        92.47948
937.35        91.33273
937.74        90.38927
938.13        89.61028
938.53        89.73555
938.92        90.77405
939.31        92.62054
939.70        94.72776
940.09        95.55481
940.49        94.59429
940.88        92.52441
941.27        90.31903
941.66        89.10645
942.05        89.05788
942.44         89.7708
942.84        90.99046
943.23        92.38191
943.62        93.61744
944.01        94.75372
944.40        95.57207
944.79        95.73675
945.18        95.17076
945.57        93.84424
945.97        91.93181
946.36        90.16844
946.75        89.08765
947.14         88.6441
947.53        88.68872
947.92        88.96893
948.31        89.39528
948.70        90.07199
949.09        90.88847
949.48        91.51165
949.87        91.75546
950.26        91.58102
950.65        91.20361
951.04          91.034
951.43        91.15063
951.82        91.43779
952.21        91.59525
952.60        91.14993
952.99        90.03886
953.38        88.47118
953.77        86.86568
954.16        85.79523
954.55        85.39265
954.94        85.55313
955.33        85.90373
955.72        85.80202
956.11        85.11591
956.50        84.03977
956.89        83.11803
957.28        83.32561
957.66        84.95482
958.05        87.40191
958.44        89.97592
958.83        91.68561
959.22        92.22952
959.61        91.82285
960.00        90.75344
960.39        89.49703
960.78        88.27896
961.16        87.07201
961.55        85.77761
961.94        84.30675
962.33        82.76144
962.72        81.30698
963.11        80.32159
963.49        80.23045
963.88        81.05096
964.27        82.74897
964.66        84.71119
965.04        85.62233
965.43          84.951
965.82        83.12853
966.21        81.23438
966.60        80.72257
966.98        81.81529
967.37        84.03628
967.76        86.50333
968.15         87.4969
968.53        86.52786
968.92        84.25117
969.31        81.62443
969.69        79.87108
970.08        79.29749
970.47        79.55571
970.86        80.26667
971.24        80.78305
971.63        80.85878
972.02        80.70309
972.40        80.64057
972.79        81.16993
973.17        82.51194
973.56        84.30925
973.95        86.06164
974.33        86.86126
974.72        86.37048
975.11        84.90887
975.49        83.19206
975.88        82.22424
976.26        82.14875
976.65        82.76202
977.04        83.46334
977.42        82.86092
977.81        80.61878
978.19        77.43258
978.58        74.87936
978.96        74.45016
979.35        76.34389
979.74        80.24951
980.12        85.43626
980.51        89.02477
980.89        89.99998
981.28        88.91671
981.66        86.87793
982.05        85.37201
982.43        84.71429
982.82        84.49892
983.20        84.58025
983.59        84.81949
983.97        85.21897
984.35         85.9134
984.74        86.69674
985.12        87.41991
985.51        87.73557
985.89        87.55725
986.28        86.92952
986.66        85.81134
987.04        84.54652
987.43        83.38728
987.81        82.29683
988.20        81.13451
988.58        79.73341
988.96        77.72073
989.35        75.57431
989.73        75.77081
990.12         79.3308
990.50        85.04565
990.88        89.46978
991.27        90.19013
991.65        87.71249
992.03        82.77238
992.42        77.34404
992.80        75.03387
993.18        76.81764
993.56        80.66606
993.95        84.76981
994.33        87.55363
994.71        88.62888
995.10         88.9159
995.48        88.26724
995.86        86.19261
996.24        82.68748
996.63        77.39262
997.01        71.71969
997.39        69.81924
997.77        73.40195
998.15        81.49374
998.54        90.14169
998.92        93.93496
999.30        91.33076
999.68        83.61967
1000.06        73.05327
1000.45         65.2785
1000.83        62.75637
1001.21        63.75154
1001.59         66.6244
1001.97        69.62454
1002.35         72.2793
1002.73         75.5892
1003.12        78.80558
1003.50        79.33204
1003.88        76.09823
1004.26        70.32878
1004.64         64.6937
1005.02        61.44814
1005.40         60.6783
1005.78        62.13823
1006.16        66.55013
1006.54        72.73349
1006.92         77.1951
1007.30        79.22498
1007.69        79.94424
1008.07        80.89725
1008.45        82.72034
1008.83        86.03565
1009.21        91.66959
1009.59        95.66581
1009.97        76.06689
1010.35        9.450305
1010.73       -17.05533
1011.11        8.534397
1011.49        36.86389
1011.86         59.8143
1012.24        73.66997
1012.62         79.6859
1013.00        80.80411
1013.38         78.5415
1013.76        75.26818
1014.14        78.49777
1014.52        94.31215
1014.90        124.2353
1015.28        158.8846
1015.66        172.4767
1016.04        150.5811
1016.41        100.3767
1016.79        49.77558
1017.17        26.97226
1017.55        27.90288
1017.93        37.30227
1018.31        47.58083
1018.69        55.23848
1019.06        60.89108
1019.44        66.39409
1019.82        73.50885
1020.20        83.45933
1020.58        97.14172
1020.95        115.6882
1021.33        138.7619
1021.71       -60.46506
1022.09        107.6105
1022.46         120.544
1022.84        126.5866
1023.22        132.0751
1023.60        142.4578
1023.97         233.551
1024.35        83.71262
1024.73        104.8549
