SpectraSmart Spectrum 2.9.0.0
--------- Device Information -----------
Spectrum Name :  反射率_0
Saving Time :  2024/04/26 23:38:49
Spectro-Module Model Name : SE2030-DUVN
Spectro-Module Serial Number : OS361AC55029948
Wavelength Start : 200
Wavelength End : 1025
Wavelength Unit : Wavelength(nm)
Spectrum Unit : Reflectance(%)
-----------Spectrum Setting ------------
Integration Time : 20ms
Average : 10
Boxcar : 0
Background removal :  enabled
linearity correction :  enabled
SC :  disabled
Intensity correction :  disabled
DWT denoise :  enabled
savitzky-golay :  disabled
FFT :  disabled
Running average :  disabled
Kalman :  disabled
High pass :  disabled
---------------BEGIN--------------------
Wavelength(nm)             Reflectance(%)
200.29               0
200.75        29.60371
201.21        32.51842
201.67        34.14673
202.13        33.75753
202.58        31.25719
203.04        26.85564
203.50         20.8895
203.96        15.56638
204.42        12.95215
204.88        13.13211
205.34        15.73239
205.80        18.87869
206.26        21.32282
206.72        23.31123
207.18        24.37825
207.64        24.17122
208.10        22.73596
208.55        19.69689
209.01        14.95317
209.47        11.98752
209.93        12.92744
210.39        15.80027
210.85        18.39109
211.31         19.6737
211.77        19.92495
212.23        19.60978
212.69        18.45539
213.14        18.83353
213.60        20.84407
214.06        21.76762
214.52        22.60821
214.98        24.63869
215.44         27.6089
215.90        31.28792
216.36        34.33865
216.81        34.13353
217.27         30.1156
217.73        22.37427
218.19        11.84343
218.65        6.794605
219.11        11.61929
219.57        20.24437
220.02        28.66194
220.48        37.28272
220.94        48.03197
221.40         63.6525
221.86        84.57039
222.32        99.17899
222.77         96.1059
223.23        82.93616
223.69         68.5218
224.15        58.06113
224.61        51.33688
225.06        46.45182
225.52        43.79665
225.98        43.63811
226.44        45.54697
226.90        49.35321
227.36        53.49431
227.81        55.14112
228.27          53.971
228.73        50.90887
229.19        48.07723
229.65        48.01428
230.10        50.79134
230.56        55.47777
231.02        60.14471
231.48        61.72652
231.93        59.73282
232.39        55.82405
232.85        51.81564
233.31        50.01826
233.77        50.68946
234.22        52.96174
234.68        55.78214
235.14        57.63294
235.60        58.00163
236.05        57.41051
236.51         56.0907
236.97        54.62509
237.43        53.38676
237.88        52.19635
238.34        51.22066
238.80        50.99108
239.26        51.66572
239.71        53.72017
240.17        56.61451
240.63        58.92261
241.08        59.76851
241.54        58.66806
242.00        56.96185
242.46        57.72982
242.91        62.95976
243.37        73.17093
243.83        88.52441
244.28        100.9231
244.74        99.16128
245.20        84.91836
245.66        66.84818
246.11        51.33816
246.57        39.16236
247.03        27.88919
247.48        20.44579
247.94        22.19807
248.40        30.66369
248.85        40.83171
249.31           48.68
249.77        51.40351
250.22        49.22835
250.68        42.56306
251.14        32.33582
251.59        24.27602
252.05        23.07498
252.51        27.14506
252.96        32.46225
253.42        35.06089
253.88        34.96957
254.33        33.63878
254.79        33.47054
255.25        36.42205
255.70        42.24966
256.16        49.92356
256.62        56.56108
257.07        57.78879
257.53         54.6528
257.99        49.94112
258.44        45.96624
258.90        44.79018
259.35        45.55915
259.81        47.48622
260.27         49.3145
260.72        49.56136
261.18        48.40118
261.63        46.37971
262.09        44.57958
262.55        43.71461
263.00         43.6775
263.46        44.19603
263.91        44.57619
264.37        44.18659
264.83        43.00528
265.28        41.35889
265.74         39.9065
266.19        39.21281
266.65        39.37726
267.11        40.05803
267.56        40.86649
268.02        41.18465
268.47        40.84497
268.93         40.1004
269.38        39.11097
269.84        38.17032
270.30        37.37843
270.75        36.62168
271.21        36.01375
271.66        35.68768
272.12        35.63149
272.57         35.7892
273.03        35.90931
273.48        35.56347
273.94        34.72879
274.39         33.5293
274.85        32.29878
275.31        31.37593
275.76        30.81613
276.22         30.5397
276.67         30.3753
277.13        30.15643
277.58         29.7922
278.04        29.36801
278.49        28.90694
278.95        28.54434
279.40        28.24801
279.86        28.02122
280.31        27.73708
280.77        27.32287
281.22        26.74386
281.68        26.10155
282.13          25.475
282.59        25.04124
283.04        24.79358
283.50        24.69198
283.95        24.63424
284.41         24.4728
284.86        24.17244
285.32         23.8055
285.77        23.43497
286.22        23.19835
286.68        23.11389
287.13         23.1014
287.59        23.10403
288.04        22.99944
288.50        22.78377
288.95        22.48224
289.41        22.15743
289.86         21.8407
290.32        21.58095
290.77        21.35868
291.22        21.19236
291.68        21.10041
292.13        21.07015
292.59        21.09933
293.04        21.18155
293.50        21.32241
293.95        21.50353
294.40        21.72615
294.86         21.9381
295.31        22.05365
295.77        22.07548
296.22        22.03206
296.68        22.02234
297.13        22.18877
297.58        22.56133
298.04        23.08859
298.49        23.67952
298.95        24.20209
299.40        24.60306
299.85        24.91619
300.31        25.16644
300.76        25.39102
301.21        25.60737
301.67        25.81165
302.12        25.99003
302.58        26.17356
303.03        26.34776
303.48        26.52869
303.94        26.72095
304.39        26.90191
304.84        27.07373
305.30        27.24614
305.75        27.39534
306.20         27.5328
306.66        27.66111
307.11        27.76053
307.57        27.83411
308.02        27.85235
308.47        27.82161
308.93        27.76084
309.38        27.67287
309.83        27.59874
310.29        27.54937
310.74        27.51263
311.19        27.47899
311.65        27.42704
312.10        27.34711
312.55        27.24433
313.00          27.134
313.46        27.03735
313.91         26.9463
314.36        26.85793
314.82        26.74818
315.27        26.58941
315.72        26.37729
316.18        26.13271
316.63        25.87733
317.08        25.65516
317.53        25.47603
317.99        25.32358
318.44        25.18783
318.89        25.04146
319.35         24.8764
319.80        24.70121
320.25        24.51751
320.70        24.32785
321.16        24.13315
321.61        23.93883
322.06        23.74757
322.51         23.5683
322.97        23.39928
323.42         23.2395
323.87        23.09129
324.32        22.96221
324.78        22.84111
325.23        22.73627
325.68        22.60748
326.13        22.39757
326.59        22.10201
327.04        21.75302
327.49        21.40857
327.94         21.1597
328.39        21.02346
328.85        20.96421
329.30         20.9539
329.75        20.90018
330.20        20.77545
330.66        20.60417
331.11        20.41862
331.56        20.25419
332.01        20.12424
332.46        20.00908
332.92        19.90103
333.37        19.82531
333.82        19.77026
334.27        19.73783
334.72        19.70449
335.17        19.62658
335.63        19.49516
336.08        19.33453
336.53        19.17332
336.98        19.06818
337.43        19.03316
337.88        19.04459
338.34        19.08311
338.79        19.13374
339.24          19.174
339.69        19.21061
340.14        19.21003
340.59        19.12084
341.05        18.94813
341.50        18.70732
341.95        18.46681
342.40         18.3318
342.85        18.32604
343.30        18.42078
343.75        18.55594
344.20        18.63163
344.66        18.62037
345.11        18.54558
345.56        18.44854
346.01        18.39584
346.46        18.40706
346.91        18.46268
347.36        18.52438
347.81        18.53774
348.26        18.49151
348.72        18.40287
349.17         18.3174
349.62        18.31564
350.07        18.40919
350.52         18.5719
350.97         18.7251
351.42        18.74345
351.87         18.6059
352.32        18.35948
352.77        18.09704
353.22        17.95543
353.67        17.96282
354.13        18.07532
354.58        18.22294
355.03        18.29347
355.48         18.2539
355.93         18.1463
356.38        18.00941
356.83         17.8998
357.28        17.83359
357.73        17.78278
358.18        17.74579
358.63          17.725
359.08        17.71351
359.53        17.71498
359.98        17.69545
360.43        17.59939
360.88        17.41993
361.33        17.17154
361.78        16.90917
362.23        16.72432
362.68        16.64006
363.13        16.63468
363.58        16.64894
364.03        16.58716
364.48        16.42825
364.93        16.20122
365.38        15.97074
365.83        15.84141
366.28        15.83742
366.73        15.92353
367.18        16.02852
367.63        16.04385
368.08        15.94238
368.53        15.75455
368.98        15.54346
369.43        15.40911
369.88        15.37474
370.33        15.40858
370.78        15.44649
371.23        15.38486
371.68        15.19982
372.13        14.92904
372.58        14.64324
373.03        14.45029
373.48        14.37906
373.93        14.39819
374.38         14.4498
374.83        14.44234
375.28        14.35021
375.72        14.19553
376.17        14.03648
376.62        13.94072
377.07        13.92241
377.52        13.95821
377.97        13.99729
378.42        13.96156
378.87        13.83844
379.32        13.65865
379.77        13.48485
380.22        13.40644
380.67        13.43839
381.11        13.55296
381.56        13.68427
382.01        13.73204
382.46        13.66858
382.91          13.532
383.36        13.37045
383.81        13.24956
384.26        13.18507
384.71        13.15378
385.15        13.14039
385.60        13.12706
386.05        13.10338
386.50        13.07889
386.95        13.05088
387.40        13.01186
387.85         12.9641
388.29        12.90357
388.74        12.85124
389.19        12.80948
389.64        12.77743
390.09        12.74606
390.54        12.71876
390.98        12.69732
391.43        12.68697
391.88          12.687
392.33         12.6721
392.78        12.60575
393.23        12.48858
393.67        12.32893
394.12        12.18455
394.57        12.11452
395.02        12.12834
395.47        12.20427
395.91        12.29527
396.36        12.31246
396.81        12.24203
397.26        12.11324
397.71        11.97242
398.15        11.89445
398.60        11.90667
399.05        11.93211
399.50        11.94734
399.95        12.00905
400.39        12.06841
400.84        11.92702
401.29          11.641
401.74        11.48598
402.18        11.49357
402.63        11.52039
403.08        11.54183
403.53        11.57237
403.97        11.59788
404.42        11.61681
404.87        11.61593
405.32        11.57127
405.76        11.48136
406.21        11.35987
406.66        11.23858
407.11        11.17002
407.55        11.16901
408.00        11.21742
408.45         11.2864
408.90        11.31628
409.34        11.28749
409.79        11.21774
410.24        11.13544
410.68        11.07744
411.13        11.05513
411.58        11.05486
412.03         11.0541
412.47         11.0177
412.92        10.93783
413.37        10.83717
413.81        10.74277
414.26        10.69881
414.71        10.70831
415.15        10.75634
415.60        10.82194
416.05        10.87472
416.49         10.9015
416.94        10.91106
417.39        10.89837
417.83        10.85644
418.28        10.78719
418.73        10.68821
419.17        10.59163
419.62         10.5508
420.07         10.5745
420.51         10.6465
420.96         10.7189
421.41        10.71373
421.85        10.61531
422.30        10.44986
422.74        10.26784
423.19        10.18998
423.64        10.21572
424.08        10.25828
424.53        10.28193
424.98        10.30899
425.42        10.33117
425.87        10.29667
426.31        10.22778
426.76         10.2346
427.21        10.29553
427.65        10.25414
428.10         10.1368
428.54        10.09318
428.99        10.13336
429.44         10.2116
429.88        10.28469
430.33        10.24571
430.77        10.12141
431.22        10.10782
431.66        10.19787
432.11        10.20174
432.56        10.11981
433.00        10.09223
433.45        10.08451
433.89        9.967259
434.34        9.820815
434.78        9.592982
435.23        9.818792
435.67        9.854202
436.12        9.830273
436.57        9.775919
437.01        9.708164
437.46        9.660662
437.90        9.636299
438.35        9.600736
438.79        9.552721
439.24         9.52161
439.68        9.509459
440.13         9.50661
440.57        9.516698
441.02         9.55433
441.46        9.614615
441.91        9.663053
442.35        9.683808
442.80        9.752914
443.24        9.826183
443.69        9.743908
444.13        9.551137
444.58        9.473647
445.02        9.527604
445.47        9.605261
445.91        9.669282
446.36        9.707725
446.80        9.705791
447.24        9.669258
447.69        9.623967
448.13        9.604716
448.58        9.622032
449.02        9.662174
449.47         9.70432
449.91        9.712878
450.36        9.682506
450.80        9.624234
451.25        9.561838
451.69        9.526134
452.13        9.524541
452.58        9.544868
453.02        9.567143
453.47        9.561711
453.91        9.521504
454.36        9.459136
454.80        9.387935
455.24        9.326448
455.69        9.285552
456.13        9.254163
456.58        9.239784
457.02        9.237537
457.46        9.250094
457.91        9.277493
458.35        9.305882
458.79        9.313042
459.24        9.302668
459.68        9.271389
460.13        9.246203
460.57        9.243622
461.01        9.274745
461.46         9.32322
461.90        9.376819
462.34        9.405057
462.79        9.395942
463.23        9.362791
463.68        9.309227
464.12        9.248766
464.56         9.18861
465.01        9.139548
465.45        9.094414
465.89         9.06858
466.34        9.062124
466.78        9.069158
467.22        9.089321
467.67         9.11186
468.11        9.137128
468.55        9.162338
468.99        9.182279
469.44        9.188852
469.88        9.181068
470.32        9.159671
470.77        9.135956
471.21        9.131176
471.65        9.148276
472.10        9.183949
472.54        9.220567
472.98        9.234301
473.42        9.220925
473.87        9.192174
474.31         9.15919
474.75        9.148298
475.20        9.166647
475.64          9.2018
476.08        9.246754
476.52        9.276173
476.97        9.283215
477.41        9.297322
477.85        9.329973
478.29        9.289115
478.74        9.337523
479.18        9.374329
479.62        9.433729
480.06          9.4799
480.50        9.510203
480.95        9.525092
481.39        9.523252
481.83        9.597332
482.27        9.609553
482.72        9.677794
483.16        9.750284
483.60        9.787111
484.04        9.770867
484.48        9.785197
484.93        9.898526
485.37        9.845021
485.81        9.915029
486.25        10.30394
486.69          10.252
487.14        10.13955
487.58        10.59573
488.02         10.6105
488.46        10.28625
488.90        10.44406
489.34        10.42184
489.79        10.56872
490.23        10.62952
490.67        10.76509
491.11        10.91931
491.55        10.88756
491.99         10.7284
492.43        10.70002
492.88        10.83016
493.32        10.97707
493.76        11.10871
494.20        11.24265
494.64        11.36984
495.08        11.46237
495.52        11.52901
495.96        11.66014
496.41        11.83393
496.85         11.8657
497.29        11.78058
497.73        11.89583
498.17        12.03986
498.61        12.13783
499.05        12.13224
499.49        12.15695
499.93        12.19417
500.37        12.30288
500.82        12.45714
501.26         12.5799
501.70        12.65944
502.14        12.74337
502.58        12.83964
503.02        12.93487
503.46        13.02954
503.90          13.127
504.34        13.21474
504.78        13.27264
505.22         13.2983
505.66        13.29823
506.10        13.29415
506.54        13.32096
506.98        13.38594
507.42        13.47839
507.86         13.5775
508.30        13.64805
508.74        13.68045
509.18        13.68649
509.62        13.67964
510.06        13.68208
510.50        13.70154
510.94        13.73011
511.38        13.76609
511.82        13.80708
512.26        13.85026
512.70        13.89792
513.14         13.9431
513.58        13.97297
514.02        13.98621
514.46         13.9866
514.90        13.98453
515.34        13.99817
515.78        14.03095
516.22        14.07511
516.66        14.12348
517.10        14.16407
517.54        14.19234
517.98        14.21346
518.42        14.22231
518.86        14.21136
519.30         14.1814
519.74        14.13277
520.18        14.08463
520.62        14.06689
521.06        14.08499
521.50        14.13367
521.93        14.18472
522.37         14.1848
522.81        14.12646
523.25        14.02468
523.69           13.92
524.13        13.87559
524.57        13.90158
525.01        13.97427
525.45        14.05042
525.89        14.06056
526.32        13.98738
526.76        13.86098
527.20        13.71328
527.64        13.59425
528.08        13.52045
528.52        13.47555
528.96        13.45424
529.40        13.44869
529.83        13.45145
530.27        13.46593
530.71        13.47707
531.15        13.45996
531.59        13.41075
532.03        13.33529
532.46        13.24974
532.90        13.19136
533.34        13.16721
533.78        13.16143
534.22        13.16276
534.66        13.16922
535.09        13.16601
535.53        13.12757
535.97        13.06794
536.41        13.04293
536.85        13.05852
537.28        13.08644
537.72        13.11744
538.16        13.14695
538.60        13.17038
539.04        13.18973
539.47        13.20647
539.91        13.23087
540.35        13.26304
540.79        13.30199
541.22         13.3449
541.66         13.3925
542.10        13.44291
542.54        13.49709
542.97        13.55701
543.41        13.63042
543.85        13.71663
544.29        13.81493
544.72        13.91574
545.16        14.01521
545.60        14.10944
546.04        14.20098
546.47        14.30022
546.91        14.42101
547.35        14.56153
547.79        14.71455
548.22        14.86207
548.66        14.97421
549.10        15.06475
549.53        15.13796
549.97        15.20815
550.41        15.26298
550.84        15.32514
551.28        15.43119
551.72        15.56722
552.15        15.72278
552.59        15.91101
553.03        15.90022
553.46         16.1589
553.90        16.25685
554.34        16.33231
554.77        16.38796
555.21        16.44693
555.65        16.53301
556.08        16.64354
556.52        16.76167
556.96        16.86438
557.39        16.96263
557.83        17.03821
558.27        17.00427
558.70        16.89911
559.14        16.88511
559.57        16.96513
560.01        17.04284
560.45        17.10249
560.88        17.17323
561.32        17.25801
561.75        17.33263
562.19        17.39824
562.63         17.4528
563.06        17.49384
563.50        17.52274
563.93        17.53975
564.37        17.59107
564.80        17.68808
565.24        17.77835
565.68        17.80814
566.11        18.08122
566.55        17.94534
566.98        17.95113
567.42        17.96563
567.85        18.06259
568.29        18.25488
568.72         18.5262
569.16        18.84623
569.60        19.04903
570.03        19.18522
570.47        19.29168
570.90        19.42122
571.34        19.35686
571.77         19.5806
572.21        19.70342
572.64        19.84604
573.08        19.98007
573.51         20.1182
573.95        20.26036
574.38        20.42457
574.82        20.47277
575.25        20.39551
575.69        20.38489
576.12        20.45866
576.56        20.39342
576.99        20.74567
577.42        20.60367
577.86        20.68518
578.29        21.01271
578.73        20.85986
579.16        20.79722
579.60        20.55246
580.03         20.5625
580.47        20.59393
580.90        20.58849
581.33        20.61835
581.77         20.7144
582.20        20.48164
582.64        20.17697
583.07        20.31693
583.51        20.12972
583.94        19.86688
584.37        19.76343
584.81        19.83396
585.24        19.71621
585.68        19.48221
586.11        19.31227
586.54        19.44177
586.98        19.38535
587.41        19.42566
587.85        19.27102
588.28        19.05878
588.71        18.98297
589.15        18.96589
589.58        18.97355
590.01        19.04025
590.45         18.9805
590.88        18.83958
591.31        18.74624
591.75        18.75721
592.18        18.73096
592.61        18.65847
593.05        18.97288
593.48        19.28012
593.91        19.02807
594.35        19.05405
594.78        18.99061
595.21        19.11998
595.65        19.31618
596.08           19.59
596.51        19.64531
596.94        19.62546
597.38        19.70105
597.81        19.91334
598.24        20.19858
598.68        20.46629
599.11        20.49188
599.54        21.00341
599.97        20.96495
600.41        21.48687
600.84        21.60296
601.27        21.90298
601.70         22.1514
602.14        22.41813
602.57        22.69943
603.00        23.04347
603.43        23.12847
603.87        23.81364
604.30        24.20589
604.73        24.34744
605.16        24.63099
605.60        24.99483
606.03        25.28362
606.46        25.49452
606.89        25.71868
607.32        26.45338
607.76        26.62199
608.19        27.03066
608.62        27.25067
609.05        27.55744
609.48        27.88292
609.92        28.56863
610.35        28.83041
610.78        28.79883
611.21        29.10706
611.64        29.43409
612.07        29.87412
612.50        30.13229
612.94        30.41822
613.37        30.66585
613.80        30.88851
614.23        30.83204
614.66        31.10306
615.09        31.59513
615.52        31.90362
615.96        31.98826
616.39        32.43847
616.82        32.63641
617.25        32.93483
617.68        33.14762
618.11        33.38834
618.54        33.64693
618.97        33.85351
619.40        34.00332
619.84        34.22054
620.27        34.21409
620.70         34.3999
621.13        34.64546
621.56        34.63014
621.99        34.39114
622.42        34.43527
622.85        34.80839
623.28         34.7771
623.71        34.84729
624.14        35.29958
624.57        35.24987
625.00        35.25291
625.43        35.31789
625.86        35.21659
626.29        35.07315
626.72        34.85565
627.15        34.82646
627.58        34.75332
628.01        34.65614
628.44        34.53167
628.87         34.3824
629.30         34.0879
629.73        33.64177
630.16        33.74281
630.59        33.27331
631.02        33.11781
631.45        32.91848
631.88        32.67036
632.31        32.35469
632.74        31.99335
633.17          31.606
633.60        31.19205
634.03        30.76369
634.46        30.32179
634.89        29.87447
635.32        29.44131
635.75        29.02987
636.18        28.60819
636.61        28.19078
637.04        27.81273
637.47         27.4723
637.89        27.15468
638.32        26.83059
638.75        26.48181
639.18        26.10851
639.61        25.72355
640.04        25.35447
640.47        25.03978
640.90        24.78774
641.33        24.58849
641.76        24.42449
642.18        24.27025
642.61        24.11088
643.04        23.95626
643.47        23.81966
643.90        23.72121
644.33        23.66532
644.76        23.64689
645.18        23.64794
645.61         23.6357
646.04        23.60751
646.47        23.57467
646.90        23.57372
647.33        23.65461
647.75        23.82267
648.18        24.09552
648.61        24.43499
649.04         24.6921
649.47        24.82832
649.89        25.22971
650.32        25.28635
650.75        25.64224
651.18         26.0929
651.61        26.58993
652.03        27.06624
652.46        27.42553
652.89         27.7181
653.32        27.99917
653.74         28.3109
654.17        28.93568
654.60        29.14791
655.03        29.53133
655.46        29.80481
655.88        30.36889
656.31        31.73136
656.74        34.07796
657.16        34.55667
657.59        34.47836
658.02        32.95787
658.45        33.33218
658.87        33.23494
659.30        33.64783
659.73         34.0725
660.15        34.21075
660.58        34.10468
661.01        34.41653
661.44        35.09242
661.86        35.40934
662.29        35.34836
662.72        35.74452
663.14        35.95097
663.57        36.28499
664.00        36.55962
664.42        36.90644
664.85        37.33617
665.27        37.82796
665.70        38.29655
666.13        38.62518
666.55        38.79185
666.98        38.79773
667.41        38.70828
667.83        38.87704
668.26        38.93742
668.69        39.19079
669.11        39.48741
669.54        39.77788
669.96        40.04333
670.39        40.29715
670.82        40.55133
671.24        40.80298
671.67        41.04661
672.09        41.26443
672.52        41.46006
672.94        41.62103
673.37        41.75553
673.80        41.86842
674.22        41.98249
674.65        42.10769
675.07         42.2602
675.50        42.42897
675.92         42.6051
676.35        42.76456
676.77         42.9011
677.20        43.02316
677.62        43.14479
678.05        43.27065
678.47        43.40115
678.90        43.59975
679.32         43.7372
679.75        43.88253
680.17        43.99472
680.60        44.08281
681.02        44.17287
681.45        44.30046
681.87        44.48021
682.30        44.70635
682.72        44.94496
683.15         45.0814
683.57        45.12436
684.00        45.15598
684.42        45.22012
684.85        45.33464
685.27        45.50751
685.70        45.74348
686.12        45.98279
686.54        46.15449
686.97        46.24085
687.39        46.17247
687.82        46.16122
688.24        46.13154
688.66        46.16172
689.09        46.23315
689.51        46.34162
689.94        46.46752
690.36        46.60943
690.78        46.71931
691.21        46.83107
691.63        47.09403
692.06        47.46033
692.48        47.68687
692.90        47.75486
693.33        47.82013
693.75        47.87682
694.17         47.8415
694.60        47.81965
695.02        47.73846
695.44        48.07641
695.87        48.45345
696.29        48.88514
696.71        48.86912
697.14        48.52013
697.56        48.56308
697.98        48.98476
698.41        49.19421
698.83        49.17163
699.25        49.32682
699.68        49.62285
700.10        49.78059
700.52        49.75179
700.94        49.90987
701.37        49.77882
701.79        49.93599
702.21        50.24257
702.64        50.53454
703.06        50.94336
703.48        51.16314
703.90        51.23079
704.33        51.18676
704.75        51.09908
705.17        51.06519
705.59        51.11755
706.01         51.2246
706.44        51.38953
706.86          51.605
707.28        51.84223
707.70        52.17358
708.12        52.53325
708.55        52.64375
708.97        52.56658
709.39        52.69501
709.81        53.02069
710.23        53.19647
710.66        53.20383
711.08        53.26708
711.50        53.36946
711.92        53.39743
712.34        53.35626
712.76        53.29323
713.19        53.23394
713.61        53.24842
714.03        53.34399
714.45        53.50269
714.87        53.71699
715.29        53.98064
715.71        54.27611
716.13        54.58475
716.56        54.85956
716.98        55.09651
717.40        55.25084
717.82        55.33009
718.24        55.31995
718.66        55.20337
719.08        55.00687
719.50        54.76471
719.92        54.56052
720.34        54.51594
720.76         54.6549
721.19        54.92438
721.61        55.28942
722.03        55.64291
722.45        55.93101
722.87        56.16528
723.29        56.31092
723.71        56.32026
724.13        56.20159
724.55        55.97789
724.97        55.72664
725.39        55.58611
725.81        55.59875
726.23        55.71497
726.65        55.89865
727.07        56.20809
727.49        56.41139
727.91        56.68109
728.33        56.93483
728.75        57.14103
729.17        57.28445
729.59         57.3625
730.01        57.39343
730.43        57.41034
730.85        57.43081
731.27          57.458
731.69        57.48811
732.10        57.51031
732.52         57.5157
732.94         57.5159
733.36        57.55949
733.78        57.55912
734.20        57.49545
734.62        57.73957
735.04        58.27174
735.46        57.63971
735.88        57.69537
736.30        57.84488
736.72        58.54672
737.13        58.93722
737.55        58.89391
737.97        59.03858
738.39        59.29491
738.81        58.98001
739.23         58.2919
739.65        58.29764
740.06        58.90352
740.48        59.18323
740.90        59.07526
741.32        59.11314
741.74        59.34179
742.16        59.51125
742.57        59.60196
742.99        59.78691
743.41        59.98029
743.83         59.7402
744.25        59.20176
744.67        59.06456
745.08        59.35275
745.50        59.48344
745.92        59.44405
746.34        59.59474
746.75        59.87527
747.17        59.98697
747.59        59.91051
748.01         59.7379
748.42        59.53995
748.84        59.46224
749.26        59.54531
749.68        59.64058
750.09        59.73599
750.51        60.03022
750.93         60.3788
751.35        60.35283
751.76        60.02996
752.18        59.77679
752.60        59.58929
753.01        59.79586
753.43        59.61835
753.85        59.23074
754.27        59.47872
754.68         59.5124
755.10        59.62897
755.52        59.77364
755.93        59.93291
756.35        60.07845
756.77         60.2553
757.18        60.44188
757.60        60.64312
758.02        61.06769
758.43        61.55508
758.85        61.06575
759.26         61.1139
759.68        60.16912
760.10        60.60006
760.51        60.82752
760.93        61.23798
761.34        60.87421
761.76        61.52142
762.18        61.37553
762.59        61.14079
763.01        60.94994
763.42        61.50369
763.84        61.67118
764.26        61.59823
764.67        61.60913
765.09        61.70058
765.50        61.57372
765.92        61.29375
766.33        61.04921
766.75        60.81654
767.16        60.67025
767.58        60.55995
768.00        60.52093
768.41          60.597
768.83        61.13861
769.24        61.88589
769.66        61.97085
770.07        61.47878
770.49        61.11777
770.90        61.09849
771.32        61.59719
771.73        62.40145
772.15        62.70665
772.56        62.44442
772.97        62.03887
773.39            61.7
773.80        61.63388
774.22        61.86157
774.63        62.24583
775.05         62.5977
775.46        62.79827
775.88        62.75858
776.29        62.50566
776.70        62.17245
777.12        62.03753
777.53        62.16468
777.95        62.41148
778.36         62.7049
778.77        62.87363
779.19        62.88876
779.60        62.90258
780.02        62.86114
780.43        62.66028
780.84        62.41678
781.26        62.01801
781.67        61.69722
782.09        62.47971
782.50        63.94769
782.91        64.06506
783.33        62.93183
783.74        62.55143
784.15        63.00526
784.57        63.07598
784.98        62.80281
785.39        62.78199
785.81        63.03136
786.22        63.50483
786.63        64.02916
787.04        64.07591
787.46         63.7154
787.87        63.55123
788.28        63.65561
788.70        63.66139
789.11        63.57296
789.52        63.70572
789.93        63.99126
790.35         64.0778
790.76        63.97796
791.17        63.95626
791.58        64.05878
792.00        64.09988
792.41        64.07528
792.82        64.24332
793.23        64.46892
793.65        64.13353
794.06        63.52524
794.47        63.63863
794.88        64.22831
795.29        65.28439
795.71        64.38412
796.12        64.29395
796.53        64.39231
796.94        64.16765
797.35        63.76632
797.76        64.04494
798.18        64.85677
798.59        65.21926
799.00        65.02142
799.41        64.76502
799.82        64.58661
800.23        64.50337
800.64        64.56194
801.06        64.71501
801.47          64.911
801.88        64.98413
802.29        64.88531
802.70        64.65755
803.11        64.37848
803.52        64.16457
803.93        64.08408
804.34         64.1461
804.75        64.30933
805.17        64.50066
805.58        64.94441
805.99         65.0556
806.40        65.00021
806.81        65.92018
807.22        67.36552
807.63        67.08656
808.04        65.36182
808.45        64.60555
808.86        65.00866
809.27        65.25914
809.68         65.1991
810.09        65.19297
810.50        65.20501
810.91        65.14701
811.32        65.11282
811.73        65.24648
812.14        65.56309
812.55        66.01452
812.96          66.465
813.37        66.65317
813.78         66.5083
814.19        66.13904
814.60        65.66443
815.01        65.23662
815.42        64.90449
815.83        64.62226
816.24        64.43353
816.65        64.41876
817.05        64.59543
817.46        64.92932
817.87        65.30804
818.28         65.5044
818.69        65.47062
819.10        65.23944
819.51        64.97681
819.92        64.99435
820.33        65.35886
820.74         65.9589
821.14        66.57443
821.55        66.85158
821.96        66.71234
822.37         66.2813
822.78        65.73486
823.19        65.37188
823.60        65.29647
824.00        65.43475
824.41        65.68516
824.82        65.97228
825.23        66.23241
825.64        66.49806
826.04        66.70232
826.45        66.70666
826.86        66.51123
827.27        66.10751
827.68        65.62236
828.08        65.41619
828.49        65.46449
828.90        65.48772
829.31        65.46861
829.72        65.58054
830.12        65.82513
830.53        66.03651
830.94         66.1431
831.35        66.04946
831.75        65.75443
832.16        65.26266
832.57        64.75979
832.97        64.52656
833.38        64.62327
833.79        64.95113
834.20        65.37799
834.60        65.68369
835.01        65.80685
835.42         65.8576
835.82        65.86038
836.23        65.78382
836.64        65.68063
837.04        65.51881
837.45        65.46847
837.86        65.87297
838.26        66.78773
838.67        68.06493
839.08        69.30431
839.48        69.74336
839.89        69.19015
840.29          67.918
840.70         66.5112
841.11        65.64191
841.51        65.49043
841.92        65.83648
842.33        66.48595
842.73         67.0872
843.14        67.39408
843.54        67.57755
843.95        67.65745
844.35        67.71066
844.76        67.75031
845.17        67.71732
845.57        67.64321
845.98        67.57822
846.38        67.55319
846.79        67.55904
847.19        67.56383
847.60        67.48346
848.00        67.31417
848.41        67.05984
848.81        66.80178
849.22        66.59488
849.62        66.50291
850.03        66.50343
850.43        66.56205
850.84         66.5529
851.24        66.49258
851.65        66.35538
852.05        66.30814
852.46        66.52793
852.86        67.02438
853.27        67.69302
853.67        68.26712
854.07        68.50356
854.48        68.33639
854.88        67.87343
855.29        67.21376
855.69         66.6759
856.10        66.31805
856.50        66.14308
856.90         66.0805
857.31        66.01946
857.71        65.97301
858.12        65.92933
858.52        65.93883
858.92        65.96175
859.33        65.97082
859.73        65.99367
860.13        65.98168
860.54        65.89306
860.94        65.76289
861.34         65.5879
861.75        65.41464
862.15        65.36327
862.55        65.43352
862.96        65.55543
863.36        65.71139
863.76        65.78458
864.17        65.73426
864.57        65.64528
864.97        65.46995
865.38        65.14072
865.78        64.70128
866.18        64.16054
866.58         63.7273
866.99         63.7633
867.39        64.34354
867.79        65.32515
868.19        66.38612
868.60        67.02026
869.00        67.13178
869.40        66.82101
869.80        66.29058
870.21        65.95348
870.61        66.01392
871.01        66.29175
871.41        66.59435
871.81        66.64799
872.22        66.39178
872.62        65.93443
873.02        65.42786
873.42        65.11004
873.82        65.05145
874.22        65.15617
874.63        65.30878
875.03        65.35278
875.43        65.22579
875.83        65.00072
876.23        64.71581
876.63        64.41759
877.03        64.14131
877.44        63.85251
877.84          63.631
878.24        63.60529
878.64        63.73723
879.04         63.9243
879.44        64.14938
879.84        64.26199
880.24        64.33703
880.64        64.84563
881.04        65.49149
881.44        65.32742
881.84        64.28709
882.24        62.87595
882.65        61.51596
883.05        60.69936
883.45        60.59933
883.85        61.09165
884.25        61.93996
884.65        62.71431
885.05         63.2307
885.45        63.56697
885.85        63.77412
886.25        63.94649
886.65        64.11911
887.05        64.24356
887.45        64.26585
887.85        64.13207
888.25         63.8529
888.65        63.47284
889.04         63.1403
889.44         63.0952
889.84        63.35786
890.24        63.85344
890.64        64.37714
891.04        64.58669
891.44        64.40689
891.84        63.96541
892.24        63.44294
892.64        63.10725
893.04         63.0454
893.44        63.18952
893.83        63.50452
894.23        63.87817
894.63        64.27311
895.03        64.68961
895.43        65.11443
895.83        65.52865
896.23        65.88995
896.63        66.14865
897.02        66.21638
897.42        66.00211
897.82        65.51743
898.22        64.86404
898.62        64.14738
899.01        63.50077
899.41        63.00808
899.81        62.63953
900.21        62.47657
900.61        62.63982
901.00        63.10535
901.40        63.79593
901.80        64.49877
902.20        64.86881
902.59        64.83261
902.99        64.49014
903.39        63.97619
903.79        63.52856
904.18        63.24129
904.58        63.05254
904.98        63.03846
905.38        63.32023
905.77        63.88293
906.17        64.71128
906.57        65.53624
906.96        65.89518
907.36        65.67122
907.76        64.99872
908.15        64.23896
908.55        63.96555
908.95        64.31546
909.34        65.10945
909.74        65.98703
910.14        66.43417
910.53        66.27649
910.93        65.72623
911.33        64.94033
911.72        64.14008
912.12        63.49684
912.52        62.94816
912.91        62.56712
913.31        62.48501
913.70         62.7099
914.10        63.19875
914.49        63.86979
914.89        64.47694
915.29        64.94196
915.68         65.2906
916.08         65.4828
916.47        65.54816
916.87        65.51259
917.26        65.32934
917.66        65.11026
918.05        64.91234
918.45        64.77267
918.84        64.74637
919.24        64.73877
919.64         64.7089
920.03        64.66006
920.42        64.55914
920.82        64.54614
921.21        64.78671
921.61        65.27159
922.00        65.97729
922.40        66.60939
922.79        66.79546
923.19        66.42625
923.58        65.66552
923.98        64.82895
924.37        64.31931
924.77        64.25067
925.16        64.46539
925.55          64.839
925.95        65.12685
926.34        65.24539
926.74        65.25784
927.13         65.1302
927.52        64.73925
927.92        64.15385
928.31        63.40658
928.70        62.72311
929.10        62.42802
929.49        62.57207
929.89        63.01879
930.28        63.69357
930.67        64.33655
931.07        64.80534
931.46        65.22924
931.85        65.44913
932.24        65.27209
932.64        64.74469
933.03        63.88765
933.42        63.10287
933.82        62.97573
934.21        63.60435
934.60        64.87624
934.99        66.30869
935.39        67.01629
935.78        66.78708
936.17        65.77394
936.56        64.50715
936.96        63.82652
937.35        63.93905
937.74        64.60771
938.13        65.32661
938.53        65.31406
938.92        64.43037
939.31        63.00307
939.70        61.56763
940.09        60.87202
940.49        61.05052
940.88        61.88437
941.27        63.02267
941.66        63.82114
942.05        64.05694
942.44        63.95219
942.84        63.69492
943.23        63.57445
943.62        63.68871
944.01        63.85613
944.40        64.11642
944.79         64.5763
945.18         65.1907
945.57        65.94968
945.97        66.47147
946.36        66.19669
946.75        65.03493
947.14        63.27361
947.53        61.47747
947.92        60.44925
948.31        60.36646
948.70        60.99416
949.09        62.04347
949.48        62.98811
949.87        63.60838
950.26        64.03836
950.65        64.28729
951.04        64.38979
951.43        64.37209
951.82        64.15166
952.21        63.83615
952.60        63.64362
952.99        63.63475
953.38        63.81598
953.77        64.02573
954.16        63.97991
954.55        63.61922
954.94         62.9914
955.33        62.37151
955.72        62.23948
956.11        62.70289
956.50        63.63401
956.89        64.56332
957.28        64.70177
957.66        63.87534
958.05        62.39394
958.44        60.84166
958.83        60.05069
959.22        60.19127
959.61        61.02738
960.00        62.11626
960.39        62.64363
960.78        62.34911
961.16        61.48785
961.55        60.51801
961.94        60.01781
962.33        60.14738
962.72        60.77299
963.11        61.59348
963.49        62.07912
963.88        61.97447
964.27        61.42352
964.66        60.89945
965.04        61.12851
965.43        62.19134
965.82        63.94691
966.21        65.65414
966.60        65.90527
966.98        64.35825
967.37        61.62545
967.76        58.85662
968.15        57.48489
968.53        57.76617
968.92        59.34595
969.31        61.46451
969.69        62.58493
970.08        62.12328
970.47        60.60065
970.86        58.97029
971.24        58.57704
971.63        59.69715
972.02        61.91195
972.40        64.46439
972.79        65.61095
973.17        64.85867
973.56        62.85943
973.95        60.52383
974.33        58.98788
974.72        58.52966
975.11         58.7813
975.49        59.49757
975.88        60.17124
976.26        60.60058
976.65        60.89556
977.04        61.08001
977.42        61.12867
977.81        61.02407
978.19        60.72528
978.58        60.35485
978.96        60.11347
979.35        60.03587
979.74        60.09853
980.12        60.32946
980.51        60.53446
980.89        60.76625
981.28        61.04206
981.66        61.33096
982.05        61.56108
982.43        61.73592
982.82        61.80296
983.20          61.991
983.59        62.62801
983.97        63.83268
984.35        65.49333
984.74        66.99551
985.12        67.54768
985.51         66.9211
985.89        65.40911
986.28        63.81073
986.66        63.25312
987.04        64.05773
987.43        65.89107
987.81        68.12971
988.20        69.41273
988.58        69.28717
988.96        68.07381
989.35        66.41311
989.73        65.22562
990.12        64.72231
990.50        64.65204
990.88        64.58714
991.27        63.84797
991.65        62.34412
992.03        60.45195
992.42         58.7331
992.80        57.84792
993.18        57.93587
993.56        58.78491
993.95        59.96455
994.33        60.83825
994.71         61.0424
995.10        60.84552
995.48        60.47968
995.86        60.41364
996.24        60.75873
996.63        61.16092
997.01        61.71775
997.39        62.31541
997.77        62.82573
998.15        63.42031
998.54        63.64445
998.92        62.68032
999.30         60.6404
999.68        57.85514
1000.06        55.47078
1000.45        55.11766
1000.83        57.18045
1001.21        61.32423
1001.59        66.40547
1001.97        69.57557
1002.35        69.66813
1002.73         67.5613
1003.12        64.69729
1003.50          62.903
1003.88        62.75199
1004.26        63.52486
1004.64         65.0984
1005.02        67.15076
1005.40         69.2522
1005.78        71.64331
1006.16        73.29317
1006.54        72.53336
1006.92        69.38267
1007.30        64.49229
1007.69        59.72745
1008.07        57.63245
1008.45        58.90298
1008.83        62.95596
1009.21        68.53876
1009.59        72.38711
1009.97        72.80152
1010.35        70.68291
1010.73        67.02015
1011.11        63.28985
1011.49        60.22618
1011.86        57.56756
1012.24        55.62286
1012.62        54.81203
1013.00        55.12801
1013.38        56.55247
1013.76        58.94595
1014.14        61.55308
1014.52         63.7219
1014.90        65.33916
1015.28        66.08306
1015.66        65.76488
1016.04        64.50449
1016.41         62.3554
1016.79        59.87474
1017.17        58.26387
1017.55        57.91183
1017.93        58.51908
1018.31         59.6234
1018.69        60.48446
1019.06        60.90341
1019.44        61.14741
1019.82        61.10411
1020.20        60.58403
1020.58        59.63135
1020.95        58.18775
1021.33        56.96869
1021.71        56.72786
1022.09        57.56324
1022.46        59.58356
1022.84        61.91946
1023.22         62.4289
1023.60        60.40588
1023.97        56.41979
1024.35        52.77807
1024.73        52.04146
