SpectraSmart Spectrum 2.9.0.0
--------- Device Information -----------
Spectrum Name :  反射率_0
Saving Time :  2024/04/26 23:39:37
Spectro-Module Model Name : SE2030-DUVN
Spectro-Module Serial Number : OS361AC55029948
Wavelength Start : 200
Wavelength End : 1025
Wavelength Unit : Wavelength(nm)
Spectrum Unit : Reflectance(%)
-----------Spectrum Setting ------------
Integration Time : 20ms
Average : 10
Boxcar : 0
Background removal :  enabled
linearity correction :  enabled
SC :  disabled
Intensity correction :  disabled
DWT denoise :  enabled
savitzky-golay :  disabled
FFT :  disabled
Running average :  disabled
Kalman :  disabled
High pass :  disabled
---------------BEGIN--------------------
Wavelength(nm)             Reflectance(%)
200.29               0
200.75        26.13479
201.21        27.14905
201.67        29.15583
202.13         31.2831
202.58        33.43436
203.04        36.71085
203.50        41.24179
203.96        45.83039
204.42        49.12807
204.88         50.1081
205.34        49.07227
205.80        47.98668
206.26        47.35129
206.72        46.71254
207.18        45.05167
207.64        40.63075
208.10        32.77462
208.55        20.69545
209.01        4.888234
209.47       -3.385655
209.93        2.216334
210.39        13.99485
210.85        24.70827
211.31        32.40798
211.77        39.42444
212.23        50.20217
212.69        73.27912
213.14        111.2961
213.60        108.7866
214.06        80.17385
214.52        60.92319
214.98        52.41917
215.44        48.81682
215.90        46.95006
216.36        45.99148
216.81        44.86399
217.27        43.45968
217.73        42.54571
218.19        41.54967
218.65        39.24754
219.11        36.70984
219.57        34.70676
220.02        34.67757
220.48        38.17406
220.94        45.58943
221.40        58.53543
221.86        76.48758
222.32        87.30441
222.77         81.1132
223.23         66.2323
223.69        52.57065
224.15        45.70142
224.61        44.17495
225.06         45.0911
225.52        46.79636
225.98           47.53
226.44        47.14408
226.90         46.3624
227.36        45.63782
227.81        45.58544
228.27        46.31462
228.73        47.16732
229.19        47.92039
229.65        48.43402
230.10        48.65199
230.56         48.7961
231.02        48.48798
231.48        47.17788
231.93          45.007
232.39        42.54507
232.85        40.60889
233.31        40.31318
233.77        41.65207
234.22        44.21324
234.68        47.14188
235.14        49.17382
235.60         49.9213
236.05         49.7428
236.51         48.9294
236.97        48.21104
237.43        47.95288
237.88        47.93054
238.34        48.21039
238.80        49.16873
239.26        50.99159
239.71        54.30832
240.17        58.56898
240.63        62.13799
241.08        63.93354
241.54         63.2196
242.00        61.87767
242.46        64.34325
242.91        73.66496
243.37         91.6888
243.83        118.6251
244.28        140.3285
244.74        137.7525
245.20        112.8714
245.66        83.62698
246.11         65.0631
246.57        57.64052
247.03        56.22091
247.48         58.6659
247.94        61.40446
248.40        62.69473
248.85        63.47815
249.31        63.73581
249.77        62.60289
250.22         59.8064
250.68         54.7803
251.14        47.83773
251.59        42.37116
252.05        41.38306
252.51        44.19172
252.96        47.91814
253.42        49.81149
253.88        49.79047
254.33        48.64058
254.79        48.38461
255.25        50.51831
255.70        54.78647
256.16        60.45279
256.62        65.10349
257.07        65.18238
257.53        61.85828
257.99        57.43667
258.44        53.74853
258.90        52.58931
259.35        53.07529
259.81        54.57136
260.27        55.98363
260.72        56.04361
261.18        54.95025
261.63         53.1161
262.09        51.45761
262.55        50.46927
263.00        50.05898
263.46        50.06958
263.91        49.99609
264.37        49.49478
264.83        48.51933
265.28        47.24514
265.74        46.11611
266.19        45.38947
266.65        45.14789
267.11         45.1649
267.56        45.22761
268.02        45.01039
268.47        44.42789
268.93         43.6357
269.38        42.69408
269.84        41.74675
270.30        40.84192
270.75        39.92519
271.21          39.119
271.66        38.55372
272.12        38.23454
272.57        38.10075
273.03        37.95419
273.48        37.46071
273.94        36.61442
274.39        35.50403
274.85        34.40997
275.31        33.58571
275.76         33.0652
276.22        32.79789
276.67        32.61879
277.13        32.38184
277.58        31.99681
278.04        31.53043
278.49        31.02507
278.95        30.65382
279.40        30.38172
279.86        30.21243
280.31        29.95724
280.77        29.45912
281.22        28.68728
281.68        27.79266
282.13        26.94725
282.59        26.46035
283.04        26.33933
283.50        26.49789
283.95        26.74944
284.41        26.80812
284.86        26.59694
285.32        26.23112
285.77        25.82701
286.22        25.60668
286.68        25.60705
287.13        25.71213
287.59        25.83659
288.04        25.81341
288.50        25.63074
288.95          25.334
289.41        25.00166
289.86         24.6799
290.32        24.42559
290.77        24.20662
291.22        24.05441
291.68         24.0031
292.13        24.04568
292.59        24.19587
293.04        24.41379
293.50        24.65108
293.95        24.88454
294.40         25.1229
294.86        25.40071
295.31        25.76879
295.77        26.23657
296.22        26.77154
296.68        27.32317
297.13        27.80129
297.58        28.19497
298.04        28.53546
298.49        28.87119
298.95        29.29677
299.40        29.81833
299.85        30.39368
300.31        30.97562
300.76        31.48447
301.21        31.89751
301.67        32.25505
302.12        32.53681
302.58         32.7668
303.03        32.93921
303.48        33.07438
303.94        33.22359
304.39        33.43409
304.84        33.71822
305.30        34.05729
305.75        34.38709
306.20        34.65912
306.66          34.863
307.11        35.00659
307.57        35.08901
308.02        35.06376
308.47        34.95172
308.93        34.77417
309.38        34.60306
309.83        34.59654
310.29        34.77302
310.74        35.07693
311.19        35.37916
311.65        35.46126
312.10        35.26881
312.55        34.87249
313.00         34.4048
313.46        34.06337
313.91        33.88779
314.36         33.8322
314.82        33.80939
315.27         33.6888
315.72        33.43568
316.18        33.10739
316.63        32.77577
317.08         32.5605
317.53        32.48157
317.99        32.48508
318.44        32.49568
318.89        32.38594
319.35        32.12291
319.80        31.74842
320.25        31.32629
320.70        30.95719
321.16        30.67241
321.61        30.45732
322.06        30.27491
322.51        30.06717
322.97         29.8144
323.42        29.53969
323.87        29.28584
324.32        29.12302
324.78        29.05027
325.23        29.05604
325.68        29.04561
326.13        28.87384
326.59        28.51142
327.04        28.01684
327.49        27.50122
327.94        27.14047
328.39        26.97146
328.85        26.92964
329.30        26.94996
329.75        26.86191
330.20          26.616
330.66        26.26514
331.11        25.88209
331.56         25.5571
332.01        25.32217
332.46        25.14178
332.92        24.99093
333.37        24.87377
333.82        24.76684
334.27        24.68115
334.72        24.60017
335.17         24.4887
335.63        24.33904
336.08        24.17279
336.53        24.00718
336.98         23.8855
337.43        23.81713
337.88        23.77751
338.34        23.76237
338.79        23.78861
339.24        23.83686
339.69        23.90689
340.14        23.93232
340.59        23.80766
341.05        23.53316
341.50        23.14797
341.95        22.76636
342.40        22.56263
342.85        22.57474
343.30        22.74754
343.75        22.99094
344.20        23.15495
344.66        23.19146
345.11        23.13752
345.56        23.02909
346.01        22.92673
346.46        22.85461
346.91         22.7918
347.36        22.72902
347.81         22.6599
348.26        22.58113
348.72         22.4995
349.17        22.42501
349.62        22.37835
350.07        22.36225
350.52        22.37685
350.97        22.38043
351.42        22.30785
351.87         22.1541
352.32        21.94132
352.77         21.7484
353.22        21.69105
353.67        21.78677
354.13        22.00171
354.58        22.23806
355.03        22.33655
355.48        22.25525
355.93        22.03869
356.38         21.7881
356.83        21.65831
357.28        21.67967
357.73        21.80013
358.18        21.92395
358.63        21.89741
359.08        21.68799
359.53        21.35752
359.98         20.9988
360.43        20.74368
360.88        20.62436
361.33        20.59804
361.78        20.60911
362.23        20.57128
362.68        20.45997
363.13        20.30524
363.58        20.13984
364.03        20.01081
364.48        19.92879
364.93         19.8728
365.38        19.82108
365.83        19.74268
366.28        19.63219
366.73        19.50768
367.18        19.38405
367.63         19.2815
368.08        19.20638
368.53        19.14781
368.98         19.1081
369.43        19.09238
369.88        19.09386
370.33        19.10687
370.78        19.10411
371.23        19.04112
371.68         18.9104
372.13        18.72807
372.58         18.5255
373.03        18.35398
373.48        18.22963
373.93        18.13828
374.38        18.07245
374.83        18.01797
375.28        17.96564
375.72        17.91584
376.17        17.86509
376.62        17.78308
377.07        17.66976
377.52        17.53517
377.97         17.4032
378.42        17.31791
378.87        17.28672
379.32        17.28612
379.77         17.3031
380.22        17.31836
380.67        17.31915
381.11        17.31737
381.56        17.27203
382.01        17.13483
382.46        16.91427
382.91        16.64327
383.36        16.39273
383.81        16.25852
384.26        16.25294
384.71        16.34156
385.15        16.47606
385.60        16.57586
386.05        16.60669
386.50         16.5889
386.95        16.52397
387.40        16.41817
387.85        16.28562
388.29        16.11953
388.74        15.96684
389.19        15.85609
389.64        15.79098
390.09         15.7604
390.54        15.74658
390.98        15.71387
391.43        15.66097
391.88        15.59522
392.33        15.52049
392.78         15.4415
393.23        15.36277
393.67        15.27802
394.12        15.20667
394.57          15.147
395.02        15.09942
395.47        15.05809
395.91        15.03126
396.36        15.02236
396.81        15.03669
397.26         15.0698
397.71        15.09495
398.15        15.08329
398.60        15.04899
399.05        14.94006
399.50        14.79885
399.95        14.79456
400.39        14.88688
400.84        14.79953
401.29        14.55015
401.74        14.39726
402.18        14.35842
402.63         14.2865
403.08        14.19204
403.53        14.15264
403.97        14.16871
404.42        14.21759
404.87        14.26827
405.32        14.26974
405.76        14.20885
406.21        14.10823
406.66        14.00039
407.11        13.93902
407.55        13.94044
408.00        13.98093
408.45        14.03461
408.90        14.04884
409.34        14.00691
409.79        13.92939
410.24        13.84011
410.68        13.76582
411.13        13.71857
411.58        13.68865
412.03        13.66476
412.47        13.63237
412.92        13.58369
413.37        13.52811
413.81         13.4784
414.26        13.46227
414.71        13.47722
415.15        13.51852
415.60        13.55612
416.05        13.54917
416.49        13.49079
416.94        13.39536
417.39        13.29603
417.83        13.24355
418.28        13.24674
418.73        13.28335
419.17        13.33627
419.62         13.3765
420.07        13.39333
420.51        13.39883
420.96        13.38001
421.41        13.31412
421.85        13.20163
422.30        13.04584
422.74        12.89429
423.19        12.87714
423.64        12.98401
424.08        13.11437
424.53        13.20545
424.98        13.25336
425.42        13.24232
425.87        13.11128
426.31        12.92364
426.76          12.876
427.21        12.95535
427.65        12.95198
428.10        12.86566
428.54        12.83078
428.99        12.85026
429.44        12.88793
429.88        12.91735
430.33        12.84579
430.77        12.71456
431.22        12.75066
431.66        12.93137
432.11        12.99772
432.56         12.9397
433.00        12.94459
433.45        12.95916
433.89        12.80125
434.34        12.57475
434.78        12.22251
435.23         12.4512
435.67        12.47783
436.12        12.47615
436.57        12.47199
437.01        12.46588
437.46        12.46286
437.90        12.45302
438.35        12.40162
438.79        12.31844
439.24        12.26015
439.68        12.23512
440.13        12.22584
440.57        12.23141
441.02        12.26345
441.46        12.31541
441.91        12.34833
442.35        12.35171
442.80        12.43429
443.24        12.54031
443.69        12.46211
444.13        12.24281
444.58        12.14786
445.02        12.19411
445.47        12.24977
445.91        12.28571
446.36        12.31555
446.80        12.32637
447.24        12.31699
447.69        12.30109
448.13        12.29362
448.58        12.30077
449.02        12.31367
449.47        12.32461
449.91        12.31655
450.36        12.29035
450.80         12.2527
451.25        12.21518
451.69        12.18735
452.13          12.174
452.58        12.16893
453.02        12.17157
453.47        12.18315
453.91        12.20062
454.36        12.22454
454.80        12.23905
455.24        12.21761
455.69        12.16123
456.13        12.07066
456.58        11.98233
457.02        11.93118
457.46        11.92989
457.91        11.96593
458.35        12.00436
458.79         11.9911
459.24        11.92787
459.68         11.8275
460.13        11.73712
460.57        11.69458
461.01        11.71861
461.46        11.78256
461.90        11.87311
462.34        11.95648
462.79        12.01477
463.23        12.06227
463.68        12.08406
464.12        12.06493
464.56        12.00528
465.01        11.92485
465.45        11.83857
465.89        11.80111
466.34        11.81911
466.78        11.87772
467.22        11.95318
467.67        11.99042
468.11        11.98089
468.55        11.93451
468.99        11.88015
469.44        11.86227
469.88         11.8933
470.32        11.96015
470.77        12.03703
471.21        12.08617
471.65        12.09597
472.10        12.07908
472.54        12.05843
472.98        12.07461
473.42        12.13446
473.87        12.22712
474.31        12.31335
474.75        12.34682
475.20        12.32295
475.64        12.25434
476.08        12.18187
476.52        12.16072
476.97        12.20358
477.41        12.29936
477.85        12.41696
478.29        12.48649
478.74        12.50291
479.18        12.51565
479.62        12.53903
480.06        12.57491
480.50        12.63021
480.95        12.69155
481.39        12.73722
481.83        12.85909
482.27        12.86757
482.72        12.93052
483.16        12.99785
483.60        13.05818
484.04        13.10755
484.48        13.19007
484.93        13.36369
485.37         13.3914
485.81        13.63478
486.25         13.8349
486.69        13.66667
487.14        13.46671
487.58        14.21064
488.02        14.09518
488.46        13.95389
488.90         14.0707
489.34        13.83036
489.79        14.03053
490.23        14.33347
490.67        14.61242
491.11         14.7819
491.55        14.77867
491.99        14.66931
492.43         14.6764
492.88        14.82887
493.32        14.97585
493.76        15.09749
494.20        15.24993
494.64        15.43137
495.08        15.59356
495.52        15.72686
495.96         15.9212
496.41        16.13992
496.85        16.14285
497.29        15.98913
497.73        16.14639
498.17        16.38806
498.61        16.59627
499.05        16.66984
499.49        16.75683
499.93        16.82079
500.37        16.95459
500.82        17.12782
501.26        17.24338
501.70        17.29435
502.14        17.34731
502.58        17.42502
503.02         17.5292
503.46        17.66278
503.90        17.82151
504.34        17.97981
504.78        18.09386
505.22        18.15149
505.66        18.16636
506.10        18.15385
506.54        18.13984
506.98        18.13717
507.42        18.14177
507.86        18.16256
508.30        18.21292
508.74        18.29329
509.18        18.40007
509.62        18.51745
510.06        18.61861
510.50        18.69398
510.94        18.74651
511.38        18.78277
511.82        18.81559
512.26        18.85006
512.70        18.88441
513.14        18.91462
513.58        18.93476
514.02        18.94516
514.46        18.94871
514.90        18.95849
515.34         18.9938
515.78        19.05613
516.22        19.13802
516.66        19.21633
517.10        19.25438
517.54        19.24458
517.98        19.19835
518.42        19.13899
518.86        19.10473
519.30        19.10534
519.74         19.1282
520.18        19.15808
520.62        19.17035
521.06        19.15856
521.50        19.13376
521.93        19.10239
522.37        19.06696
522.81        19.03407
523.25        18.99923
523.69        18.97033
524.13        18.96095
524.57        18.96973
525.01        18.99076
525.45        19.00515
525.89        18.98169
526.32        18.91357
526.76        18.81834
527.20        18.71284
527.64        18.62541
528.08        18.56538
528.52        18.52327
528.96        18.49911
529.40        18.49266
529.83        18.49803
530.27        18.51486
530.71        18.52399
531.15        18.49595
531.59        18.42679
532.03        18.32621
532.46        18.21317
532.90        18.13177
533.34        18.09026
533.78        18.06771
534.22        18.05433
534.66        18.05651
535.09        18.05447
535.53        18.00977
535.97        17.93242
536.41        17.88428
536.85        17.87243
537.28        17.86611
537.72        17.86431
538.16        17.87911
538.60        17.91032
539.04        17.95512
539.47        18.01166
539.91        18.08811
540.35        18.17934
540.79        18.28241
541.22        18.38679
541.66        18.48291
542.10        18.56551
542.54        18.63802
542.97        18.70552
543.41        18.78459
543.85        18.87763
544.29        18.98322
544.72        19.09473
545.16        19.21539
545.60        19.34133
546.04        19.47558
546.47        19.62292
546.91        19.78538
547.35        19.95852
547.79        20.13927
548.22        20.31491
548.66        20.46387
549.10        20.60668
549.53        20.73772
549.97        20.86808
550.41        20.96799
550.84        21.06241
551.28         21.2071
551.72        21.37221
552.15        21.52698
552.59        21.69156
553.03         21.5576
553.46        21.79397
553.90        21.86691
554.34        21.97183
554.77        22.09925
555.21         22.2423
555.65        22.37025
556.08        22.46702
556.52        22.53135
556.96        22.57019
557.39        22.65604
557.83        22.77629
558.27        22.79215
558.70        22.72699
559.14        22.75645
559.57        22.87227
560.01        22.96132
560.45        23.01103
560.88        23.07263
561.32        23.15687
561.75        23.22639
562.19        23.29372
562.63        23.37421
563.06        23.46487
563.50        23.56299
563.93        23.64726
564.37        23.74057
564.80        23.84898
565.24        23.92434
565.68        23.91516
566.11        24.22925
566.55        24.01511
566.98        24.07291
567.42        24.18238
567.85        24.31511
568.29        24.47772
568.72        24.71258
569.16        25.02171
569.60        25.22049
570.03         25.3849
570.47        25.56167
570.90        25.79132
571.34        25.66398
571.77        25.92775
572.21        26.00753
572.64        26.10926
573.08        26.18122
573.51        26.26969
573.95        26.43653
574.38        26.67409
574.82        26.85323
575.25        26.68517
575.69        26.68924
576.12        26.71207
576.56        26.76853
576.99        26.91276
577.42         26.9677
577.86         26.9702
578.29        27.48361
578.73        27.19873
579.16        27.09476
579.60        26.77166
580.03        26.75751
580.47        26.74564
580.90        26.70761
581.33        26.77885
581.77        26.85167
582.20         26.5973
582.64        26.46499
583.07        26.32253
583.51        26.13687
583.94        25.99361
584.37        25.90392
584.81        25.85462
585.24        25.78584
585.68         25.7479
586.11         25.3838
586.54        25.35448
586.98        25.32728
587.41        25.46374
587.85        25.32417
588.28        24.97475
588.71        24.90085
589.15        24.94102
589.58        24.93583
590.01        25.01307
590.45        25.03134
590.88        25.02605
591.31        24.94578
591.75        24.88573
592.18        24.81715
592.61        24.69765
593.05        25.37866
593.48        25.39754
593.91        25.20621
594.35         25.2312
594.78        25.16187
595.21        25.26079
595.65         25.4732
596.08        25.82032
596.51        25.95198
596.94        25.79546
597.38        25.90132
597.81        26.27593
598.24        26.53745
598.68        26.70378
599.11        27.05431
599.54        27.69793
599.97        27.43402
600.41        27.92784
600.84        27.91642
601.27        28.30134
601.70        28.51153
602.14        28.76958
602.57        29.12078
603.00         29.6307
603.43        29.65647
603.87        30.31875
604.30        30.63206
604.73        31.03197
605.16        30.92474
605.60        31.41008
606.03        31.68432
606.46        32.07785
606.89        32.22434
607.32        33.02699
607.76        33.42309
608.19        33.64199
608.62        33.83201
609.05        34.10471
609.48        34.29885
609.92        34.85154
610.35        35.21078
610.78        35.30966
611.21        35.38348
611.64        35.87742
612.07        36.20619
612.50        36.32263
612.94        36.56409
613.37        36.88108
613.80        37.04966
614.23        37.10597
614.66         37.3231
615.09        37.70241
615.52        38.00913
615.96        38.20235
616.39        38.44514
616.82        38.72866
617.25        38.73253
617.68        38.92272
618.11        39.11493
618.54        39.42907
618.97        39.66951
619.40        39.80981
619.84        40.07444
620.27         40.0919
620.70        40.26461
621.13        40.44838
621.56        40.39664
621.99        40.14347
622.42         40.2211
622.85        40.18971
623.28        40.28603
623.71        40.39124
624.14        40.37395
624.57         40.8244
625.00        40.75844
625.43        40.82002
625.86        40.77737
626.29        40.84382
626.72        40.36277
627.15        40.51989
627.58        40.36612
628.01         40.2247
628.44        40.03861
628.87        39.82207
629.30        39.57212
629.73        39.35553
630.16        39.18366
630.59        39.01677
631.02        38.89797
631.45        38.77578
631.88        38.57866
632.31         38.2864
632.74        37.94949
633.17        37.53741
633.60        37.13744
634.03        36.75194
634.46        36.37687
634.89        36.00512
635.32        35.62639
635.75        35.24531
636.18        34.84401
636.61        34.44952
637.04        34.10593
637.47        33.81482
637.89        33.56326
638.32        33.29851
638.75         32.9662
639.18        32.56099
639.61        32.10876
640.04        31.67045
640.47        31.33615
640.90        31.12556
641.33        31.01418
641.76        30.95135
642.18        30.85627
642.61        30.69673
643.04        30.50021
643.47        30.30844
643.90        30.18843
644.33        30.15566
644.76        30.18713
645.18        30.24507
645.61        30.26274
646.04        30.23134
646.47         30.1802
646.90        30.15149
647.33        30.20732
647.75        30.35461
648.18        30.59038
648.61        30.90277
649.04        31.18949
649.47        31.38465
649.89        31.91769
650.32        31.96424
650.75        32.22887
651.18        32.50246
651.61         32.9319
652.03        33.45452
652.46        33.83143
652.89        34.10388
653.32        34.34764
653.74        34.62108
654.17        35.24636
654.60        35.66566
655.03        35.86155
655.46        35.96259
655.88        36.41841
656.31        37.94765
656.74        40.36503
657.16        40.18953
657.59        40.03032
658.02        39.01233
658.45        38.96363
658.87         38.8585
659.30         39.2722
659.73        39.69792
660.15         40.3779
660.58        39.92491
661.01         40.0326
661.44        40.36293
661.86        40.54583
662.29        40.55058
662.72          40.986
663.14         41.0802
663.57        41.32531
664.00         41.5214
664.42        41.80497
664.85        42.18338
665.27        42.59955
665.70        42.96453
666.13        43.19445
666.55        43.27583
666.98        43.19426
667.41        43.02463
667.83        43.16922
668.26        43.21093
668.69        43.47102
669.11        43.78448
669.54        44.06585
669.96        44.28576
670.39        44.55291
670.82        44.84761
671.24        44.85743
671.67        44.87795
672.09        44.95797
672.52         45.1846
672.94        45.46143
673.37         45.7137
673.80        45.73191
674.22         45.5778
674.65        45.58255
675.07        45.78591
675.50        45.96793
675.92         46.1054
676.35        46.25208
676.77        46.38956
677.20        46.52074
677.62        46.65658
678.05        46.72924
678.47        46.72167
678.90        46.99164
679.32        46.92679
679.75        47.01194
680.17        47.06863
680.60        47.11762
681.02        47.17607
681.45        47.28542
681.87        47.46466
682.30        47.66302
682.72         47.8585
683.15        48.04485
683.57        48.18921
684.00        48.16068
684.42        48.03301
684.85        48.06076
685.27        48.27292
685.70        48.52646
686.12        48.74646
686.54        48.95859
686.97         49.1543
687.39        48.98765
687.82        49.11975
688.24        49.08157
688.66        49.08187
689.09        49.09265
689.51        49.13892
689.94        49.22443
690.36        49.34612
690.78         49.4979
691.21        49.67275
691.63        49.83947
692.06        49.98284
692.48        50.17303
692.90        50.24847
693.33        50.29449
693.75        50.26711
694.17        50.14563
694.60        50.03123
695.02        50.07409
695.44        50.27615
695.87        50.68893
696.29        51.16636
696.71        51.09911
697.14        50.64359
697.56        50.72593
697.98        51.29374
698.41        51.63571
698.83        51.51075
699.25        51.60826
699.68        51.83059
700.10        51.92717
700.52         51.8715
700.94        51.75451
701.37        51.65442
701.79        51.69552
702.21        51.89846
702.64        52.20344
703.06        52.54092
703.48        52.78656
703.90        52.90023
704.33        52.91908
704.75        52.87321
705.17        52.80684
705.59        52.75005
706.01        52.69366
706.44        52.67024
706.86        52.74589
707.28        52.91768
707.70        53.17277
708.12        53.46714
708.55        53.70393
708.97        53.86753
709.39        54.00184
709.81        54.10509
710.23          54.162
710.66        54.17511
711.08        54.16875
711.50        54.14959
711.92        54.11244
712.34        54.06451
712.76        54.07174
713.19        54.14825
713.61        54.05719
714.03        54.24016
714.45        54.33617
714.87        54.48061
715.29        54.66589
715.71        54.88227
716.13         55.1096
716.56        55.32676
716.98        55.50462
717.40        55.58551
717.82         55.7344
718.24        55.95952
718.66         55.4404
719.08        55.51823
719.50          55.179
719.92        54.90739
720.34         54.8064
720.76        54.91309
721.19        55.15153
721.61        55.48351
722.03        55.83566
722.45        56.15052
722.87        56.43211
723.29        56.61242
723.71        56.58723
724.13        56.35664
724.55         55.9666
724.97        55.53749
725.39        55.27334
725.81        55.23619
726.23        55.36009
726.65        55.58733
727.07        55.93783
727.49        56.16356
727.91        56.44558
728.33         56.7072
728.75        56.90632
729.17        57.02488
729.59        57.11241
730.01        57.17345
730.43        57.08872
730.85        56.93647
731.27        57.02343
731.69        57.28678
732.10        57.35641
732.52        57.20644
732.94           57.05
733.36        56.95144
733.78        56.82761
734.20        56.69727
734.62        56.77334
735.04        57.08689
735.46        56.75522
735.88        57.29258
736.30        57.36856
736.72         57.4755
737.13        57.84936
737.55        58.34036
737.97        58.56199
738.39        58.45538
738.81        58.09794
739.23        57.67519
739.65        57.73299
740.06        58.17644
740.48        58.37786
740.90        58.29067
741.32        58.26466
741.74        58.45304
742.16        58.55242
742.57        58.59573
742.99        58.62804
743.41        58.63573
743.83        58.57454
744.25        58.44922
744.67         58.2688
745.08        58.11819
745.50         58.1162
745.92        58.28708
746.34        58.58134
746.75        58.90047
747.17        59.06097
747.59        59.02646
748.01        58.89176
748.42        58.71873
748.84        58.54634
749.26        58.45895
749.68        58.53645
750.09        58.74104
750.51        59.01284
750.93        59.23111
751.35        59.16153
751.76        58.86172
752.18        58.67242
752.60        58.61673
753.01        58.61964
753.43        58.45432
753.85        58.38802
754.27        58.37437
754.68        58.40773
755.10        58.49686
755.52        58.65607
755.93        58.85891
756.35        59.06176
756.77        59.27082
757.18        59.41378
757.60        59.47553
758.02        59.70029
758.43        59.95633
758.85         59.4828
759.26        58.89942
759.68        58.59312
760.10        58.78089
760.51        59.34108
760.93        59.95546
761.34        60.04806
761.76        59.69602
762.18        59.68559
762.59        60.07046
763.01        60.17033
763.42        60.01281
763.84        59.94857
764.26         60.0124
764.67        59.99632
765.09        59.93391
765.50        59.85425
765.92        59.76494
766.33        59.62767
766.75        59.40071
767.16        59.11963
767.58        58.88005
768.00        58.91357
768.41        59.24779
768.83        59.82124
769.24        60.37239
769.66        60.43324
770.07        60.06128
770.49        59.57069
770.90        59.23776
771.32        59.69276
771.73        60.70714
772.15        61.07643
772.56        60.70498
772.97        60.26798
773.39        59.94981
773.80        59.74757
774.22        59.70783
774.63        59.87514
775.05        60.10868
775.46        60.23917
775.88        60.19267
776.29        60.04787
776.70        59.88643
777.12        59.86243
777.53         60.0111
777.95        60.22543
778.36        60.45848
778.77        60.58606
779.19        60.59352
779.60        60.61478
780.02        60.59668
780.43        60.41752
780.84        60.19418
781.26        59.88247
781.67        59.67566
782.09        60.42561
782.50        61.73489
782.91        61.77693
783.33        60.68014
783.74        60.28523
784.15        60.67414
784.57         60.8455
784.98        60.75068
785.39         60.5684
785.81        60.42702
786.22        60.80655
786.63        61.55177
787.04        61.88552
787.46        61.74368
787.87        61.50694
788.28        61.33756
788.70        61.26097
789.11        61.29034
789.52        61.57862
789.93        61.96332
790.35        61.81658
790.76        61.25985
791.17        61.16391
791.58        61.53537
792.00        61.61303
792.41        61.38994
792.82        61.43894
793.23        61.71096
793.65        61.62047
794.06        61.31443
794.47        61.51498
794.88        62.05782
795.29        62.52079
795.71        62.02258
796.12        61.83186
796.53        61.77958
796.94        61.46133
797.35        61.05881
797.76        61.40082
798.18        62.30956
798.59        62.76041
799.00        62.62086
799.41        62.42184
799.82        62.27434
800.23        62.13845
800.64        62.06017
801.06        62.01604
801.47        62.00455
801.88        61.95109
802.29        61.83458
802.70        61.67041
803.11        61.50676
803.52        61.41932
803.93        61.45428
804.34         61.6068
804.75        61.80364
805.17        62.05677
805.58        62.39993
805.99        62.36622
806.40        62.11432
806.81        62.98772
807.22         64.5108
807.63        64.17464
808.04        62.28475
808.45        61.49978
808.86        62.02131
809.27        62.40347
809.68        62.43617
810.09         62.4627
810.50        62.41838
810.91        62.20377
811.32        61.99069
811.73        62.00666
812.14        62.28519
812.55        62.91012
812.96        63.62389
813.37        63.58226
813.78        62.84178
814.19        62.37542
814.60        62.29112
815.01        62.07165
815.42        61.75297
815.83        61.68681
816.24        61.85903
816.65        62.00969
817.05        62.09625
817.46         62.1849
817.87        62.24831
818.28         62.1894
818.69        62.00724
819.10        61.70335
819.51        61.42071
819.92         61.4345
820.33         61.7944
820.74        62.39658
821.14         63.0417
821.55        63.40585
821.96        63.40524
822.37        63.14292
822.78        62.72803
823.19        62.35348
823.60        62.10555
824.00        61.94894
824.41        61.87532
824.82        61.96495
825.23        62.20454
825.64        62.58539
826.04        62.99383
826.45        63.19471
826.86        63.14919
827.27        62.92121
827.68        62.61137
828.08        62.43027
828.49        62.39852
828.90        62.46601
829.31        62.62816
829.72        62.87912
830.12        63.20837
830.53        63.56686
830.94        63.84027
831.35        63.78479
831.75        63.37955
832.16        62.69529
832.57        61.94881
832.97        61.46724
833.38        61.34842
833.79        61.48732
834.20         61.8143
834.60        62.20927
835.01        62.60581
835.42         63.0614
835.82        63.48336
836.23        63.63675
836.64          63.507
837.04        63.12329
837.45        62.70542
837.86        62.68355
838.26        63.16502
838.67        63.98652
839.08        64.85225
839.48        65.18301
839.89        64.81372
840.29        63.95687
840.70        63.01074
841.11        62.38485
841.51        62.20488
841.92        62.31777
842.33        62.63371
842.73        63.00812
843.14        63.27603
843.54        63.53798
843.95        63.76166
844.35        63.93816
844.76        64.04909
845.17        64.07542
845.57         64.0402
845.98        63.97064
846.38        63.90134
846.79        63.82274
847.19        63.74691
847.60         63.6721
848.00        63.60508
848.41        63.52111
848.81        63.44803
849.22         63.3498
849.62        63.26295
850.03        63.20177
850.43        63.14779
850.84         63.0069
851.24        62.81096
851.65        62.51767
852.05        62.34558
852.46        62.57004
852.86        63.20683
853.27        64.12103
853.67        64.92514
854.07        65.19556
854.48        64.84503
854.88        64.03059
855.29        62.98635
855.69        62.27111
856.10        62.02392
856.50         62.1769
856.90        62.52957
857.31        62.74823
857.71        62.76827
858.12        62.63342
858.52        62.48214
858.92        62.42887
859.33        62.49723
859.73        62.67174
860.13        62.82116
860.54        62.77211
860.94        62.53027
861.34        62.13995
861.75        61.77162
862.15        61.73418
862.55        62.07103
862.96        62.65875
863.36        63.31596
863.76        63.65685
864.17        63.55805
864.57        63.15968
864.97         62.5915
865.38        62.06862
865.78        61.69942
866.18        61.42517
866.58        61.25446
866.99         61.2005
867.39        61.27838
867.79        61.49647
868.19         61.8109
868.60        62.11834
869.00        62.40815
869.40        62.65191
869.80        62.85657
870.21        63.04501
870.61        63.25711
871.01        63.43346
871.41         63.4697
871.81        63.22165
872.22        62.68608
872.62        61.91919
873.02        61.15002
873.42        60.76222
873.82        60.86225
874.22        61.35003
874.63        61.96596
875.03        62.30435
875.43        62.24186
875.83        61.89001
876.23        61.46406
876.63        61.30599
877.03        61.49851
877.44        61.90194
877.84        62.34025
878.24        62.54643
878.64        62.40488
879.04        61.88046
879.44        61.24911
879.84        61.03912
880.24        61.31573
880.64        61.86439
881.04        62.39486
881.44        62.46722
881.84         61.9779
882.24        61.09603
882.65        60.11618
883.05        59.48303
883.45        59.32712
883.85        59.52435
884.25        59.91528
884.65        60.22347
885.05        60.34962
885.45        60.38084
885.85        60.38665
886.25        60.46754
886.65        60.65064
887.05        60.87769
887.45        61.09882
887.85         61.2527
888.25        61.31004
888.65        61.28399
889.04        61.20179
889.44        61.13167
889.84        61.07587
890.24        61.02048
890.64        60.92356
891.04        60.71989
891.44        60.41768
891.84        60.07262
892.24        59.75999
892.64        59.57587
893.04        59.55381
893.44        59.67838
893.83           59.94
894.23        60.26873
894.63        60.64028
895.03        61.02337
895.43        61.40708
895.83         61.7869
896.23        62.12736
896.63        62.39643
897.02        62.48411
897.42        62.25802
897.82        61.72554
898.22        60.99048
898.62        60.22541
899.01        59.66825
899.41        59.40615
899.81        59.37411
900.21        59.52914
900.61        59.78848
901.00        60.09283
901.40        60.43815
901.80        60.75885
902.20        60.94926
902.59        60.99522
902.99        60.91313
903.39         60.7379
903.79        60.54273
904.18        60.35535
904.58        60.16066
904.98        60.04412
905.38        60.13451
905.77        60.44434
906.17        60.97054
906.57        61.49067
906.96        61.63208
907.36        61.30647
907.76        60.61689
908.15        59.93733
908.55        59.84794
908.95        60.46936
909.34        61.63482
909.74        62.84894
910.14        63.36905
910.53        62.98756
910.93        61.97486
911.33        60.74695
911.72        59.93488
912.12        59.77103
912.52         60.0547
912.91        60.55027
913.31        60.92241
913.70        61.06873
914.10        61.06252
914.49        61.08253
914.89        61.33843
915.29        61.87869
915.68         62.6004
916.08        63.18958
916.47        63.21539
916.87        62.62519
917.26        61.58738
917.66        60.51753
918.05        59.88821
918.45        59.81783
918.84        60.20482
919.24        60.79337
919.64        61.25296
920.03         61.4608
920.42        61.46903
920.82        61.42976
921.21        61.53011
921.61        61.79545
922.00        62.17709
922.40        62.48263
922.79        62.53319
923.19        62.26835
923.58         61.8058
923.98        61.33475
924.37        61.06453
924.77        61.06069
925.16        61.21655
925.55        61.47125
925.95        61.69539
926.34        61.83975
926.74        61.92515
927.13        61.87825
927.52         61.5201
927.92        60.90609
928.31        60.10087
928.70        59.35165
929.10        59.01153
929.49        59.13737
929.89        59.57403
930.28        60.24519
930.67        60.89603
931.07        61.37987
931.46         61.8291
931.85        62.04889
932.24        61.78389
932.64        61.08278
933.03        60.00059
933.42        59.01526
933.82        58.82643
934.21        59.55572
934.60        61.05661
934.99        62.79624
935.39        63.78588
935.78        63.76969
936.17         62.9343
936.56        61.80763
936.96        61.23975
937.35        61.43949
937.74        62.12862
938.13        62.85996
938.53        62.95545
938.92        62.27547
939.31        61.12459
939.70        59.87865
940.09        59.03566
940.49        58.70644
940.88        58.75749
941.27        59.07273
941.66        59.44074
942.05        59.76126
942.44        60.11271
942.84         60.4689
943.23        60.76529
943.62        60.99313
944.01        61.10088
944.40        61.16104
944.79        61.33571
945.18        61.63599
945.57        62.00697
945.97        62.24715
946.36        62.11419
946.75        61.54074
947.14        60.69133
947.53        59.79454
947.92        59.15414
948.31        58.86097
948.70        58.83636
949.09         59.0424
949.48          59.407
949.87           59.86
950.26        60.38711
950.65          60.898
951.04         61.2459
951.43        61.38162
951.82        61.32944
952.21        61.10337
952.60        60.75342
952.99        60.34646
953.38        59.91074
953.77        59.57197
954.16         59.5214
954.55        59.77352
954.94        60.23999
955.33         60.7945
955.72        61.19687
956.11        61.34269
956.50        61.30703
956.89        61.00662
957.28        60.33429
957.66        59.34848
958.05        58.16186
958.44        57.12553
958.83        56.73647
959.22        57.05991
959.61        57.96204
960.00        59.08101
960.39        59.71608
960.78        59.63057
961.16        59.01149
961.55        58.19904
961.94        57.63715
962.33        57.46264
962.72        57.56739
963.11        57.82339
963.49        58.02893
963.88        58.03768
964.27        57.91904
964.66        57.86421
965.04         58.1712
965.43        58.83241
965.82        59.80272
966.21        60.66375
966.60        60.64143
966.98        59.57183
967.37        57.82753
967.76        56.11058
968.15        55.30001
968.53         55.5523
968.92        56.64271
969.31        58.10813
969.69        58.99553
970.08        58.89656
970.47        58.12611
970.86         57.2246
971.24        56.96455
971.63        57.51717
972.02        58.63852
972.40        59.94714
972.79        60.47972
973.17        60.01624
973.56        58.93024
973.95        57.71738
974.33        56.98679
974.72        56.88501
975.11        57.17654
975.49        57.75172
975.88        58.34966
976.26        58.85798
976.65        59.31237
977.04        59.58261
977.42        59.42771
977.81        58.81223
978.19        57.79253
978.58        56.77803
978.96        56.40282
979.35        56.79729
979.74         57.8179
980.12        59.12823
980.51        59.87427
980.89        59.91465
981.28        59.46296
981.66        58.86959
982.05        58.61523
982.43         58.8345
982.82         59.3241
983.20        60.05779
983.59        60.90763
983.97        61.82463
984.35        62.82483
984.74        63.56527
985.12        63.69567
985.51        63.11943
985.89        62.01447
986.28        60.86312
986.66         60.3209
987.04        60.60389
987.43        61.48668
987.81        62.73146
988.20         63.7312
988.58        64.21386
988.96        64.23293
989.35        63.84728
989.73        63.14729
990.12        62.20596
990.50        61.08041
990.88        59.77806
991.27         58.4171
991.65        57.16413
992.03        56.06528
992.42        55.48151
992.80          55.853
993.18        57.20602
993.56        59.43782
993.95        61.79842
994.33        62.99059
994.71        62.49125
995.10        60.75197
995.48        58.63497
995.86         57.5222
996.24        57.74881
996.63        58.83502
997.01        60.46553
997.39        61.62857
997.77        61.86506
998.15        61.59113
998.54        60.89153
998.92        59.75075
999.30        58.37061
999.68        56.73396
1000.06        55.41208
1000.45         55.2133
1000.83        56.35012
1001.21        58.74437
1001.59        61.70599
1001.97        63.46933
1002.35        63.39624
1002.73         62.0459
1003.12        60.50783
1003.50        60.15401
1003.88        61.39819
1004.26        63.68499
1004.64        66.65857
1005.02        69.44952
1005.40        71.42754
1005.78        72.89463
1006.16        73.24158
1006.54        71.55215
1006.92        68.04653
1007.30        63.20124
1007.69         58.6358
1008.07         56.4704
1008.45        57.28819
1008.83        60.68345
1009.21        65.51379
1009.59        68.77782
1009.97        68.97688
1010.35        66.91332
1010.73        63.66269
1011.11        60.83912
1011.49        59.04047
1011.86        57.82333
1012.24        57.17037
1012.62        57.10003
1013.00        57.54975
1013.38        58.61811
1013.76        60.25235
1014.14        61.99653
1014.52        63.44779
1014.90        64.49274
1015.28        64.93768
1015.66        64.70658
1016.04        63.88902
1016.41        62.52741
1016.79        60.96999
1017.17        59.97645
1017.55        59.78442
1017.93        60.20036
1018.31        60.92588
1018.69        61.47766
1019.06        61.73953
1019.44         61.9017
1019.82        61.87148
1020.20         61.4953
1020.58        60.78751
1020.95        59.66146
1021.33        58.74326
1021.71        58.68349
1022.09        59.56657
1022.46        61.51995
1022.84        63.66052
1023.22        63.87101
1023.60        61.53559
1023.97        57.31154
1024.35         53.5477
1024.73        52.83492
