SpectraSmart Spectrum 2.9.0.0
--------- Device Information -----------
Spectrum Name :  反射率_0
Saving Time :  2024/04/26 23:37:43
Spectro-Module Model Name : SE2030-DUVN
Spectro-Module Serial Number : OS361AC55029948
Wavelength Start : 200
Wavelength End : 1025
Wavelength Unit : Wavelength(nm)
Spectrum Unit : Reflectance(%)
-----------Spectrum Setting ------------
Integration Time : 20ms
Average : 10
Boxcar : 0
Background removal :  enabled
linearity correction :  enabled
SC :  disabled
Intensity correction :  disabled
DWT denoise :  enabled
savitzky-golay :  disabled
FFT :  disabled
Running average :  disabled
Kalman :  disabled
High pass :  disabled
---------------BEGIN--------------------
Wavelength(nm)             Reflectance(%)
200.29               0
200.75        26.79251
201.21        25.22197
201.67        24.69833
202.13        25.67907
202.58        28.17697
203.04        32.78516
203.50        39.52248
203.96        46.54176
204.42        51.88267
204.88         54.9214
205.34        55.68177
205.80         55.7221
206.26        55.59567
206.72        54.58479
207.18         53.0122
207.64        50.94486
208.10        48.19965
208.55        45.03609
209.01        40.61594
209.47          36.264
209.93        34.42337
210.39        34.72535
210.85        36.35958
211.31        39.38651
211.77        44.92001
212.23        56.85564
212.69        85.89626
213.14        133.9888
213.60        129.9678
214.06        94.27023
214.52        70.58903
214.98        60.17801
215.44        55.86469
215.90        53.49361
216.36        52.36642
216.81        51.91236
217.27        52.27783
217.73        54.93404
218.19        59.11128
218.65        59.81511
219.11         56.1977
219.57        51.20913
220.02        49.23062
220.48         53.7607
220.94        65.29077
221.40        85.94165
221.86         115.235
222.32        134.3013
222.77        126.8332
223.23         105.452
223.69        84.78829
224.15        73.17918
224.61        68.99982
225.06        68.12891
225.52        69.09196
225.98        70.25612
226.44        71.25751
226.90        72.76585
227.36        74.41248
227.81        75.28298
228.27        75.32824
228.73        74.47134
229.19        73.60105
229.65        73.90337
230.10        75.35643
230.56        77.67518
231.02         79.6439
231.48        79.37797
231.93        76.74728
232.39        73.03004
232.85         69.6088
233.31        68.30386
233.77        69.22491
234.22        71.61923
234.68        74.55563
235.14        76.67869
235.60        77.47318
236.05         77.3671
236.51        76.25561
236.97        74.20576
237.43        71.48368
237.88        68.20099
238.34        64.93546
238.80        62.83274
239.26        62.25545
239.71        63.56749
240.17        66.48077
240.63        70.18271
241.08        74.02361
241.54        77.45394
242.00        80.67446
242.46        84.73286
242.91        90.87231
243.37        98.78378
243.83        108.0968
244.28        113.5371
244.74        108.2848
245.20        94.92545
245.66         81.0882
246.11        71.40682
246.57        66.02663
247.03        62.84187
247.48         62.2536
247.94         64.6901
248.40          68.482
248.85        72.13703
249.31        74.42117
249.77        73.71751
250.22        69.88178
250.68        62.69059
251.14        52.96949
251.59        46.02483
252.05        45.99544
252.51        51.17277
252.96        57.46616
253.42        61.19231
253.88        62.05195
254.33         61.0183
254.79        60.36905
255.25        61.67355
255.70         64.7537
256.16        69.05034
256.62        72.17519
257.07        70.82675
257.53        66.56664
257.99        61.68078
258.44        58.04278
258.90        57.53935
259.35        59.09309
259.81        61.90409
260.27        64.57635
260.72        65.40726
261.18        64.59391
261.63        62.72224
262.09        60.92358
262.55        59.84701
263.00        59.42932
263.46         59.4879
263.91         59.5062
264.37        59.19373
264.83        58.47238
265.28        57.49138
265.74        56.66662
266.19        56.16171
266.65        56.07383
267.11        56.19737
267.56        56.35484
268.02        56.28337
268.47        55.90365
268.93        55.34732
269.38        54.64448
269.84        53.91453
270.30        53.18212
270.75        52.38222
271.21        51.63602
271.66        51.06173
272.12        50.66284
272.57        50.37166
273.03        49.98743
273.48        49.16459
273.94        47.93637
274.39        46.42701
274.85          44.965
275.31        43.82801
275.76         43.0542
276.22        42.58948
276.67        42.28388
277.13        42.04379
277.58        41.74519
278.04        41.42795
278.49        41.02198
278.95        40.56651
279.40        40.00167
279.86        39.40627
280.31        38.68184
280.77        37.82991
281.22        36.84388
281.68        35.84684
282.13        34.94429
282.59        34.38037
283.04        34.12796
283.50          34.118
283.95        34.19239
284.41        34.12114
284.86        33.82992
285.32        33.41884
285.77        32.92905
286.22        32.49062
286.68        32.13684
287.13        31.78774
287.59        31.46313
288.04        31.14774
288.50         30.8634
288.95         30.5964
289.41        30.33411
289.86        29.97492
290.32        29.55051
290.77        29.07498
291.22        28.64228
291.68        28.37634
292.13        28.28681
292.59        28.34901
293.04        28.49213
293.50         28.6283
293.95        28.71822
294.40        28.78938
294.86        28.87622
295.31        29.02306
295.77        29.24891
296.22        29.52793
296.68        29.83469
297.13        30.11677
297.58        30.37147
298.04        30.61784
298.49        30.89229
298.95        31.26813
299.40        31.74274
299.85        32.28487
300.31        32.83558
300.76        33.29448
301.21        33.64375
301.67        33.93231
302.12        34.17548
302.58        34.45685
303.03        34.77094
303.48          35.106
303.94        35.47231
304.39        35.85356
304.84        36.24704
305.30         36.6602
305.75        37.02974
306.20        37.31232
306.66        37.51279
307.11        37.63891
307.57        37.73797
308.02        37.83296
308.47        37.95058
308.93         38.0873
309.38        38.24831
309.83        38.49204
310.29        38.81655
310.74        39.19724
311.19         39.5512
311.65        39.73544
312.10        39.71333
312.55        39.52282
313.00        39.27302
313.46        39.13326
313.91        39.12779
314.36        39.21846
314.82        39.30908
315.27        39.25221
315.72        39.01297
316.18        38.66122
316.63        38.27902
317.08        38.00625
317.53        37.87533
317.99        37.83084
318.44        37.82419
318.89        37.76453
319.35        37.62253
319.80        37.43282
320.25        37.20661
320.70        36.96015
321.16        36.70483
321.61        36.44305
322.06        36.19828
322.51        36.01844
322.97        35.90271
323.42        35.83657
323.87        35.78793
324.32        35.70792
324.78         35.5653
325.23         35.3964
325.68        35.16366
326.13        34.82418
326.59        34.39103
327.04        33.89667
327.49        33.43894
327.94        33.17406
328.39        33.12397
328.85        33.22898
329.30        33.40269
329.75        33.41555
330.20        33.19933
330.66        32.81172
331.11        32.35732
331.56        31.98252
332.01        31.73679
332.46        31.56923
332.92        31.43995
333.37        31.33406
333.82        31.21812
334.27        31.11972
334.72         31.0214
335.17        30.88187
335.63        30.69625
336.08        30.48883
336.53        30.30056
336.98        30.21758
337.43        30.25529
337.88        30.37464
338.34        30.52767
338.79        30.66451
339.24        30.73972
339.69        30.76627
340.14        30.71033
340.59        30.52411
341.05         30.2267
341.50        29.84262
341.95        29.46412
342.40        29.22884
342.85        29.17238
343.30        29.26236
343.75        29.43675
344.20        29.58817
344.66        29.67793
345.11        29.72051
345.56        29.73643
346.01        29.76371
346.46        29.81114
346.91        29.86158
347.36        29.87992
347.81        29.82168
348.26        29.68326
348.72         29.4845
349.17        29.28488
349.62        29.18728
350.07        29.21253
350.52        29.33809
350.97        29.47191
351.42        29.46504
351.87        29.28791
352.32         28.9847
352.77        28.67303
353.22        28.52588
353.67        28.57412
354.13        28.76683
354.58         28.9748
355.03        28.98679
355.48        28.75645
355.93        28.35608
356.38        27.93664
356.83        27.72148
357.28         27.7536
357.73        27.95666
358.18        28.19245
358.63        28.23796
359.08        28.03654
359.53        27.66522
359.98         27.2399
360.43        26.92955
360.88          26.775
361.33        26.71999
361.78        26.69268
362.23        26.58263
362.68        26.36624
363.13        26.09383
363.58        25.81879
364.03        25.61595
364.48        25.50271
364.93        25.44327
365.38        25.41438
365.83        25.38338
366.28        25.33262
366.73        25.27364
367.18        25.18613
367.63        25.03703
368.08        24.82716
368.53        24.56634
368.98        24.30114
369.43        24.10826
369.88        24.00412
370.33        23.96774
370.78        23.95478
371.23        23.88831
371.68        23.74709
372.13        23.55664
372.58        23.34821
373.03        23.17067
373.48         23.0398
373.93        22.93826
374.38        22.85536
374.83        22.77719
375.28        22.69485
375.72        22.60494
376.17        22.51846
376.62        22.42212
377.07        22.31581
377.52        22.20461
377.97        22.08623
378.42        21.96181
378.87        21.83613
379.32        21.70729
379.77         21.5989
380.22        21.54338
380.67        21.54013
381.11        21.58597
381.56        21.61954
382.01        21.56018
382.46        21.39711
382.91        21.16567
383.36        20.93499
383.81        20.80021
384.26        20.77572
384.71        20.82845
385.15        20.91006
385.60        20.94175
386.05         20.8976
386.50        20.80316
386.95        20.68107
387.40        20.56701
387.85        20.47456
388.29         20.3787
388.74        20.30148
389.19        20.22688
389.64        20.14939
390.09        20.06917
390.54         19.9839
390.98        19.88463
391.43        19.78429
391.88        19.68509
392.33        19.58609
392.78        19.48451
393.23        19.38317
393.67        19.27712
394.12        19.19634
394.57        19.14569
395.02        19.12465
395.47        19.12163
395.91        19.13015
396.36        19.12864
396.81        19.11898
397.26        19.10579
397.71        19.07876
398.15        19.03573
398.60         19.0015
399.05        18.90076
399.50         18.7697
399.95        18.79818
400.39         18.9302
400.84        18.82228
401.29        18.50946
401.74        18.34174
402.18        18.34539
402.63        18.32112
403.08        18.26584
403.53        18.25533
403.97        18.28475
404.42        18.33531
404.87        18.37586
405.32        18.35524
405.76        18.26305
406.21        18.12283
406.66        17.98203
407.11        17.91817
407.55        17.95145
408.00        18.05098
408.45        18.16562
408.90        18.19427
409.34        18.10892
409.79        17.94791
410.24        17.76748
410.68        17.63996
411.13        17.58796
411.58        17.58754
412.03        17.60904
412.47        17.60445
412.92        17.55458
413.37        17.48472
413.81        17.41615
414.26        17.39243
414.71        17.41393
415.15        17.46763
415.60        17.52698
416.05        17.56369
416.49        17.56765
416.94        17.54725
417.39         17.5098
417.83        17.46431
418.28        17.41642
418.73        17.36172
419.17        17.31538
419.62        17.30289
420.07        17.32652
420.51        17.37337
420.96        17.42053
421.41        17.42743
421.85        17.38004
422.30        17.28731
422.74        17.16478
423.19        17.11262
423.64        17.11325
424.08        17.05366
424.53        16.93958
424.98        16.91367
425.42        16.99306
425.87         17.0596
426.31        17.09904
426.76        17.21336
427.21        17.34265
427.65         17.2478
428.10        16.99993
428.54        16.89123
428.99        16.95093
429.44        17.08834
429.88        17.22152
430.33        17.15664
430.77        16.93698
431.22        16.90301
431.66        17.04942
432.11        17.07297
432.56        16.97635
433.00        16.99038
433.45        17.05143
433.89        16.93148
434.34        16.75169
434.78        16.42112
435.23         16.8521
435.67        16.94001
436.12        16.91162
436.57        16.81961
437.01        16.69898
437.46        16.61807
437.90        16.58426
438.35        16.53436
438.79        16.46853
439.24        16.44196
439.68        16.45691
440.13        16.49991
440.57        16.55685
441.02        16.61944
441.46        16.67598
441.91         16.6792
442.35        16.64212
442.80        16.75173
443.24         16.9391
443.69         16.9128
444.13        16.70089
444.58        16.61508
445.02        16.66788
445.47        16.69224
445.91        16.67879
446.36        16.69343
446.80        16.72908
447.24        16.77015
447.69        16.80492
448.13        16.80698
448.58         16.7764
449.02        16.71949
449.47        16.65884
449.91        16.62109
450.36        16.61856
450.80        16.64089
451.25        16.67618
451.69        16.69516
452.13        16.69168
452.58        16.66778
453.02         16.6375
453.47        16.62604
453.91        16.63701
454.36        16.66595
454.80        16.67986
455.24        16.62592
455.69        16.50575
456.13        16.33162
456.58        16.17336
457.02         16.1073
457.46        16.15321
457.91        16.28116
458.35        16.42154
458.79        16.46808
459.24        16.41092
459.68        16.27576
460.13        16.13522
460.57        16.05535
461.01        16.06678
461.46        16.13202
461.90        16.23001
462.34        16.31308
462.79         16.3575
463.23        16.38313
463.68        16.38309
464.12        16.35526
464.56        16.30105
465.01        16.24096
465.45        16.16713
465.89        16.11556
466.34        16.09142
466.78        16.08409
467.22          16.097
467.67        16.11857
468.11        16.15307
468.55        16.19583
468.99        16.23785
469.44        16.26299
469.88        16.26846
470.32        16.25492
470.77        16.23577
471.21        16.23701
471.65        16.26248
472.10        16.30822
472.54        16.35271
472.98        16.36864
473.42        16.35052
473.87        16.31171
474.31        16.26508
474.75        16.24593
475.20        16.26433
475.64        16.30358
476.08        16.34665
476.52        16.35789
476.97        16.33191
477.41        16.29064
477.85        16.25978
478.29        16.25669
478.74        16.30195
479.18        16.42191
479.62        16.58323
480.06        16.70349
480.50        16.77057
480.95        16.80407
481.39        16.79909
481.83        16.89754
482.27        16.87488
482.72        16.91838
483.16         16.9813
483.60        17.04545
484.04        17.09697
484.48        17.27405
484.93        17.58476
485.37        17.46694
485.81         17.5168
486.25        17.76288
486.69        17.75471
487.14        17.74446
487.58         18.2902
488.02        18.11752
488.46        17.92284
488.90        18.08763
489.34        18.06331
489.79        18.30114
490.23        18.48178
490.67         18.6475
491.11        18.74107
491.55        18.65423
491.99        18.46845
492.43        18.42663
492.88        18.56743
493.32        18.76345
493.76        18.97011
494.20        19.17911
494.64        19.37597
495.08        19.52537
495.52        19.63003
495.96        19.82369
496.41        20.06776
496.85         20.0539
497.29        19.84898
497.73        20.02382
498.17        20.29363
498.61         20.5184
499.05        20.57444
499.49        20.64524
499.93        20.68857
500.37        20.81839
500.82        21.00391
501.26        21.13875
501.70        21.21315
502.14        21.29972
502.58        21.41564
503.02        21.54531
503.46        21.68796
503.90        21.84849
504.34        21.99211
504.78        22.06036
505.22        22.04516
505.66        21.96693
506.10        21.87774
506.54        21.86052
506.98        21.93626
507.42        22.08185
507.86          22.258
508.30        22.39831
508.74        22.48057
509.18        22.52163
509.62        22.54223
510.06         22.5769
510.50        22.63454
510.94        22.70043
511.38        22.75888
511.82        22.78717
512.26        22.78238
512.70         22.7592
513.14        22.73299
513.58        22.72575
514.02        22.74471
514.46         22.7805
514.90        22.83169
515.34        22.89631
515.78        22.96751
516.22        23.04303
516.66        23.10362
517.10        23.11879
517.54        23.08505
517.98        23.01402
518.42        22.93011
518.86         22.8735
519.30        22.85659
519.74        22.86858
520.18         22.8999
520.62         22.9337
521.06        22.96209
521.50         22.9896
521.93        23.01173
522.37        23.01221
522.81        22.99193
523.25         22.9518
523.69        22.90114
524.13         22.8572
524.57        22.82246
525.01        22.78944
525.45        22.75256
525.89        22.70223
526.32        22.63402
526.76        22.56099
527.20        22.47797
527.64         22.3779
528.08        22.26488
528.52        22.14325
528.96        22.03665
529.40        21.98124
529.83        21.98077
530.27         22.0237
530.71        22.07694
531.15        22.08927
531.59        22.04749
532.03        21.96515
532.46        21.86356
532.90        21.79294
533.34        21.76239
533.78        21.74678
534.22        21.73127
534.66        21.72042
535.09        21.69331
535.53        21.60773
535.97        21.48922
536.41        21.43226
536.85        21.44756
537.28        21.48954
537.72        21.54136
538.16         21.5922
538.60        21.63304
539.04        21.66684
539.47        21.69595
539.91        21.73819
540.35         21.7926
540.79         21.8554
541.22        21.92033
541.66        21.98561
542.10        22.04865
542.54        22.11386
542.97        22.18414
543.41         22.2725
543.85        22.37877
544.29        22.50102
544.72        22.63164
545.16        22.77534
545.60        22.92615
546.04          23.085
546.47        23.25328
546.91        23.42772
547.35        23.60336
547.79        23.78106
548.22        23.95074
548.66        24.09378
549.10        24.23692
549.53        24.37163
549.97        24.51334
550.41        24.63076
550.84        24.75194
551.28         24.9403
551.72        25.15136
552.15         25.3339
552.59        25.50896
553.03        25.31914
553.46        25.56037
553.90        25.62186
554.34        25.73724
554.77        25.89063
555.21        26.06851
555.65        26.22611
556.08         26.3413
556.52        26.41507
556.96        26.45712
557.39        26.55418
557.83        26.69238
558.27        26.70878
558.70        26.62934
559.14        26.65837
559.57        26.78633
560.01        26.88051
560.45        26.92997
560.88        27.00143
561.32        27.10528
561.75        27.19132
562.19        27.26768
562.63        27.34191
563.06        27.41088
563.50        27.48135
563.93         27.5265
564.37        27.57516
564.80        27.64053
565.24        27.65124
565.68        27.57735
566.11        27.97065
566.55        27.83068
566.98        27.98062
567.42        28.14034
567.85        28.30739
568.29         28.4829
568.72        28.68952
569.16        28.95496
569.60        29.12216
570.03        29.28838
570.47        29.50379
570.90        29.81148
571.34         29.6876
571.77        30.00878
572.21        30.22248
572.64        30.31511
573.08        30.44817
573.51         30.4264
573.95        30.62111
574.38        30.96448
574.82        31.02714
575.25        30.64937
575.69         30.7146
576.12         30.8166
576.56        30.82569
576.99        30.97565
577.42        31.00907
577.86        31.10313
578.29        31.56334
578.73        31.39606
579.16         31.2767
579.60        30.90023
580.03        30.86014
580.47        30.78293
580.90        30.83429
581.33        30.91454
581.77        30.88749
582.20        30.53821
582.64        30.67839
583.07        30.45616
583.51        30.33165
583.94         30.1706
584.37        30.03745
584.81        29.96141
585.24        29.91143
585.68        29.89266
586.11        29.63103
586.54        29.51359
586.98         29.1942
587.41        29.14777
587.85        29.02159
588.28        28.92435
588.71        29.02368
589.15        28.73699
589.58        29.00589
590.01        28.85595
590.45        28.97504
590.88        29.06405
591.31         28.9945
591.75        28.87297
592.18         28.7591
592.61        28.63652
593.05        29.37659
593.48         29.5737
593.91        29.19611
594.35        29.20804
594.78         29.1002
595.21        29.29116
595.65        29.54639
596.08        29.86858
596.51        30.03976
596.94        30.00653
597.38        29.84982
597.81        30.29797
598.24        30.68282
598.68        30.83411
599.11        31.04303
599.54        31.74545
599.97        31.67913
600.41        32.18122
600.84        32.21915
601.27        32.62193
601.70        32.91734
602.14        33.21016
602.57         33.5277
603.00        33.91304
603.43        34.00659
603.87        34.67724
604.30        35.09258
604.73        35.53551
605.16        35.62341
605.60        35.96044
606.03        36.03706
606.46        36.11261
606.89        36.38783
607.32        37.52539
607.76        37.58685
608.19        38.09755
608.62        38.25094
609.05        38.57756
609.48        38.87769
609.92        39.61484
610.35        39.99747
610.78        39.66184
611.21        39.97594
611.64        40.27977
612.07        40.69804
612.50        40.84629
612.94         41.0762
613.37        41.29971
613.80        41.68259
614.23        41.50731
614.66        41.81244
615.09        42.34294
615.52        42.61246
615.96        42.58488
616.39        42.87388
616.82        43.24195
617.25        43.16463
617.68        43.46156
618.11        43.71555
618.54        44.13838
618.97        44.38902
619.40        44.44893
619.84        44.62537
620.27        44.53046
620.70        44.66507
621.13        44.87809
621.56        44.66956
621.99        44.52707
622.42         44.4736
622.85        44.63534
623.28        44.79493
623.71        44.95711
624.14        44.83029
624.57        45.15393
625.00        45.10513
625.43        45.13772
625.86        45.00957
626.29         44.8146
626.72        44.75581
627.15        44.59166
627.58         44.5242
628.01        44.43528
628.44        44.23206
628.87        43.92196
629.30        43.61875
629.73        43.36286
630.16        43.13278
630.59        42.93518
631.02        42.78624
631.45        42.65369
631.88        42.46918
632.31        42.21187
632.74        41.89673
633.17        41.52859
633.60        41.11942
634.03        40.68228
634.46        40.21584
634.89        39.73974
635.32        39.29531
635.75        38.89611
636.18        38.49542
636.61        38.10483
637.04        37.75945
637.47         37.4547
637.89        37.17527
638.32        36.88454
638.75        36.56241
639.18        36.20765
639.61        35.83122
640.04        35.46869
640.47        35.17279
640.90        34.95448
641.33        34.80148
641.76        34.68317
642.18        34.55278
642.61        34.38841
643.04        34.20911
643.47        34.04731
643.90        33.95396
644.33        33.93964
644.76        33.98906
645.18        34.06711
645.61        34.10775
646.04        34.10358
646.47        34.08281
646.90        34.08994
647.33         34.1851
647.75        34.37022
648.18        34.66236
648.61        35.04744
649.04        35.35183
649.47        35.52482
649.89        36.18704
650.32        36.36895
650.75        36.66452
651.18        36.83248
651.61        37.22992
652.03        37.85367
652.46        38.22326
652.89         38.3668
653.32        38.89918
653.74        39.84382
654.17         39.7829
654.60        40.06712
655.03        40.37539
655.46        40.75708
655.88        41.21537
656.31        43.54458
656.74        45.51974
657.16        45.87883
657.59        45.75911
658.02        43.97627
658.45        44.23747
658.87        44.14148
659.30        44.49094
659.73        44.73688
660.15        45.64553
660.58        44.98109
661.01         45.1708
661.44        45.58603
661.86        45.73906
662.29        45.61868
662.72        46.18391
663.14        46.50443
663.57        46.69144
664.00        46.57098
664.42        46.73877
664.85        47.22608
665.27        47.73024
665.70        48.12793
666.13          48.395
666.55        48.50357
666.98         48.4148
667.41        48.20684
667.83         48.3205
668.26        48.29488
668.69        48.50346
669.11         48.7603
669.54        49.00214
669.96        49.20843
670.39        49.40199
670.82        49.59572
671.24        49.78552
671.67         49.9684
672.09        50.11454
672.52        50.24647
672.94        50.39329
673.37        50.55393
673.80        50.68184
674.22        50.77777
674.65        50.84245
675.07        50.88055
675.50        50.90194
675.92        50.93501
676.35        50.93331
676.77        50.88918
677.20        51.16441
677.62        51.12337
678.05        51.28711
678.47        51.45553
678.90        51.64951
679.32        51.83611
679.75        51.96537
680.17          52.028
680.60        52.11418
681.02        52.10617
681.45         52.1778
681.87        52.30986
682.30        52.45847
682.72        52.61069
683.15        52.78182
683.57        52.94074
684.00        52.93404
684.42        52.83617
684.85        52.90816
685.27        53.16497
685.70        53.48046
686.12        53.75124
686.54        53.91827
686.97         53.9577
687.39        53.82016
687.82        53.55309
688.24        53.67875
688.66        53.55683
689.09        53.69522
689.51        53.85817
689.94        53.99245
690.36         54.0796
690.78        54.10759
691.21        54.13783
691.63        54.30211
692.06        54.58544
692.48        54.82885
692.90        54.96889
693.33        55.03752
693.75        55.01912
694.17        54.83993
694.60         54.6273
695.02        54.61993
695.44        54.83222
695.87         55.2394
696.29        55.68374
696.71        55.63975
697.14        55.20278
697.56        55.08945
697.98        55.33989
698.41        55.44899
698.83        55.40862
699.25        55.59457
699.68        55.92178
700.10        56.05341
700.52        55.92123
700.94        55.88903
701.37        55.60449
701.79        55.63569
702.21        55.87682
702.64        56.25945
703.06        56.66187
703.48        56.88525
703.90        56.88029
704.33        56.70816
704.75        56.46569
705.17        56.29943
705.59        56.26501
706.01        56.32285
706.44        56.44353
706.86        56.60005
707.28        56.76322
707.70        56.92511
708.12        57.09415
708.55        57.31173
708.97        57.55231
709.39        57.69534
709.81        57.73354
710.23        57.77532
710.66        57.82322
711.08         57.8259
711.50        57.78419
711.92        57.72715
712.34        57.66321
712.76        57.63825
713.19        57.66354
713.61        57.55997
714.03        57.68009
714.45        57.74015
714.87        57.85398
715.29        58.02424
715.71        58.24294
716.13        58.48061
716.56        58.69286
716.98        58.89672
717.40        59.04651
717.82        59.14841
718.24        59.16452
718.66        59.03733
719.08        58.78622
719.50        58.45722
719.92        58.16336
720.34        58.07317
720.76        58.22034
721.19        58.53522
721.61        58.95842
722.03        59.33942
722.45        59.60999
722.87        59.79314
723.29        59.86983
723.71        59.81792
724.13        59.65201
724.55        59.39191
724.97        59.12209
725.39        58.91962
725.81        58.81128
726.23        58.89579
726.65        59.17745
727.07        59.06334
727.49         59.4607
727.91        59.62753
728.33        59.82226
728.75         59.9894
729.17        60.11996
729.59        60.19377
730.01        60.21045
730.43        60.20947
730.85        60.19899
731.27        60.17562
731.69         60.1352
732.10        60.07101
732.52         59.9942
732.94        59.90752
733.36        59.84589
733.78        59.81984
734.20          59.839
734.62        59.82166
735.04        60.35805
735.46        59.94376
735.88        60.51501
736.30        60.66827
736.72        60.91486
737.13        61.10003
737.55        61.15676
737.97        61.28811
738.39        61.41336
738.81        61.09977
739.23        60.50878
739.65         60.4883
740.06        60.96479
740.48        61.18792
740.90        61.10587
741.32        61.16611
741.74        61.38195
742.16        61.53778
742.57        61.62109
742.99        61.67358
743.41        61.68749
743.83        61.63814
744.25        61.53282
744.67        61.36869
745.08        61.22471
745.50        61.20834
745.92        61.34431
746.34        61.59589
746.75        61.86151
747.17        61.95294
747.59        61.83701
748.01        61.60028
748.42        61.34042
748.84        61.16077
749.26        61.13705
749.68        61.32274
750.09        61.62442
750.51        61.84431
750.93        61.89145
751.35         61.7343
751.76        61.44767
752.18        61.19945
752.60         60.9928
753.01        60.90809
753.43        61.00578
753.85        60.61772
754.27        60.72468
754.68        61.34048
755.10        61.26803
755.52        61.51927
755.93        61.63225
756.35        61.62943
756.77        61.60177
757.18        61.68485
757.60        61.91534
758.02        62.42358
758.43        62.95668
758.85        62.71918
759.26        62.29216
759.68        61.78989
760.10        61.40475
760.51        62.27962
760.93        62.71124
761.34        62.13628
761.76        62.64539
762.18        62.50659
762.59        62.63964
763.01        62.60385
763.42        63.28572
763.84        63.41089
764.26        63.19557
764.67        62.93546
765.09         62.7479
765.50        62.53009
765.92        62.36386
766.33        62.34386
766.75        62.37795
767.16        62.42168
767.58        62.41486
768.00        62.27359
768.41        62.12675
768.83        62.42923
769.24         63.0242
769.66        63.21906
770.07        62.99554
770.49        62.69156
770.90        62.49319
771.32        62.80474
771.73        63.46402
772.15        63.69444
772.56        63.46495
772.97        63.07726
773.39        62.62376
773.80        62.94364
774.22        62.63482
774.63        62.89034
775.05        63.15387
775.46        63.31388
775.88        63.28817
776.29        63.15707
776.70        63.01126
777.12        62.98013
777.53        63.10574
777.95        63.29626
778.36        63.49428
778.77        63.57521
779.19        63.52898
779.60        63.42529
780.02        63.26799
780.43        63.15882
780.84        63.15164
781.26        62.88439
781.67         62.5316
782.09        63.13202
782.50        64.34014
782.91        64.33301
783.33        63.24264
783.74        62.88474
784.15        63.34859
784.57        63.60287
784.98        63.59421
785.39        63.66092
785.81        63.81441
786.22        64.06546
786.63        64.36541
787.04        64.54358
787.46        64.58834
787.87         64.5567
788.28        64.52513
788.70        64.54185
789.11        64.60127
789.52        64.78348
789.93        64.98821
790.35        64.88923
790.76        64.53348
791.17        64.29942
791.58        64.27022
792.00        64.19407
792.41        64.09544
792.82        64.32887
793.23        64.72115
793.65        64.51935
794.06        63.91661
794.47        63.86717
794.88        64.26707
795.29        64.92542
795.71        64.37287
796.12        64.47269
796.53        64.79301
796.94        64.70291
797.35        64.31124
797.76        64.51619
798.18        65.21854
798.59        65.51385
799.00         65.3175
799.41        65.12379
799.82        65.01952
800.23        64.93105
800.64         64.8876
801.06        64.87562
801.47        64.90562
801.88        64.91103
802.29        64.86741
802.70        64.78133
803.11        64.65956
803.52        64.51602
803.93        64.38495
804.34        64.28288
804.75        64.21204
805.17        64.27277
805.58        64.52592
805.99        64.58527
806.40        64.53034
806.81        65.32258
807.22        66.56356
807.63        66.32679
808.04        64.86896
808.45        64.28146
808.86         64.7305
809.27        65.08755
809.68        65.16504
810.09        65.18974
810.50        65.11447
810.91          64.882
811.32        64.67387
811.73        64.77748
812.14        65.23964
812.55        65.97844
812.96        66.74283
813.37        67.05366
813.78        66.78114
814.19        66.10899
814.60        65.29426
815.01        64.68105
815.42        64.35943
815.83        64.22701
816.24        64.24802
816.65        64.35189
817.05        64.50033
817.46        64.71034
817.87        64.93012
818.28        65.02039
818.69         64.9603
819.10        64.75245
819.51        64.53614
819.92        64.58131
820.33        64.94025
820.74        65.51976
821.14        66.11678
821.55        66.40096
821.96        66.29681
822.37        65.91119
822.78        65.40635
823.19        65.06017
823.60        64.96984
824.00        65.07488
824.41        65.26488
824.82        65.44975
825.23        65.56917
825.64        65.65961
826.04        65.71092
826.45        65.65858
826.86        65.51823
827.27        65.31451
827.68        65.08401
828.08        64.92565
828.49        64.82648
828.90        64.77714
829.31        64.83106
829.72        65.06998
830.12        65.50671
830.53        66.05866
830.94        66.54838
831.35        66.62908
831.75        66.24496
832.16        65.48574
832.57        64.63053
832.97        64.10782
833.38        64.03647
833.79        64.27941
834.20        64.69698
834.60        65.05791
835.01        65.28046
835.42        65.47322
835.82         65.6244
836.23        65.63311
836.64        65.52781
837.04        65.28984
837.45        65.09787
837.86        65.31686
838.26         66.0237
838.67        67.07597
839.08        68.12876
839.48        68.51538
839.89        68.06106
840.29        67.00111
840.70        65.85252
841.11        65.19343
841.51        65.18285
841.92        65.63293
842.33        66.34419
842.73        66.96045
843.14        67.24068
843.54        67.33849
843.95        67.34499
844.35        67.45653
844.76        67.70063
845.17        67.99226
845.57        68.22454
845.98        68.21402
846.38        67.94953
846.79        67.49976
847.19        67.01233
847.60         66.6935
848.00        66.61082
848.41        66.67943
848.81         66.8343
849.22         66.8809
849.62         66.8056
850.03        66.66525
850.43        66.50771
850.84        66.34084
851.24        66.22528
851.65        66.07722
852.05         66.0491
852.46         66.3032
852.86        66.82966
853.27        67.54015
853.67        68.12545
854.07        68.26865
854.48        67.90244
854.88        67.16027
855.29        66.21453
855.69        65.52061
856.10        65.18726
856.50         65.1834
856.90        65.38593
857.31        65.58999
857.71        65.76134
858.12        65.89191
858.52         66.0315
858.92        66.14785
859.33        66.21129
859.73        66.23991
860.13        66.15615
860.54        65.88013
860.94        65.46012
861.34        64.93172
861.75        64.43198
862.15        64.21394
862.55        64.31697
862.96        64.64267
863.36        65.10217
863.76        65.45294
864.17        65.58882
864.57        65.58919
864.97        65.43661
865.38        65.12072
865.78        64.70081
866.18        64.18812
866.58        63.69916
866.99        63.44901
867.39        63.52169
867.79        63.84941
868.19         64.3541
868.60        64.88302
869.00        65.39876
869.40         65.9081
869.80        66.33387
870.21         66.5315
870.61        66.52261
871.01         66.3018
871.41        65.94465
871.81        65.56876
872.22        65.21058
872.62        64.84344
873.02        64.54776
873.42        64.43975
873.82        64.53345
874.22        64.80651
874.63        65.08434
875.03        65.10007
875.43        64.78891
875.83        64.22987
876.23        63.63109
876.63        63.32326
877.03        63.38465
877.44        63.69241
877.84        64.08619
878.24          64.308
878.64        64.23503
879.04        63.81861
879.44         63.2911
879.84        63.11541
880.24        63.34714
880.64        63.79594
881.04        64.20431
881.44        64.19063
881.84        63.67224
882.24        62.80017
882.65        61.87022
883.05        61.32322
883.45        61.28766
883.85        61.65603
884.25        62.22624
884.65        62.64831
885.05        62.80532
885.45        62.78173
885.85         62.7388
886.25        62.92853
886.65        63.38901
887.05        64.00987
887.45        64.57899
887.85        64.76085
888.25        64.48389
888.65        63.88285
889.04        63.17676
889.44         62.7282
889.84        62.61972
890.24        62.73718
890.64        62.97628
891.04        63.15823
891.44        63.21805
891.84        63.24003
892.24        63.20004
892.64        63.04623
893.04        62.80344
893.44        62.48488
893.83        62.25733
894.23        62.35495
894.63        62.83384
895.03         63.5976
895.43        64.44366
895.83        65.03964
896.23         65.2624
896.63        65.16585
897.02         64.8372
897.42        64.46207
897.82        64.11307
898.22        63.78017
898.62        63.41567
899.01        62.93258
899.41        62.35895
899.81        61.74389
900.21        61.25772
900.61        61.15846
901.00        61.47636
901.40        62.10129
901.80        62.78902
902.20        63.14603
902.59        63.08372
902.99        62.72075
903.39        62.22543
903.79        61.88106
904.18         61.7775
904.58        61.81918
904.98        62.01045
905.38        62.37249
905.77        62.87315
906.17        63.53085
906.57        64.14637
906.96        64.37505
907.36        64.14169
907.76         63.5563
908.15        62.93897
908.55        62.79256
908.95        63.23335
909.34        64.10269
909.74        65.06595
910.14        65.65007
910.53        65.67635
910.93        65.31696
911.33        64.68905
911.72        63.95996
912.12        63.29374
912.52        62.66452
912.91        62.14793
913.31        61.87877
913.70        61.87492
914.10        62.07812
914.49        62.49382
914.89        63.02219
915.29        63.61385
915.68        64.28114
916.08        64.79513
916.47        64.86062
916.87         64.4566
917.26        63.64815
917.66         62.8366
918.05        62.50439
918.45        62.74941
918.84        63.47904
919.24         64.3195
919.64         64.7303
920.03        64.56229
920.42        63.94752
920.82        63.24677
921.21         62.9619
921.61        63.19958
922.00        63.84312
922.40         64.5574
922.79         64.8932
923.19        64.69259
923.58        64.14438
923.98        63.53802
924.37        63.23146
924.77        63.32164
925.16        63.63693
925.55        64.03365
925.95        64.25537
926.34        64.22453
926.74        64.02027
927.13        63.65428
927.52        63.07074
927.92          62.366
928.31        61.57351
928.70        60.89957
929.10        60.63151
929.49        60.80617
929.89        61.28906
930.28        62.02544
930.67        62.78982
931.07        63.43948
931.46        64.08947
931.85        64.51528
932.24        64.41918
932.64        63.84133
933.03         62.8498
933.42        61.94656
933.82        61.87512
934.21        62.75964
934.60        64.41689
934.99         66.2999
935.39         67.3963
935.78        67.42574
936.17        66.58068
936.56        65.32341
936.96        64.39438
937.35        64.02187
937.74        64.00864
938.13        64.06991
938.53        63.78713
938.92        63.08303
939.31         62.1619
939.70        61.31374
940.09        60.90855
940.49        60.99346
940.88        61.47057
941.27        62.11762
941.66        62.53556
942.05        62.60142
942.44        62.44582
942.84        62.25777
943.23        62.33047
943.62        62.73367
944.01        63.30842
944.40        63.95544
944.79        64.53857
945.18        64.96982
945.57        65.28888
945.97        65.32787
946.36        64.91723
946.75        64.04507
947.14        62.84726
947.53        61.65218
947.92        60.91478
948.31        60.73907
948.70        61.02535
949.09        61.58501
949.48        62.06588
949.87        62.33593
950.26        62.46665
950.65         62.5506
951.04        62.75828
951.43        63.11599
951.82        63.51977
952.21        63.84512
952.60        63.91989
952.99        63.72788
953.38        63.37863
953.77        62.98113
954.16        62.69571
954.55        62.56496
954.94        62.50047
955.33        62.54485
955.72        62.76339
956.11        63.12941
956.50        63.65342
956.89        64.02451
957.28        63.72326
957.66        62.68898
958.05        61.14997
958.44         59.6545
958.83        58.99373
959.22        59.29914
959.61        60.33908
960.00        61.63511
960.39        62.28309
960.78        61.99498
961.16        61.06231
961.55        59.92132
961.94        59.12734
962.33        58.84697
962.72        58.92323
963.11        59.23827
963.49        59.60602
963.88        59.86261
964.27        60.08218
964.66        60.35249
965.04        60.82981
965.43        61.48026
965.82        62.25582
966.21        62.88744
966.60        62.90049
966.98        62.18014
967.37        60.98576
967.76        59.74783
968.15        58.98439
968.53        58.81668
968.92        59.14071
969.31        59.73884
969.69        60.16926
970.08        60.20245
970.47        59.96317
970.86        59.77505
971.24        60.12054
971.63        61.08442
972.02        62.52508
972.40        63.98604
972.79        64.35002
973.17         63.4042
973.56         61.5601
973.95        59.58935
974.33        58.47152
974.72        58.39988
975.11        59.07985
975.49        60.12794
975.88        60.73397
976.26        60.64803
976.65        60.08733
977.04        59.31756
977.42        58.70675
977.81         58.3503
978.19        58.10283
978.58        58.03624
978.96        58.24103
979.35        58.68365
979.74        59.38601
980.12        60.20732
980.51        60.64647
980.89        60.69253
981.28        60.42409
981.66        60.11401
982.05        60.15112
982.43        60.63951
982.82        61.44232
983.20        62.49833
983.59        63.57597
983.97        64.60087
984.35        65.57355
984.74        66.25597
985.12        66.50547
985.51        66.25019
985.89        65.58455
986.28         64.8126
986.66         64.3249
987.04        64.27507
987.43        64.50452
987.81        64.92517
988.20        65.22292
988.58        65.29092
988.96        65.17022
989.35        64.80553
989.73         64.0958
990.12        63.05315
990.50        61.74165
990.88        60.35266
991.27        59.30848
991.65         58.7808
992.03        58.67795
992.42        58.91751
992.80        59.32537
993.18        59.84953
993.56        60.53937
993.95        61.18983
994.33        61.61314
994.71        61.64646
995.10        61.39411
995.48        61.04901
995.86        61.03829
996.24        61.44603
996.63        62.00227
997.01        62.71429
997.39        63.24241
997.77        63.40428
998.15        63.40572
998.54        63.03294
998.92        61.82944
999.30        59.95976
999.68        57.66655
1000.06        55.78601
1000.45        55.48479
1000.83        57.04807
1001.21        60.20689
1001.59        64.19712
1001.97        67.02795
1002.35        67.78885
1002.73        67.03062
1003.12        65.52966
1003.50        64.21507
1003.88        63.48932
1004.26        62.89752
1004.64        62.69784
1005.02        63.42091
1005.40        65.05722
1005.78        67.59492
1006.16        69.87607
1006.54        70.01644
1006.92        67.83919
1007.30        64.01907
1007.69        60.16884
1008.07         58.4407
1008.45        59.48022
1008.83        62.79033
1009.21        67.32624
1009.59        70.40986
1009.97        70.69272
1010.35        68.95428
1010.73        66.17108
1011.11        63.77404
1011.49        62.27806
1011.86        61.23082
1012.24        60.65146
1012.62        60.59364
1013.00        60.97937
1013.38         61.8896
1013.76        63.05954
1014.14        63.69447
1014.52        63.42717
1014.90        62.41622
1015.28        61.01067
1015.66        59.73183
1016.04        58.73811
1016.41        57.92503
1016.79        57.32893
1017.17         57.0798
1017.55        57.17569
1017.93        57.56689
1018.31         58.1218
1018.69        58.64001
1019.06        59.07609
1019.44        59.49014
1019.82        59.75402
1020.20        59.63296
1020.58        59.10029
1020.95        58.19407
1021.33        57.45468
1021.71         57.4116
1022.09        58.17859
1022.46        59.86141
1022.84        61.94788
1023.22        63.06876
1023.60        62.67326
1023.97        60.97591
1024.35        59.52104
1024.73        60.11022
