SpectraSmart Spectrum 2.9.0.0
--------- Device Information -----------
Spectrum Name :  反射率_0
Saving Time :  2024/04/26 23:32:48
Spectro-Module Model Name : SE2030-DUVN
Spectro-Module Serial Number : OS361AC55029948
Wavelength Start : 200
Wavelength End : 1025
Wavelength Unit : Wavelength(nm)
Spectrum Unit : Reflectance(%)
-----------Spectrum Setting ------------
Integration Time : 20ms
Average : 10
Boxcar : 0
Background removal :  enabled
linearity correction :  enabled
SC :  disabled
Intensity correction :  disabled
DWT denoise :  enabled
savitzky-golay :  disabled
FFT :  disabled
Running average :  disabled
Kalman :  disabled
High pass :  disabled
---------------BEGIN--------------------
Wavelength(nm)             Reflectance(%)
200.29               0
200.75        26.19856
201.21        22.26834
201.67        18.47952
202.13        16.79113
202.58        17.21685
203.04        19.74806
203.50        23.02836
203.96        22.91671
204.42        17.10251
204.88        6.159845
205.34        -4.59001
205.80       -5.827325
206.26         3.34891
206.72        18.02026
207.18        31.15804
207.64        37.48172
208.10        37.07308
208.55         31.0664
209.01        20.08108
209.47        12.99432
209.93        15.52476
210.39        22.41004
210.85        28.34684
211.31        31.11117
211.77        31.09379
212.23        28.20799
212.69        20.85269
213.14        17.48168
213.60        31.76599
214.06        45.46668
214.52        49.64289
214.98        47.77948
215.44         42.4476
215.90        34.32568
216.36        26.02222
216.81        21.58128
217.27        22.77366
217.73        30.01058
218.19        41.38605
218.65        45.18646
219.11        37.56749
219.57         26.7099
220.02         20.3289
220.48        22.26026
220.94        32.42902
221.40        52.18474
221.86        81.17426
222.32        101.2533
222.77        95.92826
223.23        76.75843
223.69        57.60196
224.15        46.57864
224.61        42.30474
225.06        40.93227
225.52        41.02364
225.98         41.1738
226.44        41.05306
226.90        41.32647
227.36        41.67244
227.81        41.38961
228.27        40.54211
228.73         39.0936
229.19        37.94633
229.65        38.24862
230.10        39.94969
230.56        42.70766
231.02        45.20198
231.48        45.33265
231.93        42.92693
232.39        39.20272
232.85        35.75441
233.31        34.63986
233.77        36.02058
234.22        39.15041
234.68        42.85278
235.14        45.38642
235.60        46.19343
236.05        45.76485
236.51        44.57677
236.97        43.68117
237.43        43.56923
237.88        43.91735
238.34        44.50005
238.80        45.20786
239.26        46.03415
239.71        47.52969
240.17        49.48699
240.63        51.47057
241.08        53.23205
241.54        54.17396
242.00        55.31407
242.46        59.13629
242.91        67.66702
243.37        82.39117
243.83        103.2785
244.28        119.2409
244.74        115.4967
245.20        93.54527
245.66        68.55678
246.11        52.83748
246.57          46.594
247.03        45.92392
247.48        48.22205
247.94         49.1274
248.40        47.92254
248.85        46.35418
249.31        45.32412
249.77        45.00167
250.22         45.1409
250.68        45.30184
251.14        45.34482
251.59        45.20924
252.05        45.16677
252.51         45.6995
252.96        45.65111
253.42        44.11087
253.88        41.49469
254.33        38.24352
254.79        36.58842
255.25        38.26985
255.70        42.88606
256.16        49.54489
256.62        55.38586
257.07        56.07803
257.53         52.7163
257.99        48.01987
258.44        44.19461
258.90        43.23214
259.35        44.26231
259.81        46.45491
260.27        48.58371
260.72        49.18545
261.18        48.38332
261.63        46.69112
262.09        45.09351
262.55        44.20635
263.00        43.95168
263.46        44.11561
263.91           44.14
264.37        43.57094
264.83        42.39507
265.28        40.87445
265.74          39.534
266.19         38.7606
266.65        38.64634
267.11        38.92862
267.56        39.35278
268.02        39.51631
268.47        39.29526
268.93        38.84704
269.38        38.22644
269.84          37.568
270.30        36.91903
270.75        36.21857
271.21        35.57847
271.66        35.13163
272.12        34.88511
272.57        34.77721
273.03        34.64655
273.48        34.21258
273.94        33.47602
274.39        32.52575
274.85          31.564
275.31        30.74357
275.76        30.09526
276.22        29.59478
276.67        29.20551
277.13        28.95309
277.58        28.76954
278.04        28.66412
278.49        28.50996
278.95        28.22495
279.40        27.75091
279.86        27.18287
280.31        26.54957
280.77        25.98903
281.22         25.5045
281.68        25.11936
282.13        24.79354
282.59        24.54282
283.04        24.33095
283.50        24.16442
283.95        24.03742
284.41        23.94941
284.86          23.886
285.32        23.85837
285.77        23.80387
286.22        23.69072
286.68        23.51945
287.13        23.27429
287.59        23.03151
288.04        22.87005
288.50        22.82104
288.95        22.83234
289.41        22.84254
289.86        22.70277
290.32        22.42628
290.77        22.06039
291.22        21.71261
291.68        21.52656
292.13        21.52901
292.59        21.68885
293.04        21.94882
293.50        22.23814
293.95        22.51569
294.40        22.79556
294.86        23.09007
295.31        23.41103
295.77        23.76343
296.22        24.13021
296.68        24.48064
297.13        24.76187
297.58        24.97611
298.04         25.1432
298.49        25.32826
298.95        25.64679
299.40        26.10535
299.85        26.66135
300.31        27.21745
300.76         27.6178
301.21        27.82939
301.67        27.91302
302.12        27.92613
302.58        28.00782
303.03        28.17107
303.48        28.39147
303.94        28.63317
304.39        28.81751
304.84        28.93594
305.30        29.02431
305.75        29.09123
306.20        29.19298
306.66        29.34346
307.11        29.50731
307.57        29.65676
308.02        29.71614
308.47        29.68032
308.93        29.57573
309.38        29.43865
309.83        29.36407
310.29         29.3684
310.74         29.4211
311.19        29.45641
311.65         29.3633
312.10        29.12224
312.55        28.77976
313.00         28.4278
313.46        28.19879
313.91        28.11035
314.36        28.12651
314.82        28.17461
315.27        28.14435
315.72        28.00193
316.18         27.7908
316.63        27.55025
317.08        27.35423
317.53        27.21978
317.99        27.11095
318.44        27.01007
318.89        26.88314
319.35        26.71779
319.80         26.5292
320.25        26.31542
320.70        26.06931
321.16        25.79648
321.61        25.51324
322.06        25.23917
322.51        25.01079
322.97        24.83366
323.42        24.69591
323.87        24.59864
324.32         24.5451
324.78        24.51768
325.23        24.53074
325.68        24.50939
326.13         24.3381
326.59        24.00197
327.04        23.54404
327.49        23.09029
327.94        22.84318
328.39        22.83989
328.85        23.01377
329.30        23.25269
329.75        23.30289
330.20         23.0921
330.66        22.69986
331.11        22.24793
331.56        21.91404
332.01        21.75708
332.46        21.71345
332.92          21.744
333.37        21.82012
333.82        21.89592
334.27        21.98767
334.72        22.04479
335.17        21.97627
335.63        21.76902
336.08        21.46019
336.53        21.12022
336.98        20.88382
337.43        20.79165
337.88        20.80332
338.34        20.89088
338.79        21.01902
339.24        21.14814
339.69        21.28985
340.14        21.38078
340.59        21.31998
341.05        21.10682
341.50        20.77088
341.95        20.41951
342.40        20.22333
342.85        20.22099
343.30        20.36108
343.75        20.56746
344.20        20.70992
344.66        20.74854
345.11        20.72301
345.56        20.65496
346.01        20.57958
346.46        20.51814
346.91        20.45669
347.36        20.41567
347.81        20.43427
348.26         20.5137
348.72        20.64235
349.17        20.78291
349.62        20.88298
350.07        20.92602
350.52        20.92773
350.97        20.88999
351.42        20.82045
351.87        20.72996
352.32        20.61648
352.77        20.51098
353.22        20.45973
353.67        20.46571
354.13        20.51666
354.58         20.5668
355.03        20.54131
355.48        20.42609
355.93        20.25275
356.38        20.06246
356.83        19.91697
357.28        19.83101
357.73         19.7772
358.18         19.7497
358.63        19.74021
359.08        19.73593
359.53        19.74037
359.98         19.7135
360.43        19.59176
360.88         19.3702
361.33          19.069
361.78        18.75391
362.23        18.53534
362.68         18.4404
363.13        18.43791
363.58         18.4687
364.03        18.43558
364.48        18.31351
364.93        18.13496
365.38        17.93885
365.83        17.78922
366.28        17.70552
366.73         17.6614
367.18        17.63802
367.63         17.6095
368.08        17.56293
368.53        17.50657
368.98        17.43462
369.43        17.33507
369.88        17.20851
370.33        17.05842
370.78        16.89834
371.23        16.75458
371.68        16.63709
372.13        16.54121
372.58        16.46513
373.03        16.40215
373.48        16.34631
373.93        16.29797
374.38        16.24502
374.83        16.16917
375.28        16.06656
375.72        15.93578
376.17        15.80173
376.62        15.68243
377.07        15.58421
377.52        15.50502
377.97        15.43405
378.42         15.3544
378.87        15.26462
379.32        15.17023
379.77        15.08962
380.22        15.04866
380.67        15.04674
381.11        15.07492
381.56        15.09492
382.01        15.05892
382.46        14.95883
382.91        14.81836
383.36        14.66701
383.81        14.54327
384.26         14.4558
384.71        14.39117
385.15        14.34744
385.60        14.32601
386.05        14.32081
386.50        14.33265
386.95        14.34054
387.40          14.312
387.85         14.2434
388.29        14.13573
388.74        14.03139
389.19        13.95872
389.64        13.92041
390.09        13.90103
390.54         13.8792
390.98        13.81744
391.43        13.71907
391.88        13.60159
392.33        13.47961
392.78        13.37071
393.23        13.28276
393.67        13.20505
394.12         13.1566
394.57        13.13951
395.02        13.14955
395.47        13.17693
395.91        13.21057
396.36        13.22132
396.81        13.20911
397.26        13.18505
397.71        13.14364
398.15        13.08679
398.60        13.03564
399.05        12.93518
399.50        12.82786
399.95        12.86936
400.39        13.02285
400.84        13.04515
401.29        12.91963
401.74        12.82277
402.18        12.75867
402.63        12.60924
403.08        12.42313
403.53        12.33308
403.97        12.35523
404.42        12.45154
404.87        12.56316
405.32        12.59317
405.76        12.51687
406.21        12.37274
406.66        12.21365
407.11        12.12248
407.55        12.12293
408.00        12.18212
408.45         12.2617
408.90         12.2885
409.34        12.24066
409.79        12.14814
410.24        12.04457
410.68        11.97073
411.13        11.94042
411.58        11.93505
412.03        11.94137
412.47        11.94085
412.92        11.92139
413.37        11.89485
413.81        11.86001
414.26        11.82227
414.71        11.77934
415.15        11.73081
415.60        11.67954
416.05        11.64198
416.49        11.62472
416.94        11.62557
417.39        11.63442
417.83        11.63319
418.28        11.61618
418.73        11.58469
419.17        11.55511
419.62        11.55453
420.07        11.58563
420.51        11.63482
420.96        11.67463
421.41        11.66128
421.85        11.58578
422.30        11.46451
422.74        11.32614
423.19         11.2641
423.64        11.27018
424.08        11.25969
424.53        11.22232
424.98        11.22943
425.42        11.28459
425.87         11.3195
426.31        11.32292
426.76        11.36041
427.21        11.39608
427.65        11.27337
428.10        11.06602
428.54        11.00538
428.99         11.1132
429.44        11.31466
429.88        11.51724
430.33        11.53296
430.77        11.37896
431.22        11.30168
431.66        11.32625
432.11        11.29552
432.56        11.22668
433.00         11.2588
433.45        11.33446
433.89        11.27009
434.34        11.13729
434.78         10.8886
435.23        11.14159
435.67         11.1787
436.12        11.15497
436.57        11.10021
437.01        11.03059
437.46        10.98135
437.90        10.95456
438.35        10.91043
438.79        10.85829
439.24        10.84697
439.68        10.87912
440.13        10.94028
440.57        11.00594
441.02        11.04584
441.46          11.049
441.91        10.99531
442.35        10.91229
442.80        10.94529
443.24        11.05293
443.69        11.03798
444.13        10.91014
444.58        10.86026
445.02        10.89217
445.47         10.9029
445.91        10.88708
446.36         10.8888
446.80        10.90368
447.24        10.91699
447.69        10.92819
448.13        10.93099
448.58        10.92681
449.02        10.91981
449.47        10.90503
449.91        10.86966
450.36        10.81761
450.80        10.75019
451.25        10.69461
451.69        10.68711
452.13        10.73164
452.58        10.81361
453.02        10.89387
453.47        10.91088
453.91        10.85225
454.36         10.7412
454.80        10.61117
455.24        10.51511
455.69        10.47267
456.13        10.45829
456.58        10.47129
457.02          10.493
457.46        10.51938
457.91        10.55541
458.35        10.57617
458.79        10.54201
459.24        10.46082
459.68        10.33961
460.13        10.22882
460.57        10.17646
461.01        10.20072
461.46        10.27487
461.90        10.37694
462.34        10.45747
462.79          10.495
463.23        10.50785
463.68        10.49075
464.12        10.44409
464.56        10.37429
465.01        10.29581
465.45        10.21818
465.89        10.18461
466.34        10.19843
466.78        10.24573
467.22        10.30942
467.67         10.3471
468.11        10.35124
468.55        10.32963
468.99        10.29334
469.44        10.25923
469.88        10.23586
470.32        10.21911
470.77        10.21335
471.21        10.22841
471.65        10.26266
472.10        10.31396
472.54        10.37013
472.98        10.41642
473.42        10.44564
473.87        10.46114
474.31        10.45716
474.75        10.43708
475.20        10.40712
475.64        10.36708
476.08        10.32416
476.52        10.28253
476.97        10.24746
477.41        10.22634
477.85        10.23112
478.29        10.26381
478.74        10.33146
479.18        10.45123
479.62        10.59401
480.06        10.69806
480.50        10.75036
480.95        10.75628
481.39         10.7226
481.83        10.76559
482.27         10.7379
482.72        10.76954
483.16        10.80779
483.60        10.82535
484.04        10.80529
484.48        10.81901
484.93        10.94603
485.37        10.94577
485.81        11.08717
486.25        11.54361
486.69        11.19925
487.14        11.08869
487.58        11.83838
488.02        11.62133
488.46        11.50061
488.90        11.56455
489.34        11.41919
489.79        11.49822
490.23        11.56166
490.67        11.71366
491.11        11.88451
491.55        11.91674
491.99        11.84135
492.43        11.85107
492.88        11.96082
493.32        12.04358
493.76        12.09451
494.20        12.17992
494.64        12.30411
495.08        12.42191
495.52         12.5251
495.96        12.68379
496.41        12.86606
496.85        12.88198
497.29        12.76989
497.73        12.88858
498.17        13.05519
498.61        13.18039
499.05        13.19565
499.49        13.23836
499.93        13.28556
500.37        13.40507
500.82         13.5663
501.26        13.68124
501.70        13.73865
502.14        13.79209
502.58        13.86002
503.02        13.94417
503.46        14.04764
503.90        14.16856
504.34        14.28244
504.78        14.34876
505.22        14.35953
505.66        14.32823
506.10        14.28444
506.54        14.27504
506.98         14.3132
507.42        14.38686
507.86        14.47619
508.30         14.5476
508.74        14.59058
509.18        14.61476
509.62        14.63335
510.06         14.6675
510.50        14.72166
510.94        14.78618
511.38        14.84799
511.82        14.88763
512.26         14.9011
512.70        14.89727
513.14        14.88712
513.58        14.88755
514.02        14.90412
514.46        14.93076
514.90        14.96541
515.34        15.00445
515.78        15.04481
516.22        15.08831
516.66         15.1264
517.10        15.14522
517.54        15.14266
517.98         15.1208
518.42        15.09381
518.86        15.08594
519.30        15.10074
519.74        15.12939
520.18        15.15491
520.62        15.14958
521.06        15.10883
521.50        15.04591
521.93         14.9751
522.37        14.91359
522.81        14.87234
523.25         14.8443
523.69        14.83378
524.13        14.84762
524.57        14.88067
525.01        14.92674
525.45        14.96406
525.89         14.9573
526.32         14.8982
526.76        14.80308
527.20        14.68938
527.64          14.587
528.08        14.50762
528.52        14.44424
528.96        14.40016
529.40        14.37927
529.83         14.3778
530.27        14.39437
530.71        14.41141
531.15        14.40085
531.59        14.35655
532.03        14.28519
532.46        14.19994
532.90         14.1338
533.34        14.09322
533.78        14.06318
534.22        14.03709
534.66         14.0212
535.09         14.0029
535.53        13.95494
535.97          13.889
536.41        13.85865
536.85        13.86925
537.28        13.89191
537.72        13.92404
538.16         13.9718
538.60        14.03088
539.04        14.09877
539.47        14.16203
539.91        14.20988
540.35        14.23786
540.79        14.24963
541.22        14.25929
541.66        14.29533
542.10        14.36125
542.54        14.44981
542.97        14.54287
543.41        14.61678
543.85        14.66613
544.29        14.70379
544.72        14.74233
545.16        14.81132
545.60        14.91457
546.04        15.04351
546.47        15.19452
546.91        15.35795
547.35        15.52386
547.79        15.69283
548.22        15.85032
548.66        15.97178
549.10        16.07431
549.53        16.15679
549.97        16.23713
550.41          16.308
550.84        16.39271
551.28        16.52903
551.72        16.69071
552.15        16.84793
552.59        17.01257
553.03        16.94441
553.46        17.15952
553.90        17.22448
554.34        17.29219
554.77        17.35845
555.21        17.43603
555.65         17.5303
556.08         17.6344
556.52        17.73926
556.96        17.82789
557.39        17.92288
557.83        18.00732
558.27        17.98192
558.70        17.88804
559.14        17.89971
559.57        18.01742
560.01        18.13907
560.45        18.23238
560.88        18.30504
561.32        18.35906
561.75        18.37702
562.19        18.38642
562.63        18.42626
563.06        18.50206
563.50        18.60245
563.93        18.70013
564.37        18.80093
564.80        18.90534
565.24        18.96859
565.68        18.95563
566.11        19.22339
566.55        19.08582
566.98        19.11847
567.42        19.15858
567.85        19.25164
568.29        19.40834
568.72        19.62567
569.16        19.89314
569.60        20.08433
570.03        20.26014
570.47        20.40984
570.90        20.56094
571.34         20.6005
571.77        20.76572
572.21        20.89521
572.64        21.01234
573.08        21.11681
573.51        21.22663
573.95        21.35101
574.38        21.51286
574.82         21.6437
575.25        21.61553
575.69        21.62767
576.12        21.65147
576.56        21.69249
576.99        21.79469
577.42        21.86876
577.86        21.79855
578.29        22.20223
578.73        21.97461
579.16        21.89278
579.60        21.61557
580.03        21.59418
580.47        21.59596
580.90        21.54185
581.33         21.3642
581.77        21.70947
582.20        21.57292
582.64        21.33236
583.07        21.19835
583.51        20.95234
583.94        20.81379
584.37        20.71062
584.81        20.65914
585.24        20.57243
585.68        20.46909
586.11        20.36489
586.54        20.31831
586.98        20.26188
587.41        20.22592
587.85        20.19285
588.28        20.03049
588.71        20.15597
589.15        19.95818
589.58        20.01286
590.01        19.97234
590.45        19.94449
590.88        19.88047
591.31        19.82337
591.75        19.83774
592.18        19.82349
592.61        19.74752
593.05        20.13833
593.48        20.41572
593.91         19.9773
594.35        20.15717
594.78        20.09047
595.21        20.22189
595.65        20.42755
596.08        20.71812
596.51        20.84834
596.94        20.74681
597.38        20.84082
597.81        21.12584
598.24        21.31572
598.68        21.44334
599.11        21.78036
599.54        22.16801
599.97        22.27101
600.41         22.5301
600.84        22.60769
601.27        22.97904
601.70        23.28308
602.14        23.58498
602.57         23.8911
603.00        24.25466
603.43        24.37109
603.87         25.1486
604.30        25.48281
604.73        25.70451
605.16        25.91385
605.60        26.18264
606.03        26.44576
606.46        26.74117
606.89        26.73372
607.32        27.52123
607.76        27.72123
608.19        28.11936
608.62         28.4262
609.05        28.83122
609.48        29.14892
609.92        29.76196
610.35        29.86743
610.78        30.18258
611.21        30.19722
611.64        30.63021
612.07        30.93697
612.50        31.11695
612.94        31.33254
613.37        31.51206
613.80        31.89261
614.23        31.77931
614.66        32.09681
615.09        32.59472
615.52        32.93052
615.96        33.08421
616.39        33.32866
616.82         33.6824
617.25        33.87664
617.68         34.1558
618.11          34.285
618.54        34.36125
618.97        34.55719
619.40        34.88894
619.84        34.92781
620.27        35.10928
620.70        35.24676
621.13        35.43013
621.56         35.3676
621.99        35.12568
622.42        35.12395
622.85        35.37894
623.28         35.5183
623.71        35.50404
624.14        35.87282
624.57        35.98813
625.00        36.02861
625.43        36.08205
625.86        35.97762
626.29        35.83187
626.72        35.58109
627.15        35.53965
627.58        35.39273
628.01        35.17905
628.44         35.1483
628.87        34.84289
629.30        34.54762
629.73        34.32784
630.16        34.13338
630.59        33.94794
631.02        33.80839
631.45        33.67096
631.88        33.46796
632.31        33.17602
632.74        32.87979
633.17        32.46258
633.60        32.02101
634.03         31.5353
634.46        31.01611
634.89         30.4983
635.32        30.04512
635.75        29.67428
636.18        29.33845
636.61         29.0279
637.04        28.73861
637.47         28.4542
637.89         28.1671
638.32        27.85209
638.75        27.50068
639.18        27.11835
639.61        26.71557
640.04        26.32232
640.47        25.98226
640.90        25.70737
641.33        25.49067
641.76        25.32148
642.18        25.18246
642.61        25.05869
643.04        24.95654
643.47        24.87759
643.90        24.82354
644.33        24.79317
644.76        24.78447
645.18        24.78654
645.61        24.77987
646.04        24.76564
646.47        24.75013
646.90        24.76606
647.33        24.85848
647.75        25.03071
648.18        25.30292
648.61        25.64037
649.04        25.90005
649.47        26.04907
649.89        26.47629
650.32        26.53359
650.75        26.94273
651.18        27.46749
651.61         27.9132
652.03        28.27086
652.46         28.7029
652.89        29.22483
653.32        29.64443
653.74        30.01449
654.17        30.49722
654.60        30.85667
655.03        31.23413
655.46        31.62641
655.88        32.00421
656.31        33.98332
656.74        36.27167
657.16        36.41541
657.59        36.56541
658.02        34.83318
658.45        34.92678
658.87        35.08169
659.30        35.62078
659.73        35.47646
660.15        36.44041
660.58        36.25775
661.01         36.5409
661.44         36.7394
661.86         36.8852
662.29        36.96869
662.72        37.47548
663.14        37.66479
663.57        37.81268
664.00        37.79647
664.42        38.02586
664.85        38.52966
665.27        39.09517
665.70        39.59851
666.13        39.96608
666.55        40.16071
666.98        40.15943
667.41         40.0378
667.83        40.18275
668.26        40.21889
668.69        40.45055
669.11         40.7194
669.54        40.96906
669.96         41.1802
670.39        41.37343
670.82         41.5656
671.24        41.75825
671.67        41.94986
672.09        42.12333
672.52         42.2835
672.94        42.41836
673.37        42.53428
673.80        42.63301
674.22        42.73551
674.65        42.84908
675.07        42.98842
675.50        43.14246
675.92        43.29612
676.35        43.42059
676.77        43.51235
677.20        43.56837
677.62        43.61613
678.05        43.72221
678.47        43.88337
678.90        44.03707
679.32        44.16592
679.75        44.29873
680.17        44.42654
680.60        44.52794
681.02          44.627
681.45        44.75796
681.87        44.93167
682.30        45.17132
682.72         45.4481
683.15         45.5769
683.57        45.60004
684.00        45.77221
684.42        46.07215
684.85        46.24602
685.27        46.27745
685.70        46.34615
686.12        46.44711
686.54        46.45826
686.97        46.43316
687.39        46.50969
687.82        46.64823
688.24        46.81384
688.66        47.02906
689.09        46.71865
689.51        47.07026
689.94        47.12182
690.36        47.22878
690.78        47.35666
691.21        47.50918
691.63        47.66328
692.06        47.80079
692.48        47.94148
692.90        48.06698
693.33        48.13042
693.75         48.1221
694.17        48.10306
694.60        48.11754
695.02        48.06294
695.44        48.00847
695.87        48.36829
696.29        49.00719
696.71        49.07942
697.14        48.67945
697.56        48.73919
697.98        49.24491
698.41        49.49755
698.83        49.47296
699.25        49.60665
699.68        49.84938
700.10        49.91589
700.52        49.76517
700.94        49.73137
701.37        49.48004
701.79        49.54889
702.21        49.83358
702.64        50.26978
703.06         50.7377
703.48         51.0343
703.90        51.09991
704.33        51.01782
704.75        50.87428
705.17        50.72445
705.59        50.59891
706.01        50.78574
706.44        50.72389
706.86        50.88401
707.28        51.07425
707.70        51.34818
708.12        51.65724
708.55        51.81637
708.97        51.86312
709.39        52.04556
709.81        52.32652
710.23        52.43418
710.66        52.35019
711.08        52.23951
711.50         52.1456
711.92        52.08467
712.34        52.08239
712.76        52.14956
713.19        52.25269
713.61        52.35913
714.03         52.4457
714.45        52.52529
714.87        52.63309
715.29        52.82868
715.71        53.11243
716.13        53.44292
716.56        53.74822
716.98        53.98263
717.40        54.09019
717.82        54.09734
718.24        54.00927
718.66         53.8361
719.08        53.61351
719.50        53.36583
719.92        53.16817
720.34        53.13069
720.76        53.27097
721.19        53.53766
721.61        53.89577
722.03        54.23782
722.45        54.51162
722.87        54.73267
723.29        54.86066
723.71         54.8387
724.13        54.67188
724.55        54.39304
724.97        54.11005
725.39        53.97013
725.81        54.01046
726.23        54.32203
726.65        54.55289
727.07         54.8795
727.49        54.98242
727.91        55.06635
728.33        55.11877
728.75        55.23094
729.17        55.42114
729.59        55.63867
730.01        55.83979
730.43        55.97717
730.85        56.03592
731.27        56.00846
731.69        55.89909
732.10        55.88312
732.52        55.70339
732.94        55.59021
733.36        55.50562
733.78        55.47236
734.20        55.49942
734.62         55.6903
735.04        56.03714
735.46        55.99853
735.88        56.36634
736.30        56.46785
736.72         56.5811
737.13        56.72367
737.55        56.84338
737.97        57.11235
738.39        57.39309
738.81        57.03961
739.23        56.26241
739.65        56.24299
740.06         56.8877
740.48        57.15981
740.90        57.00829
741.32        56.95071
741.74        57.20983
742.16         57.3513
742.57        57.42038
742.99        57.50848
743.41        57.58876
743.83        57.52699
744.25        57.35685
744.67          57.248
745.08        57.25898
745.50        57.31469
745.92        57.42879
746.34        57.67257
746.75        57.94328
747.17        58.01555
747.59        57.86234
748.01        57.55074
748.42        57.21916
748.84        57.10514
749.26        57.26031
749.68        57.56042
750.09        57.87985
750.51         58.1227
750.93        58.18491
751.35        57.92037
751.76        57.45174
752.18        57.16761
752.60         57.1151
753.01         57.1549
753.43        57.24344
753.85        57.28904
754.27        57.25084
754.68        57.57174
755.10        57.59158
755.52        57.70369
755.93        57.75014
756.35        57.96278
756.77        58.31831
757.18        58.53983
757.60        58.61907
758.02        58.80935
758.43        59.01919
758.85        58.83685
759.26        58.64125
759.68         58.3391
760.10        58.10639
760.51        58.72028
760.93        59.01016
761.34        59.19654
761.76        58.98978
762.18        58.81605
762.59        58.81123
763.01        59.00079
763.42        59.37111
763.84        59.54976
764.26        59.51708
764.67        59.40863
765.09        59.31662
765.50        59.32719
765.92        59.42449
766.33        59.28154
766.75         58.8681
767.16        58.68149
767.58        58.73936
768.00         58.5715
768.41        58.32072
768.83        58.79452
769.24        59.72182
769.66        59.95089
770.07        59.49648
770.49        59.02227
770.90          58.791
771.32        59.23296
771.73        60.15024
772.15        60.49901
772.56        60.20316
772.97        59.86559
773.39        59.64143
773.80        59.53932
774.22        59.56533
774.63        59.65919
775.05        59.72294
775.46        59.76528
775.88        59.73879
776.29        59.63869
776.70        59.51186
777.12        59.49177
777.53        59.60465
777.95         59.7504
778.36        59.92513
778.77        60.08917
779.19        60.24556
779.60        60.45618
780.02        60.60726
780.43        60.61291
780.84        60.52474
781.26        60.01571
781.67        59.39519
782.09        60.10146
782.50        61.70433
782.91        61.78761
783.33        60.47555
783.74        60.01864
784.15        60.50366
784.57        60.71752
784.98        60.59499
785.39        60.35166
785.81        60.13625
786.22        60.50069
786.63        61.28922
787.04         61.6366
787.46        61.47554
787.87        61.25045
788.28        61.10367
788.70        61.00412
789.11        60.96574
789.52        61.14465
789.93        61.41862
790.35         61.2692
790.76        60.80476
791.17        60.77012
791.58        61.15779
792.00        61.24393
792.41        61.00743
792.82        61.06921
793.23        61.36171
793.65        61.07662
794.06        60.46379
794.47        60.72934
794.88         61.6501
795.29        62.18585
795.71        61.66814
796.12        61.46588
796.53        61.49193
796.94        61.13823
797.35        60.62309
797.76        60.99632
798.18        62.04925
798.59        62.54022
799.00        62.32425
799.41        62.04787
799.82        61.87255
800.23        61.79004
800.64        61.85354
801.06        62.01905
801.47         62.2192
801.88         62.2651
802.29        62.10774
802.70        61.80767
803.11        61.44978
803.52        61.17128
803.93        61.04202
804.34        61.03649
804.75        61.13298
805.17         61.3639
805.58         61.7494
805.99        62.00188
806.40        62.14689
806.81        62.82996
807.22         63.7452
807.63        63.50156
808.04        62.29738
808.45        61.68324
808.86        61.80218
809.27        61.83257
809.68        61.69362
810.09        61.64305
810.50         61.6656
810.91        61.69859
811.32        61.78838
811.73        62.00009
812.14        62.32975
812.55        62.75146
812.96        63.14465
813.37        63.28644
813.78        63.12289
814.19        62.73745
814.60        62.27666
815.01        61.93999
815.42        61.77528
815.83         61.7296
816.24        61.76402
816.65        61.79805
817.05        61.80804
817.46        61.81207
817.87        61.82202
818.28        61.80301
818.69        61.75759
819.10        61.67234
819.51        61.62996
819.92         61.7924
820.33        62.17488
820.74        62.69209
821.14        63.18437
821.55         63.4433
821.96        63.39157
822.37        63.00085
822.78         62.4317
823.19         62.0651
823.60        62.00275
824.00        62.12741
824.41        62.32755
824.82         62.5339
825.23        62.68518
825.64        62.80706
826.04        62.89454
826.45        62.89534
826.86        62.82494
827.27        62.70561
827.68        62.55503
828.08        62.43979
828.49        62.34035
828.90         62.2523
829.31        62.25661
829.72        62.48142
830.12        62.94865
830.53        63.56535
830.94        64.11758
831.35        64.19564
831.75        63.73057
832.16        62.83878
832.57        61.83944
832.97        61.22546
833.38        61.13073
833.79        61.39182
834.20        61.85229
834.60        62.25284
835.01        62.50145
835.42        62.72551
835.82        62.88783
836.23        62.84699
836.64        62.62945
837.04        62.22093
837.45        61.87882
837.86        62.09576
838.26        62.96773
838.67        64.31848
839.08         65.6823
839.48        66.17509
839.89         65.5705
840.29        64.18546
840.70        62.66198
841.11        61.75468
841.51        61.66286
841.92        62.14737
842.33        62.96247
842.73        63.66499
843.14        63.98327
843.54        64.10308
843.95        64.12198
844.35        64.24022
844.76        64.48898
845.17        64.76241
845.57        64.97446
845.98        64.98682
846.38        64.79169
846.79        64.45168
847.19         64.0566
847.60        63.71819
848.00        63.48931
848.41        63.31549
848.81        63.21873
849.22        63.15403
849.62        63.14259
850.03        63.20073
850.43        63.28291
850.84        63.24497
851.24        63.10639
851.65        62.83684
852.05        62.65701
852.46        62.85662
852.86        63.46405
853.27        64.33555
853.67        65.12709
854.07        65.47941
854.48        65.30788
854.88        64.75599
855.29        63.97371
855.69        63.36361
856.10        63.02115
856.50        62.92107
856.90        62.96757
857.31        63.01015
857.71        63.03522
858.12        63.03006
858.52        63.05265
858.92        63.07847
859.33        63.08395
859.73        63.10344
860.13        63.03771
860.54        62.76134
860.94        62.31536
861.34        61.74055
861.75        61.22928
862.15        61.13188
862.55        61.49086
862.96        62.15409
863.36        62.93618
863.76        63.43426
864.17        63.50311
864.57        63.29681
864.97          62.842
865.38        62.19654
865.78        61.46261
866.18        60.62322
866.58        59.91729
866.99        59.76629
867.39         60.2664
867.79        61.28227
868.19        62.46879
868.60        63.27083
869.00        63.56786
869.40        63.45779
869.80        63.11489
870.21        62.90109
870.61         62.9977
871.01         63.2353
871.41        63.44422
871.81        63.39297
872.22        63.03536
872.62        62.46695
873.02        61.86809
873.42        61.51974
873.82          61.505
874.22        61.73715
874.63        62.02737
875.03        62.09923
875.43        61.86973
875.83        61.42902
876.23        60.94955
876.63        60.69614
877.03        60.73503
877.44        60.95733
877.84        61.23368
878.24        61.37485
878.64        61.28155
879.04        60.88063
879.44        60.39848
879.84        60.29743
880.24        60.62482
880.64         61.1847
881.04        61.71267
881.44        61.81318
881.84        61.39392
882.24        60.60458
882.65        59.72699
883.05        59.18706
883.45        59.11225
883.85        59.39404
884.25          59.864
884.65        60.23048
885.05         60.3878
885.45        60.40794
885.85        60.40106
886.25        60.53423
886.65        60.83736
887.05        61.23822
887.45        61.58429
887.85        61.64347
888.25        61.36682
888.65        60.83694
889.04        60.24918
889.44        59.92572
889.84        59.92953
890.24        60.17807
890.64        60.48729
891.04         60.5523
891.44        60.30414
891.84        59.85441
892.24        59.38376
892.64         59.1516
893.04        59.22381
893.44        59.52854
893.83        59.94609
894.23        60.23138
894.63        60.33421
895.03        60.30476
895.43        60.27499
895.83        60.46674
896.23        60.90105
896.63        61.46008
897.02        61.94117
897.42        62.05658
897.82        61.75202
898.22        61.18466
898.62        60.49364
899.01        59.87101
899.41        59.41597
899.81        59.05781
900.21        58.89705
900.61        59.09219
901.00        59.62666
901.40        60.44209
901.80        61.24921
902.20        61.57302
902.59        61.32376
902.99        60.62643
903.39        59.78289
903.79        59.30754
904.18        59.32962
904.58        59.68385
904.98        60.19227
905.38        60.58727
905.77        60.78368
906.17        60.90154
906.57        60.90867
906.96        60.74508
907.36        60.42305
907.76        59.95734
908.15        59.57357
908.55        59.62105
908.95        60.16166
909.34        61.10065
909.74        62.09208
910.14        62.63636
910.53         62.5647
910.93        62.03374
911.33        61.26899
911.72        60.61655
912.12        60.25796
912.52        60.11934
912.91        60.09657
913.31         60.0472
913.70        59.93464
914.10        59.76523
914.49        59.74842
914.89        60.14201
915.29        60.98436
915.68        62.18554
916.08        63.26129
916.47        63.48536
916.87        62.74724
917.26        61.28137
917.66        59.76624
918.05        59.07198
918.45         59.3841
918.84        60.49509
919.24        61.86419
919.64        62.65018
920.03        62.60015
920.42        61.93482
920.82        61.14071
921.21        60.91651
921.61        61.41508
922.00        62.43373
922.40        63.51868
922.79        64.02517
923.19        63.73301
923.58        62.90271
923.98        61.92497
924.37        61.29372
924.77        61.14641
925.16        61.28387
925.55        61.52415
925.95        61.54905
926.34         61.2761
926.74        60.82413
927.13        60.26944
927.52        59.64635
927.92        59.05816
928.31        58.49285
928.70        58.07749
929.10        57.98545
929.49        58.22288
929.89        58.68803
930.28        59.35589
930.67        60.06433
931.07         60.6926
931.46        61.31956
931.85        61.73243
932.24        61.65541
932.64        61.11973
933.03         60.1961
933.42        59.32047
933.82        59.12547
934.21        59.72973
934.60        60.99788
934.99         62.4891
935.39        63.38546
935.78        63.46987
936.17         62.8784
936.56        62.00645
936.96        61.48681
937.35        61.48212
937.74        61.79543
938.13        62.09669
938.53         61.8965
938.92        61.12157
939.31        60.02255
939.70        58.92985
940.09        58.27816
940.49        58.14877
940.88        58.42088
941.27        58.97248
941.66        59.56789
942.05        60.08904
942.44         60.6073
942.84         61.0633
943.23         61.3592
943.62        61.48727
944.01        61.39803
944.40        61.25138
944.79        61.35146
945.18        61.73724
945.57        62.32564
945.97         62.7753
946.36        62.60093
946.75        61.68841
947.14        60.28979
947.53        58.82098
947.92        57.85132
948.31        57.52465
948.70        57.69065
949.09         58.1637
949.48        58.61352
949.87        58.90738
950.26        59.12419
950.65        59.32276
951.04         59.6054
951.43        59.97696
951.82        60.33863
952.21        60.59525
952.60        60.63237
952.99        60.44285
953.38          60.113
953.77        59.71926
954.16        59.36782
954.55        59.09824
954.94        58.86286
955.33        58.73193
955.72        58.81598
956.11        59.11461
956.50        59.61759
956.89        60.06513
957.28        60.01616
957.66        59.39004
958.05        58.36219
958.44        57.32535
958.83        56.85709
959.22        57.05701
959.61         57.7519
960.00         58.6061
960.39        58.99179
960.78        58.71745
961.16        58.00175
961.55        57.16193
961.94        56.58126
962.33        56.38551
962.72        56.47646
963.11        56.78542
963.49        57.21117
963.88        57.60442
964.27         57.9641
964.66        58.34383
965.04        58.86724
965.43        59.48598
965.82        60.18368
966.21        60.62939
966.60        60.24983
966.98        58.97397
967.37         57.1425
967.76        55.37765
968.15        54.42673
968.53        54.41909
968.92        55.17902
969.31        56.32952
969.69        57.08364
970.08         57.0928
970.47        56.60514
970.86        56.05535
971.24        56.08561
971.63        56.83184
972.02        58.07202
972.40        59.45384
972.79        60.07212
973.17        59.70902
973.56        58.70106
973.95        57.50016
974.33        56.65754
974.72        56.32135
975.11        56.29803
975.49        56.53164
975.88        56.87188
976.26        57.26057
976.65        57.70037
977.04        58.06836
977.42        58.13043
977.81        57.81835
978.19        57.17001
978.58         56.4768
978.96        56.18168
979.35        56.38173
979.74        56.99608
980.12        57.82115
980.51        58.25834
980.89        58.26498
981.28        57.98864
981.66        57.72783
982.05        57.88778
982.43         58.5663
982.82        59.57899
983.20        60.84361
983.59        62.10564
983.97         63.2632
984.35        64.33857
984.74          65.013
985.12        65.01572
985.51        64.28803
985.89        62.98283
986.28        61.63397
986.66        60.97105
987.04        61.20329
987.43        62.08763
987.81        63.28307
988.20        63.97716
988.58         63.8947
988.96        63.23848
989.35        62.18895
989.73        60.99157
990.12        59.75311
990.50        58.42687
990.88        57.16833
991.27        56.32812
991.65        56.03495
992.03        56.25275
992.42         56.8209
992.80        57.45552
993.18        58.09136
993.56        58.75382
993.95        59.38181
994.33        60.07095
994.71        60.67809
995.10        61.17363
995.48        61.44054
995.86        61.45827
996.24         61.2355
996.63        60.64941
997.01        59.97306
997.39        59.47025
997.77        59.26368
998.15        59.39837
998.54        59.57528
998.92        59.19212
999.30        58.25358
999.68        56.97765
1000.06         55.9465
1000.45        55.95589
1000.83          57.221
1001.21        59.52834
1001.59        62.29092
1001.97        64.03915
1002.35        64.17894
1002.73        63.21117
1003.12        61.82803
1003.50         60.7885
1003.88        60.41226
1004.26        60.29345
1004.64        60.64846
1005.02        61.86135
1005.40        63.82307
1005.78        66.50662
1006.16        68.67076
1006.54        68.36745
1006.92        65.46577
1007.30        60.68628
1007.69        55.90213
1008.07         53.6211
1008.45        54.55742
1008.83        58.19252
1009.21        63.20884
1009.59        66.29861
1009.97        65.90988
1010.35         63.0263
1010.73        59.16553
1011.11        56.49259
1011.49        55.58457
1011.86        55.70036
1012.24        56.32169
1012.62        56.84611
1013.00        57.06343
1013.38        57.17562
1013.76        57.34315
1014.14        57.73553
1014.52        58.37255
1014.90        59.15133
1015.28        59.59045
1015.66        59.10547
1016.04        57.68238
1016.41        55.47541
1016.79         53.3765
1017.17        53.04212
1017.55         54.7611
1017.93        57.87444
1018.31        61.08434
1018.69          62.573
1019.06        61.94752
1019.44        59.64137
1019.82        56.28797
1020.20        53.66377
1020.58          52.688
1020.95        52.71745
1021.33        53.44503
1021.71        54.39227
1022.09        55.40004
1022.46         56.9262
1022.84         58.3081
1023.22        57.90726
1023.60         55.3983
1023.97        51.25699
1024.35        47.61764
1024.73         46.8395
