SpectraSmart Spectrum 2.9.0.0
--------- Device Information -----------
Spectrum Name :  反射率_0
Saving Time :  2024/04/26 23:31:16
Spectro-Module Model Name : SE2030-DUVN
Spectro-Module Serial Number : OS361AC55029948
Wavelength Start : 200
Wavelength End : 1025
Wavelength Unit : Wavelength(nm)
Spectrum Unit : Reflectance(%)
-----------Spectrum Setting ------------
Integration Time : 20ms
Average : 10
Boxcar : 0
Background removal :  enabled
linearity correction :  enabled
SC :  disabled
Intensity correction :  disabled
DWT denoise :  enabled
savitzky-golay :  disabled
FFT :  disabled
Running average :  disabled
Kalman :  disabled
High pass :  disabled
---------------BEGIN--------------------
Wavelength(nm)             Reflectance(%)
200.29               0
200.75        44.61724
201.21        42.33916
201.67        40.91153
202.13        40.33123
202.58        40.47861
203.04         41.7162
203.50        44.92662
203.96        51.22436
204.42         60.5188
204.88        71.99067
205.34        82.19161
205.80         86.0973
206.26        82.96646
206.72         74.7759
207.18        66.08503
207.64        60.46901
208.10        57.87968
208.55        57.95295
209.01        59.24134
209.47        58.32933
209.93        54.88474
210.39        51.67562
210.85        50.59649
211.31        52.98375
211.77        60.09013
212.23         76.6981
212.69        118.3382
213.14        188.8931
213.60        186.7128
214.06        137.9914
214.52        104.7033
214.98        89.50175
215.44        82.73717
215.90        78.34054
216.36        76.37646
216.81        78.08311
217.27         84.3169
217.73        98.15957
218.19         117.555
218.65        124.9029
219.11        114.3499
219.57        97.52598
220.02        86.81518
220.48        89.47388
220.94        105.0443
221.40        135.1858
221.86        180.1371
222.32        213.5745
222.77        209.3088
223.23        183.8355
223.69         155.494
224.15        135.0308
224.61        122.1732
225.06        112.7194
225.52        107.4477
225.98        106.7557
226.44        109.8347
226.90        116.2972
227.36        123.6853
227.81        127.3921
228.27        126.6887
228.73        122.8955
229.19        118.9628
229.65        118.4624
230.10        121.5372
230.56        127.0226
231.02        132.3772
231.48        133.6791
231.93        130.3852
232.39        124.8612
232.85        119.5057
233.31        117.4154
233.77        118.8655
234.22        122.5397
234.68        127.0665
235.14        130.3895
235.60        131.7234
236.05         131.814
236.51        130.3848
236.97        127.4245
237.43        123.2759
237.88        118.0816
238.34        112.8235
238.80        109.4564
239.26        108.5682
239.71        110.7317
240.17        115.2076
240.63        120.1623
241.08        124.3816
241.54        127.2304
242.00        129.6289
242.46        134.0493
242.91         142.938
243.37        156.1327
243.83        174.4189
244.28        191.6916
244.74        195.0032
245.20        182.7329
245.66        163.9625
246.11        146.4434
246.57        131.3139
247.03        116.8766
247.48        102.0299
247.94        88.32406
248.40        78.83913
248.85        73.21349
249.31         70.7755
249.77        70.07952
250.22        70.35748
250.68        71.70667
251.14        73.97171
251.59        76.05606
252.05        77.37074
252.51        78.38129
252.96        78.71612
253.42        78.84243
253.88        78.90844
254.33        78.44168
254.79        79.45168
255.25        83.36665
255.70        89.81102
256.16        98.32395
256.62        105.6443
257.07        106.6326
257.53        102.9443
257.99         97.7445
258.44        93.60091
258.90        93.29405
259.35        95.53793
259.81        99.42558
260.27        103.3323
260.72        105.2786
261.18        105.4382
261.63        104.1891
262.09        102.8672
262.55        102.0388
263.00        101.5933
263.46        101.5374
263.91        101.1366
264.37        100.0986
264.83        98.39152
265.28         96.2637
265.74        94.48215
266.19        93.44478
266.65        93.30728
267.11        93.68695
267.56        94.22221
268.02        94.37477
268.47        93.95264
268.93        93.20306
269.38        92.14581
269.84        90.93317
270.30        89.63509
270.75        88.18949
271.21        86.88863
271.66        86.07088
272.12         85.7776
272.57        85.83499
273.03        85.88734
273.48        85.29634
273.94        84.03557
274.39         82.2736
274.85         80.4296
275.31         78.8195
275.76        77.50105
276.22        76.45232
276.67        75.55318
277.13        74.86477
277.58         74.2313
278.04        73.69496
278.49        73.06134
278.95        72.26357
279.40        71.19137
279.86        70.02851
280.31        68.70773
280.77         67.3777
281.22        66.00663
281.68        64.71329
282.13        63.53591
282.59         62.7229
283.04        62.19497
283.50        61.92075
283.95        61.68644
284.41        61.21561
284.86        60.43259
285.32        59.48012
285.77        58.47489
286.22          57.701
286.68        57.20076
287.13        56.81944
287.59        56.46551
288.04        55.91434
288.50        55.17493
288.95        54.28807
289.41        53.37884
289.86        52.49249
290.32        51.72399
290.77        51.02006
291.22        50.41526
291.68        49.93466
292.13        49.54515
292.59        49.25259
293.04        49.03442
293.50        48.89353
293.95        48.79663
294.40        48.73803
294.86        48.66311
295.31        48.47317
295.77        48.17606
296.22        47.79988
296.68        47.44302
297.13        47.22601
297.58        47.19157
298.04        47.30516
298.49        47.51106
298.95        47.74515
299.40        47.95827
299.85        48.15971
300.31        48.34264
300.76        48.47491
301.21        48.55564
301.67        48.60124
302.12        48.58315
302.58        48.54456
303.03        48.46918
303.48        48.38883
303.94        48.34127
304.39        48.32728
304.84        48.36074
305.30        48.43505
305.75        48.51069
306.20        48.59637
306.66        48.69376
307.11        48.78466
307.57        48.83435
308.02         48.7229
308.47         48.4659
308.93        48.11382
309.38        47.77125
309.83        47.66271
310.29        47.81736
310.74          48.147
311.19        48.49887
311.65        48.61541
312.10        48.42506
312.55         48.0165
313.00        47.51131
313.46        47.08907
313.91        46.79083
314.36        46.57714
314.82        46.41198
315.27        46.25552
315.72        46.08645
316.18        45.93706
316.63        45.80201
317.08        45.68578
317.53        45.58262
317.99        45.47103
318.44        45.34122
318.89        45.17171
319.35        44.95881
319.80        44.71214
320.25        44.44555
320.70        44.18176
321.16        43.93002
321.61        43.70575
322.06        43.50664
322.51        43.33041
322.97        43.16957
323.42        43.02474
323.87        42.91051
324.32        42.85914
324.78        42.85148
325.23        42.89764
325.68        42.90401
326.13        42.73064
326.59        42.35683
327.04        41.84605
327.49        41.32346
327.94        40.99194
328.39        40.89716
328.85        40.96698
329.30        41.14011
329.75        41.21385
330.20         41.1221
330.66        40.91124
331.11        40.66378
331.56        40.48144
332.01        40.39741
332.46        40.36681
332.92        40.33245
333.37         40.2697
333.82        40.14339
334.27        39.98584
334.72        39.82325
335.17        39.68672
335.63         39.5905
336.08        39.55235
336.53        39.56757
336.98        39.64468
337.43        39.77572
337.88        39.93613
338.34        40.11996
338.79        40.35999
339.24        40.62443
339.69        40.90239
340.14        41.09093
340.59        41.03368
341.05        40.73214
341.50        40.24597
341.95        39.75646
342.40        39.54003
342.85        39.65485
343.30        40.01292
343.75        40.46783
344.20        40.77198
344.66         40.8498
345.11         40.7758
345.56        40.60924
346.01        40.44743
346.46        40.33765
346.91        40.24974
347.36        40.20238
347.81         40.2352
348.26        40.34282
348.72        40.51111
349.17        40.69781
349.62        40.84367
350.07        40.92665
350.52        40.96768
350.97        40.93774
351.42        40.79889
351.87        40.56377
352.32         40.2481
352.77        39.95925
353.22        39.85445
353.67        39.95381
354.13        40.21237
354.58        40.49475
355.03        40.56622
355.48        40.36986
355.93        39.97802
356.38        39.53437
356.83        39.25716
357.28        39.19225
357.73        39.26455
358.18        39.36347
358.63         39.3115
359.08        39.06491
359.53        38.69492
359.98        38.28016
360.43        37.92977
360.88        37.67169
361.33        37.46146
361.78        37.27423
362.23         37.0772
362.68        36.85844
363.13        36.64034
363.58        36.40808
364.03         36.1308
364.48        35.80739
364.93        35.44219
365.38        35.08798
365.83        34.83443
366.28        34.70282
366.73        34.67354
367.18        34.67369
367.63        34.58665
368.08        34.38372
368.53        34.08958
368.98        33.78315
369.43        33.59271
369.88        33.54095
370.33        33.58513
370.78        33.62023
371.23        33.47585
371.68        33.11724
372.13         32.6072
372.58        32.06799
373.03        31.69046
373.48        31.52326
373.93        31.50511
374.38        31.54867
374.83        31.51327
375.28        31.35532
375.72        31.11454
376.17        30.84856
376.62        30.60278
377.07        30.39986
377.52        30.22432
377.97         30.0726
378.42        29.95003
378.87        29.85186
379.32        29.76648
379.77        29.70437
380.22        29.67636
380.67        29.67278
381.11        29.69947
381.56        29.66864
382.01        29.47128
382.46        29.10997
382.91        28.64569
383.36        28.21264
383.81        27.99302
384.26        28.01042
384.71         28.2014
385.15        28.46256
385.60        28.61602
386.05        28.60302
386.50         28.4757
386.95        28.27765
387.40        28.08092
387.85        27.91728
388.29        27.74716
388.74        27.61319
389.19        27.51113
389.64        27.43462
390.09        27.38011
390.54         27.3313
390.98           27.25
391.43        27.14513
391.88        27.02727
392.33        26.89959
392.78        26.76633
393.23        26.63496
393.67        26.49413
394.12        26.39126
394.57        26.34432
395.02        26.35252
395.47        26.39729
395.91        26.45515
396.36        26.47085
396.81        26.44328
397.26        26.39216
397.71        26.31843
398.15        26.24234
398.60        26.20186
399.05         26.0794
399.50        25.92683
399.95        26.01109
400.39        26.25122
400.84        26.17244
401.29        25.78934
401.74        25.53413
402.18        25.43685
402.63        25.23836
403.08        24.99262
403.53         24.8936
403.97         24.9536
404.42        25.12055
404.87        25.30384
405.32        25.35482
405.76        25.23631
406.21         25.0049
406.66        24.75203
407.11        24.62288
407.55        24.66053
408.00        24.81466
408.45        25.00843
408.90        25.09226
409.34        25.02238
409.79        24.85226
410.24        24.67247
410.68        24.60435
411.13        24.67817
411.58         24.8503
412.03        25.03898
412.47        25.10594
412.92        25.00624
413.37        24.80036
413.81        24.56933
414.26         24.4476
414.71        24.45595
415.15         24.5645
415.60        24.70928
416.05        24.80299
416.49         24.8161
416.94        24.77167
417.39        24.71244
417.83         24.7001
418.28        24.74756
418.73        24.82634
419.17        24.90188
419.62        24.92437
420.07         24.8822
420.51        24.79059
420.96        24.68121
421.41        24.59419
421.85        24.53344
422.30        24.47864
422.74        24.41011
423.19        24.40814
423.64        24.43069
424.08        24.33381
424.53        24.14207
424.98        24.08407
425.42        24.19173
425.87        24.28452
426.31        24.33461
426.76        24.47695
427.21        24.62965
427.65         24.4656
428.10        24.09184
428.54        23.94476
428.99        24.06773
429.44        24.27482
429.88        24.47044
430.33        24.50637
430.77        24.39526
431.22        24.41292
431.66         24.5465
432.11        24.56847
432.56        24.50074
433.00         24.4321
433.45        24.32104
433.89        24.32836
434.34        24.49061
434.78        23.92492
435.23        24.07333
435.67        24.05955
436.12        24.24124
436.57        24.29507
437.01        24.21053
437.46        24.16075
437.90        24.13715
438.35        24.03415
438.79        23.88633
439.24        23.82726
439.68        23.86581
440.13        23.96433
440.57        24.09312
441.02        24.18783
441.46        24.21765
441.91        24.23301
442.35        24.21984
442.80        24.19148
443.24        24.15169
443.69        24.16694
444.13         24.2174
444.58        24.23906
445.02        24.22169
445.47        24.20447
445.91        24.20054
446.36        24.22023
446.80        24.26018
447.24        24.31912
447.69        24.36847
448.13        24.35441
448.58        24.27602
449.02        24.14554
449.47        24.01342
449.91        23.94653
450.36        23.96769
450.80        24.05162
451.25        24.16073
451.69        24.21966
452.13        24.21438
452.58        24.15977
453.02        24.09615
453.47        24.09212
453.91        24.15987
454.36        24.27873
454.80        24.38669
455.24         24.3871
455.69        24.27134
456.13        24.06036
456.58        23.85185
457.02        23.75174
457.46        23.79227
457.91        23.93778
458.35         24.0958
458.79        24.12874
459.24        24.02892
459.68         23.8306
460.13         23.6438
460.57        23.57313
461.01        23.65818
461.46        23.83915
461.90        24.06312
462.34        24.22497
462.79        24.28041
463.23        24.26884
463.68        24.19635
464.12        24.08989
464.56        23.96547
465.01        23.84661
465.45        23.72492
465.89        23.65524
466.34        23.64161
466.78        23.66805
467.22        23.72497
467.67         23.7683
468.11        23.79669
468.55         23.8082
468.99        23.80528
469.44        23.79152
469.88        23.77127
470.32        23.73906
470.77        23.70309
471.21        23.68142
471.65        23.67643
472.10          23.691
472.54        23.70887
472.98        23.71022
473.42         23.6929
473.87        23.67133
474.31        23.65048
474.75        23.66102
475.20        23.71101
475.64        23.77675
476.08        23.84854
476.52        23.89987
476.97        23.92253
477.41        23.93654
477.85        23.94659
478.29        23.92536
478.74        23.89644
479.18        23.92384
479.62         23.9987
480.06        24.05362
480.50        24.08272
480.95        24.12263
481.39        24.15968
481.83        24.27535
482.27        24.23101
482.72        24.39699
483.16        24.39136
483.60        24.43173
484.04        24.42338
484.48        24.50552
484.93        24.66414
485.37        24.42488
485.81        24.72418
486.25        24.52253
486.69        24.70076
487.14        25.14893
487.58         25.3493
488.02        25.29805
488.46        25.05757
488.90        25.02707
489.34        25.39312
489.79        25.61386
490.23        25.63992
490.67        25.63799
491.11        25.62941
491.55        25.60219
491.99        25.58445
492.43        25.59153
492.88        25.64241
493.32        25.76685
493.76        25.94349
494.20        26.12939
494.64        26.31449
495.08        26.45369
495.52        26.55375
495.96         26.7739
496.41        27.05055
496.85        27.04573
497.29        26.80027
497.73        26.84095
498.17        26.85082
498.61        27.04201
499.05        27.24294
499.49        27.33395
499.93        27.24584
500.37        27.34621
500.82        27.59295
501.26        27.73791
501.70        27.76388
502.14        27.79776
502.58        27.86943
503.02        27.97057
503.46         28.1055
503.90        28.27253
504.34         28.4281
504.78        28.50224
505.22        28.48285
505.66         28.3934
506.10        28.29038
506.54        28.26481
506.98        28.33865
507.42        28.48327
507.86        28.65872
508.30        28.79781
508.74         28.8786
509.18        28.92299
509.62        28.94425
510.06        28.96416
510.50        28.99188
510.94        29.01495
511.38        29.04238
511.82        29.09138
512.26        29.16283
512.70        29.25657
513.14        29.34719
513.58        29.39051
514.02         29.3796
514.46        29.32736
514.90        29.27048
515.34        29.26954
515.78        29.33608
516.22        29.44782
516.66        29.56765
517.10        29.63585
517.54        29.63674
517.98        29.59191
518.42        29.52144
518.86        29.45771
519.30         29.4135
519.74        29.37699
520.18        29.35431
520.62        29.35473
521.06        29.37798
521.50        29.42789
521.93        29.48206
522.37        29.49082
522.81        29.44992
523.25        29.36854
523.69        29.28779
524.13        29.27401
524.57        29.33536
525.01        29.44573
525.45         29.5522
525.89        29.56989
526.32        29.47683
526.76        29.31185
527.20        29.11732
527.64        28.96111
528.08        28.86626
528.52        28.81441
528.96        28.79453
529.40        28.78888
529.83        28.78689
530.27          28.796
530.71        28.80749
531.15        28.80833
531.59        28.79473
532.03        28.76517
532.46        28.71739
532.90        28.67157
533.34        28.62846
533.78        28.57061
534.22         28.5032
534.66        28.46867
535.09        28.44795
535.53        28.37294
535.97         28.2562
536.41        28.19096
536.85        28.18362
537.28        28.18406
537.72        28.18935
538.16         28.2151
538.60        28.25771
539.04        28.31379
539.47        28.36662
539.91        28.40888
540.35        28.43432
540.79        28.44841
541.22        28.46769
541.66        28.52868
542.10        28.63304
542.54         28.7682
542.97        28.90904
543.41        29.02896
543.85        29.11657
544.29        29.18558
544.72        29.24176
545.16        29.31369
545.60        29.40409
546.04        29.50909
546.47        29.63615
546.91        29.79194
547.35        29.97027
547.79         30.1685
548.22        30.36373
548.66        30.51375
549.10        30.64745
549.53        30.76161
549.97         30.8735
550.41        30.94284
550.84        31.01007
551.28        31.15437
551.72        31.34258
552.15         31.5464
552.59        31.79505
553.03        31.62998
553.46        32.00654
553.90        32.10256
554.34        32.19757
554.77        32.28828
555.21        32.39235
555.65        32.51228
556.08        32.63466
556.52        32.74089
556.96        32.81681
557.39        32.92963
557.83         33.0552
558.27        33.01097
558.70        32.84448
559.14        32.84056
559.57        32.99674
560.01        33.10433
560.45        33.15718
560.88        33.32351
561.32        33.57537
561.75        33.68341
562.19        33.67198
562.63        33.71553
563.06        33.81595
563.50         33.8811
563.93        33.88353
564.37        33.91213
564.80        33.98579
565.24        34.00655
565.68        33.91185
566.11         34.3482
566.55        34.08576
566.98        34.12304
567.42        34.16314
567.85         34.3387
568.29        34.62866
568.72        34.89297
569.16        35.16227
569.60        35.33687
570.03        35.52625
570.47        35.76485
570.90        36.11686
571.34        35.76315
571.77        36.22246
572.21         36.3097
572.64         36.3992
573.08        36.48608
573.51        36.47001
573.95        36.59918
574.38        36.84411
574.82        37.06452
575.25         36.7386
575.69        36.83953
576.12        37.05571
576.56         37.1193
576.99        37.05188
577.42        37.14193
577.86        37.05545
578.29        37.65023
578.73        37.54813
579.16        37.44758
579.60        36.98242
580.03        36.94909
580.47        36.91558
580.90        37.17783
581.33        36.98846
581.77        37.25186
582.20        37.10272
582.64        36.79573
583.07        36.55169
583.51        36.28678
583.94        36.25616
584.37        36.36977
584.81        36.53515
585.24        36.38017
585.68        36.00574
586.11        35.70271
586.54        35.84887
586.98        35.62317
587.41        35.19218
587.85        35.57053
588.28        35.25407
588.71        35.59066
589.15        35.47345
589.58        35.14775
590.01         35.2511
590.45        35.21524
590.88        35.69986
591.31        35.63549
591.75        35.28381
592.18        35.07726
592.61        35.07046
593.05        35.64736
593.48        36.11227
593.91        35.76865
594.35        35.79318
594.78        35.53842
595.21        35.55623
595.65        35.81943
596.08        36.36643
596.51        36.58095
596.94        36.33879
597.38        36.43795
597.81        36.86237
598.24        37.14263
598.68        37.32738
599.11        37.50575
599.54        38.13441
599.97        37.93715
600.41        38.27504
600.84         38.2459
601.27        38.79179
601.70        38.99454
602.14        39.51101
602.57        39.82885
603.00        40.21296
603.43        40.14183
603.87        41.13851
604.30        41.51785
604.73        41.83503
605.16        41.73148
605.60        42.27754
606.03         42.4936
606.46        42.70824
606.89        42.85619
607.32        43.83332
607.76        43.95967
608.19        44.41764
608.62        44.56516
609.05        44.78762
609.48        45.13155
609.92        46.17876
610.35        46.15997
610.78        45.98455
611.21        46.38284
611.64         46.6227
612.07        47.06453
612.50        47.16193
612.94        47.43351
613.37        47.78877
613.80        47.96361
614.23        48.00438
614.66         48.1978
615.09        48.54955
615.52        48.81388
615.96        48.97099
616.39        49.21154
616.82        49.55776
617.25        49.67177
617.68        49.92969
618.11         50.2622
618.54        50.71143
618.97        50.93168
619.40        50.93253
619.84        51.07568
620.27        50.97989
620.70        51.16317
621.13         51.4688
621.56        50.94555
621.99        50.73698
622.42        50.61807
622.85        50.94056
623.28        51.13156
623.71        51.20171
624.14        51.47297
624.57        51.80561
625.00        51.49628
625.43         51.8335
625.86        51.71938
626.29        51.66202
626.72        51.00781
627.15        51.28629
627.58        51.18101
628.01        51.06636
628.44        50.90216
628.87        50.69051
629.30        50.29738
629.73        50.02056
630.16        49.77009
630.59        49.63457
631.02        49.56992
631.45        49.51628
631.88        49.37232
632.31        49.10403
632.74        48.74046
633.17         48.3155
633.60        47.88808
634.03         47.4826
634.46        47.08135
634.89        46.67786
635.32        46.27252
635.75         45.8687
636.18        45.42845
636.61        44.98219
637.04        44.59822
637.47         44.2818
637.89        44.00534
638.32        43.72803
638.75        43.43035
639.18        43.10666
639.61        42.76804
640.04        42.43858
640.47        42.15218
640.90        41.91636
641.33        41.72305
641.76         41.5544
642.18        41.38785
642.61        41.20649
643.04        41.02445
643.47        40.86608
643.90        40.76808
644.33        40.73729
644.76        40.76512
645.18        40.82006
645.61        40.83932
646.04        40.81814
646.47        40.78133
646.90        40.77739
647.33        40.87336
647.75        41.06765
648.18        41.37988
648.61        41.78762
649.04        42.08131
649.47        42.20198
649.89         42.8755
650.32        42.96595
650.75        43.24188
651.18        43.43698
651.61        43.86229
652.03        44.46265
652.46        44.98403
652.89        45.41959
653.32        45.67114
653.74        45.83764
654.17        46.61818
654.60        46.89948
655.03        47.50281
655.46        47.69858
655.88        47.83989
656.31         50.1244
656.74        52.04349
657.16        52.36421
657.59        52.55851
658.02        50.61806
658.45        51.41725
658.87        51.05387
659.30        51.47872
659.73        51.58186
660.15        52.28088
660.58        52.14117
661.01        52.40068
661.44        52.71619
661.86        52.78739
662.29        52.66109
662.72        53.35312
663.14        53.74346
663.57        53.95333
664.00         53.8204
664.42        53.76199
664.85        54.54346
665.27        55.14809
665.70        55.61649
666.13        55.89032
666.55         55.9368
666.98        55.71403
667.41        55.34233
667.83        55.39577
668.26        55.35798
668.69        55.63617
669.11        55.99695
669.54        56.32889
669.96        56.59253
670.39        56.83557
670.82         57.0628
671.24        57.23038
671.67        57.35265
672.09        57.44956
672.52        57.55923
672.94         57.7134
673.37        57.90151
673.80        58.03001
674.22        58.11016
674.65        58.20974
675.07         58.3439
675.50        58.44857
675.92        58.52667
676.35        58.60276
676.77         58.6834
677.20        58.75999
677.62        58.84894
678.05        58.97677
678.47        59.14132
678.90        59.33594
679.32        59.53416
679.75        59.69761
680.17        59.81256
680.60        59.91585
681.02        60.01729
681.45         60.0854
681.87        60.16849
682.30        60.33902
682.72        60.57925
683.15        60.82821
683.57        61.05019
684.00        61.05941
684.42        60.91183
684.85        61.18542
685.27        61.30326
685.70        61.64782
686.12        61.94567
686.54        62.04526
686.97        61.96569
687.39        61.90651
687.82        61.89597
688.24        61.92505
688.66        62.03423
689.09        61.86089
689.51        62.17971
689.94        62.29625
690.36        62.43441
690.78        62.58851
691.21         62.7538
691.63        62.89421
692.06        62.99768
692.48         63.0852
692.90        63.15886
693.33        63.20119
693.75        63.20531
694.17        63.23584
694.60         63.3271
695.02        63.29833
695.44        63.22351
695.87        63.67905
696.29        64.48364
696.71        64.46873
697.14        63.78985
697.56        63.79383
697.98        64.44915
698.41        64.72333
698.83        64.58883
699.25        64.65675
699.68        64.88527
700.10        64.98885
700.52        64.93558
700.94         64.8172
701.37        64.71902
701.79        64.78776
702.21        65.04213
702.64        65.40923
703.06        65.79932
703.48        66.05021
703.90        66.11935
704.33        66.06731
704.75        65.94424
705.17        65.82291
705.59        65.73932
706.01         65.6686
706.44        65.66723
706.86        65.80103
707.28        66.05024
707.70        66.51574
708.12          67.062
708.55        67.16853
708.97        66.93207
709.39        67.07558
709.81        67.56343
710.23        67.72728
710.66        67.53582
711.08        67.40371
711.50        67.36437
711.92         67.3017
712.34        67.23662
712.76        67.22075
713.19        67.24072
713.61        67.30437
714.03        67.39699
714.45        67.51696
714.87        67.68208
715.29        67.92858
715.71        68.24767
716.13        68.60068
716.56        68.91972
716.98        69.18811
717.40        69.34579
717.82         69.4094
718.24        69.36513
718.66        69.19811
719.08        68.94492
719.50         68.6273
719.92        68.33952
720.34        68.26635
720.76        68.44524
721.19        68.61948
721.61        69.08019
722.03        69.42245
722.45        69.68356
722.87         69.8724
723.29        69.96381
723.71        69.91897
724.13        69.74556
724.55        69.47356
724.97        69.19669
725.39        68.99984
725.81        68.91219
726.23        69.04063
726.65        69.38561
727.07        69.28812
727.49        69.74731
727.91        69.94569
728.33        70.17535
728.75        70.38304
729.17        70.56215
729.59        70.69707
730.01         70.7655
730.43        70.79311
730.85        70.80512
731.27        70.77486
731.69        70.67943
732.10        70.85587
732.52        70.61889
732.94        70.57239
733.36        70.54961
733.78        70.45781
734.20        70.29161
734.62        70.37733
735.04        70.78488
735.46        70.25545
735.88        70.90047
736.30        71.05692
736.72        71.36443
737.13        71.86237
737.55        72.36069
737.97        72.65541
738.39        72.65656
738.81        72.13602
739.23        71.38851
739.65        71.54213
740.06        72.41096
740.48         72.7495
740.90        72.47311
741.32        72.33701
741.74        72.42735
742.16        72.48908
742.57        72.53972
742.99        72.63844
743.41        72.73508
743.83        72.72921
744.25        72.60921
744.67        72.38747
745.08        72.18098
745.50        72.15816
745.92          72.358
746.34        72.71809
746.75        73.09164
747.17        73.22802
747.59        73.08587
748.01        72.75675
748.42        72.38651
748.84         72.2228
749.26        72.33839
749.68        72.58946
750.09          72.888
750.51        73.26582
750.93        73.57142
751.35        73.44708
751.76        72.98139
752.18        72.68896
752.60        72.62169
753.01        72.52649
753.43        72.39994
753.85        72.37138
754.27        72.45171
754.68        72.66215
755.10        72.97047
755.52        73.13474
755.93        73.39463
756.35        73.50556
756.77          73.616
757.18        73.74188
757.60        73.90363
758.02        74.30061
758.43        74.69816
758.85        74.35056
759.26         73.7449
759.68        73.15426
760.10        73.16896
760.51        73.92146
760.93        74.57523
761.34        74.48228
761.76        74.75957
762.18        74.48214
762.59        74.25909
763.01        74.37816
763.42        74.84822
763.84         75.0379
764.26        74.88484
764.67        74.60955
765.09        74.36478
765.50        74.30232
765.92        74.46001
766.33        74.48927
766.75        74.36255
767.16        74.42245
767.58        74.01223
768.00        73.80489
768.41        73.77409
768.83        74.32444
769.24        75.14364
769.66        75.46735
770.07        75.21897
770.49         74.3949
770.90        73.46326
771.32        73.95869
771.73        75.56579
772.15        76.11892
772.56        75.48707
772.97        74.81915
773.39         74.4122
773.80        74.52935
774.22        74.83607
774.63        75.26421
775.05        75.51924
775.46        75.72284
775.88        75.78306
776.29        75.57241
776.70        75.22979
777.12        75.12009
777.53        75.32107
777.95        75.66256
778.36        76.03842
778.77        76.25374
779.19        76.29994
779.60        76.17794
780.02        75.88018
780.43        75.80324
780.84        76.08354
781.26        75.02419
781.67        75.16241
782.09        75.58897
782.50        76.70337
782.91        76.80663
783.33        75.97403
783.74        75.69923
784.15        76.00887
784.57        76.08493
784.98        75.94157
785.39        75.87319
785.81        75.96684
786.22        76.44481
786.63        77.13793
787.04        77.46828
787.46        77.37794
787.87        77.11578
788.28        76.84918
788.70        76.69903
789.11         76.6934
789.52        76.89047
789.93        77.15382
790.35        77.11649
790.76        76.80968
791.17         76.5754
791.58        76.51933
792.00         76.5237
792.41        76.56599
792.82        76.77296
793.23         77.0173
793.65        76.72446
794.06        76.15498
794.47        76.40258
794.88        77.26787
795.29        77.94849
795.71        77.44643
796.12         77.4269
796.53        77.66323
796.94        77.42841
797.35        76.91732
797.76        77.27065
798.18        78.30971
798.59        78.78958
799.00        78.57423
799.41        78.32619
799.82        78.18589
800.23        78.09591
800.64        78.10007
801.06        78.16962
801.47        78.26197
801.88        78.20791
802.29        77.97044
802.70        77.60455
803.11        77.20047
803.52        76.90469
803.93        76.79152
804.34        76.83433
804.75        76.99657
805.17        77.31264
805.58         77.8068
805.99        78.08777
806.40        78.19716
806.81        79.04572
807.22        80.22269
807.63        79.80135
808.04        78.08405
808.45        77.26141
808.86        77.53461
809.27        77.74955
809.68        77.74867
810.09        77.80777
810.50        77.87493
810.91        77.87542
811.32        77.90446
811.73        78.10741
812.14        78.49451
812.55        79.01952
812.96        79.50118
813.37        79.58994
813.78        79.22507
814.19         78.5938
814.60        77.90205
815.01        77.38661
815.42        77.11581
815.83        77.03128
816.24        77.11585
816.65        77.31313
817.05        77.58324
817.46        77.91485
817.87        78.23099
818.28        78.35555
818.69        78.26373
819.10         77.9756
819.51        77.65791
819.92        77.62979
820.33        77.96451
820.74        78.55545
821.14        79.20093
821.55        79.56738
821.96        79.56913
822.37        79.30962
822.78        78.91679
823.19        78.60965
823.60        78.47369
824.00        78.47343
824.41        78.52472
824.82        78.61337
825.23        78.71125
825.64        78.83806
826.04         78.9836
826.45        79.09729
826.86        79.18624
827.27        79.18663
827.68        79.10081
828.08        79.16199
828.49        79.24439
828.90        78.92949
829.31        78.38546
829.72        78.27994
830.12         78.7077
830.53        79.29042
830.94        79.79826
831.35        79.90671
831.75        79.53506
832.16         78.7724
832.57        77.91564
832.97        77.41001
833.38        77.38046
833.79        77.67752
834.20        78.16103
834.60        78.60359
835.01        78.92287
835.42        79.23209
835.82        79.51102
836.23        79.62547
836.64        79.59491
837.04        79.39082
837.45        79.20866
837.86        79.45762
838.26        80.22128
838.67        81.33539
839.08        82.39046
839.48        82.60454
839.89        81.79919
840.29        80.28217
840.70        78.70372
841.11        77.78783
841.51        77.72652
841.92        78.28416
842.33        79.21389
842.73         80.0687
843.14        80.53927
843.54        80.79842
843.95        80.91962
844.35         81.0917
844.76        81.33669
845.17        81.55793
845.57        81.66306
845.98        81.49811
846.38        81.07419
846.79        80.46887
847.19        79.83935
847.60        79.39062
848.00         79.2017
848.41        79.19672
848.81        79.33279
849.22        79.43186
849.62        79.48576
850.03        79.53085
850.43        79.59364
850.84        79.64052
851.24        79.72108
851.65        79.73713
852.05        79.84252
852.46        80.17663
852.86        80.73371
853.27         81.4456
853.67        82.00266
854.07        82.11729
854.48        81.72692
854.88        80.95989
855.29        80.01521
855.69        79.42257
856.10        79.27579
856.50        79.53042
856.90        79.95348
857.31        80.16577
857.71        80.10358
858.12        79.79812
858.52        79.42863
858.92        79.16044
859.33         79.0391
859.73        79.06326
860.13        79.08686
860.54        78.90712
860.94        78.53862
861.34        78.03783
861.75        77.60926
862.15        77.62364
862.55        78.12315
862.96        78.94431
863.36        79.85378
863.76        80.35758
864.17        80.29461
864.57        79.83121
864.97        79.12339
865.38        78.43371
865.78        77.89883
866.18        77.45573
866.58        77.13437
866.99        76.98377
867.39        77.04435
867.79         77.3247
868.19        77.76197
868.60        78.21033
869.00        78.64948
869.40        79.04752
869.80        79.42046
870.21        79.80499
870.61        80.23811
871.01        80.62706
871.41        80.80986
871.81        80.57156
872.22        79.90453
872.62        78.89087
873.02        77.84641
873.42        77.30799
873.82        77.41518
874.22        78.01134
874.63        78.75208
875.03        79.08588
875.43        78.85819
875.83        78.26099
876.23        77.53277
876.63        77.03797
877.03        76.89313
877.44        76.94903
877.84        77.16134
878.24        77.45226
878.64        77.71529
879.04        77.85859
879.44        77.90895
879.84        77.97105
880.24        78.03566
880.64        78.05087
881.04        77.87693
881.44        77.32451
881.84        76.41846
882.24        75.28423
882.65        74.24791
883.05        73.79112
883.45          74.024
883.85        74.80701
884.25        75.87212
884.65        76.74107
885.05          77.227
885.45        77.42791
885.85        77.44129
886.25         77.4394
886.65        77.48858
887.05        77.52647
887.45        77.52489
887.85         77.4638
888.25        77.33802
888.65        77.16808
889.04        77.01379
889.44        76.97856
889.84         77.0576
890.24        77.22858
890.64        77.35561
891.04        77.22188
891.44        76.80531
891.84        76.19909
892.24        75.60843
892.64        75.32954
893.04        75.43748
893.44        75.86739
893.83        76.47695
894.23        76.96436
894.63        77.25255
895.03        77.37295
895.43        77.47223
895.83         77.8068
896.23        78.39137
896.63        79.09323
897.02        79.62012
897.42        79.55022
897.82        78.83121
898.22        77.68939
898.62        76.43324
899.01        75.49744
899.41        75.03752
899.81        74.90935
900.21        75.07018
900.61         75.4399
901.00        75.93085
901.40         76.5442
901.80        77.09645
902.20        77.28251
902.59        77.06232
902.99        76.50932
903.39        75.83198
903.79        75.39494
904.18        75.29973
904.58        75.44611
904.98        75.77923
905.38         76.2159
905.77          76.701
906.17        77.28197
906.57        77.79546
906.96        77.96438
907.36        77.72876
907.76         77.1712
908.15        76.60358
908.55         76.5136
908.95        77.00993
909.34         77.9503
909.74        78.96459
910.14        79.53375
910.53        79.47601
910.93        78.97785
911.33        78.22274
911.72        77.47818
912.12        76.93063
912.52        76.51724
912.91        76.23287
913.31        76.10108
913.70        76.11005
914.10        76.22662
914.49        76.52195
914.89        76.99506
915.29        77.62228
915.68        78.37001
916.08        78.94095
916.47        78.94592
916.87         78.3515
917.26        77.28956
917.66        76.20197
918.05        75.58569
918.45        75.57491
918.84        76.08612
919.24        76.83386
919.64         77.4473
920.03        77.78941
920.42        77.89652
920.82        77.98009
921.21        78.32413
921.61        78.95548
922.00         79.8088
922.40        80.53034
922.79        80.69899
923.19        80.19698
923.58        79.22664
923.98        78.20326
924.37         77.6386
924.77        77.67101
925.16        78.11345
925.55        78.73031
925.95        79.08082
926.34        79.03815
926.74         78.7148
927.13        78.21652
927.52        77.63734
927.92        77.10339
928.31        76.58607
928.70        76.17163
929.10        75.96812
929.49        75.97415
929.89        76.09181
930.28        76.41777
930.67        76.96882
931.07        77.66479
931.46        78.56778
931.85        79.26264
932.24        79.14543
932.64        78.20126
933.03        76.60748
933.42        75.08923
933.82        74.70866
934.21        75.66561
934.60        77.69619
934.99        80.07603
935.39        81.46829
935.78        81.50793
936.17        80.47439
936.56        79.01067
936.96        78.14791
937.35        78.17059
937.74        78.74774
938.13          79.422
938.53        79.51328
938.92        78.86262
939.31        77.78011
939.70        76.63539
940.09        75.90193
940.49        75.67671
940.88        75.84565
941.27        76.24416
941.66        76.58586
942.05         76.7617
942.44        76.86104
942.84        76.98827
943.23        77.28677
943.62          77.779
944.01        78.35634
944.40        78.89357
944.79        79.22516
945.18        79.28412
945.57        79.10378
945.97        78.69157
946.36        78.20016
946.75        77.65651
947.14        77.09037
947.53        76.54041
947.92        76.02893
948.31        75.58195
948.70        75.23501
949.09        75.03634
949.48        75.05004
949.87        75.28648
950.26        75.70354
950.65        76.24872
951.04        76.84483
951.43        77.42247
951.82        77.94718
952.21        78.35507
952.60         78.5601
952.99        78.57444
953.38        78.47366
953.77        78.30144
954.16        78.13744
954.55        78.01051
954.94        77.84608
955.33        77.81493
955.72        78.19434
956.11        78.99718
956.50        80.17798
956.89        81.17294
957.28        81.04072
957.66        79.62613
958.05        77.29599
958.44        74.92928
958.83        73.79089
959.22        74.10288
959.61        75.50604
960.00        77.23934
960.39        77.88673
960.78        77.03815
961.16        75.19337
961.55        73.13011
961.94        71.82996
962.33        71.57777
962.72        72.12997
963.11        73.18557
963.49        74.20565
963.88        74.83593
964.27        75.17578
964.66        75.55862
965.04        76.54589
965.43        78.16586
965.82        80.28397
966.21        82.09525
966.60        82.12136
966.98        80.06664
967.37        76.65597
967.76          73.242
968.15        71.48898
968.53        71.68898
968.92        73.42368
969.31        75.87505
969.69        77.35677
970.08        77.16113
970.47        75.82492
970.86        74.23696
971.24        73.65839
971.63        74.36425
972.02        75.94191
972.40        77.74722
972.79        78.26877
973.17        77.17273
973.56        75.09746
973.95        72.89023
974.33        71.58255
974.72        71.40287
975.11        71.97963
975.49        73.07218
975.88        74.11407
976.26         74.8774
976.65        75.47604
977.04        75.80946
977.42        75.68331
977.81        75.08751
978.19        74.02416
978.58        72.96018
978.96        72.66401
979.35        73.27209
979.74         74.6317
980.12          76.276
980.51        77.07008
980.89         76.8345
981.28        75.89048
981.66        74.78563
982.05        74.29295
982.43        74.61716
982.82        75.48805
983.20        76.78159
983.59         78.1164
983.97        79.36992
984.35        80.58114
984.74        81.48656
985.12        81.90437
985.51         81.7392
985.89         81.0578
986.28        80.21662
986.66         79.7002
987.04        79.70249
987.43        80.06575
987.81        80.64056
988.20        80.93113
988.58        80.81113
988.96        80.33504
989.35        79.68401
989.73         79.0762
990.12         78.5619
990.50        78.12777
990.88        77.57991
991.27        76.65192
991.65        75.38383
992.03        73.92612
992.42        72.75172
992.80        72.42473
993.18        73.05085
993.56        74.49059
993.95        76.13068
994.33        77.01401
994.71        76.70826
995.10        75.61903
995.48        74.35035
995.86        73.92248
996.24        74.56861
996.63        75.79354
997.01        77.46729
997.39        78.86881
997.77        79.59245
998.15        79.97271
998.54        79.72371
998.92        78.26906
999.30        75.83413
999.68        72.67404
1000.06        69.98044
1000.45        69.44437
1000.83        71.47068
1001.21        75.76815
1001.59        81.13495
1001.97          84.546
1002.35        84.74747
1002.73        82.59959
1003.12        79.69843
1003.50        78.09075
1003.88        78.40611
1004.26        79.91048
1004.64         82.1832
1005.02          84.299
1005.40        85.68291
1005.78        86.78002
1006.16        87.15965
1006.54        86.08552
1006.92        83.70589
1007.30        80.29324
1007.69           77.12
1008.07        75.87429
1008.45        77.01138
1008.83         80.1414
1009.21        84.18606
1009.59         86.4157
1009.97        85.58357
1010.35         82.6192
1010.73        78.57951
1011.11           74.95
1011.49        72.36584
1011.86        70.45564
1012.24        69.51889
1012.62        69.96321
1013.00        71.74485
1013.38        74.85203
1013.76         78.7049
1014.14        81.52713
1014.52        82.31201
1014.90        81.31751
1015.28        79.11192
1015.66        76.67551
1016.04        74.36639
1016.41        71.94717
1016.79        69.76806
1017.17        68.58921
1017.55        68.61515
1017.93        69.78976
1018.31        71.42708
1018.69        72.43895
1019.06        72.64592
1019.44        72.24232
1019.82        71.76323
1020.20        72.41572
1020.58        74.33781
1020.95        76.54909
1021.33        78.54814
1021.71        79.80742
1022.09        80.28114
1022.46        80.48028
1022.84        79.58971
1023.22        76.30937
1023.60        70.92472
1023.97        64.23673
1024.35        58.89593
1024.73        57.54298
