SpectraSmart Spectrum 2.9.0.0
--------- Device Information -----------
Spectrum Name :  反射率_0
Saving Time :  2024/04/26 23:35:56
Spectro-Module Model Name : SE2030-DUVN
Spectro-Module Serial Number : OS361AC55029948
Wavelength Start : 200
Wavelength End : 1025
Wavelength Unit : Wavelength(nm)
Spectrum Unit : Reflectance(%)
-----------Spectrum Setting ------------
Integration Time : 20ms
Average : 10
Boxcar : 0
Background removal :  enabled
linearity correction :  enabled
SC :  disabled
Intensity correction :  disabled
DWT denoise :  enabled
savitzky-golay :  disabled
FFT :  disabled
Running average :  disabled
Kalman :  disabled
High pass :  disabled
---------------BEGIN--------------------
Wavelength(nm)             Reflectance(%)
200.29               0
200.75         33.1962
201.21        30.49228
201.67        28.98204
202.13        28.97419
202.58        30.28024
203.04        33.53125
203.50        38.48658
203.96        42.93867
204.42        45.11795
204.88        44.73624
205.34        42.78138
205.80          42.133
206.26        43.39249
206.72        45.11818
207.18        46.40281
207.64        46.51108
208.10        45.39605
208.55        43.72241
209.01        40.83094
209.47        37.53164
209.93        35.90194
210.39        35.98486
210.85         37.4832
211.31        40.95116
211.77        47.84027
212.23        62.74014
212.69        100.3893
213.14        169.0577
213.60        175.6782
214.06        134.1212
214.52         102.143
214.98         84.2859
215.44         72.2749
215.90        60.86199
216.36        50.71545
216.81         43.9692
217.27        41.54658
217.73        44.14384
218.19        50.96798
218.65        54.90506
219.11         52.6859
219.57        48.08393
220.02        45.97698
220.48        50.12899
220.94        61.15287
221.40        80.87838
221.86        109.0631
222.32        128.3711
222.77        123.0361
223.23         104.323
223.69        85.93506
224.15        75.92851
224.61        72.81351
225.06        72.62225
225.52        73.92713
225.98         75.0594
226.44        75.77689
226.90        76.92896
227.36        78.28642
227.81        79.14587
228.27        79.55432
228.73        79.32703
229.19        79.42688
229.65        81.20644
230.10        84.59363
230.56        89.18705
231.02        93.36202
231.48        94.51889
231.93        92.33514
232.39        88.40153
232.85        84.44308
233.31        82.73862
233.77        83.51469
234.22        85.88792
234.68        88.89765
235.14        91.12856
235.60        92.03717
236.05        92.13383
236.51        91.22089
236.97        89.21333
237.43        86.30818
237.88        82.60173
238.34        78.78843
238.80        76.26791
239.26        75.47199
239.71        76.83495
240.17        79.78652
240.63        82.93072
241.08        85.39258
241.54        86.68445
242.00        87.85841
242.46        91.49334
242.91        99.73354
243.37        112.9643
243.83        131.2712
244.28        145.8339
244.74        143.4869
245.20        125.6037
245.66        103.5675
246.11        85.93517
246.57        73.43871
247.03        63.43373
247.48        56.77076
247.94        55.81279
248.40        59.21694
248.85        64.03594
249.31        68.24689
249.77        70.13039
250.22        69.66659
250.68        67.08839
251.14        62.31731
251.59        56.94435
252.05        53.48746
252.51        52.50036
252.96        53.00011
253.42         53.9564
253.88        55.01398
254.33        55.99664
254.79        58.32201
255.25        63.01839
255.70         69.7543
256.16        78.04093
256.62        84.89426
257.07        85.70614
257.53         81.9939
257.99        76.74221
258.44        72.43121
258.90        71.53039
259.35        72.92177
259.81        75.73757
260.27        78.52781
260.72        79.55296
261.18        78.98862
261.63        77.29479
262.09        75.65187
262.55        74.64578
263.00        74.18492
263.46        74.18067
263.91        73.97757
264.37        73.20258
264.83        71.82487
265.28        70.07793
265.74        68.63002
266.19        67.90422
266.65        68.01202
267.11        68.60144
267.56        69.28824
268.02        69.48199
268.47        69.00311
268.93        68.10477
269.38        66.89587
269.84        65.63358
270.30        64.41392
270.75        63.14738
271.21        62.03314
271.66        61.29321
272.12        60.94118
272.57        60.87325
273.03         60.7951
273.48        60.18581
273.94        59.03062
274.39        57.47722
274.85        55.89927
275.31        54.62162
275.76        53.69219
276.22         53.0453
276.67        52.53498
277.13        52.11001
277.58        51.63896
278.04        51.18064
278.49        50.62033
278.95        49.94941
279.40         49.1053
279.86        48.21321
280.31        47.22953
280.77        46.26226
281.22        45.29314
281.68        44.40371
282.13        43.62421
282.59         43.1278
283.04        42.85465
283.50        42.76859
283.95        42.70855
284.41        42.45581
284.86        41.95127
285.32        41.30544
285.77        40.59697
286.22        40.02214
286.68        39.62163
287.13        39.29464
287.59         39.0171
288.04        38.68936
288.50        38.32495
288.95        37.93208
289.41        37.54879
289.86        37.13237
290.32        36.73325
290.77        36.33261
291.22        35.99649
291.68        35.80714
292.13        35.75601
292.59          35.832
293.04        35.97715
293.50        36.12695
293.95        36.24865
294.40        36.36864
294.86        36.50386
295.31        36.66984
295.77        36.88575
296.22        37.13102
296.68        37.42673
297.13        37.78434
297.58        38.21014
298.04        38.70285
298.49        39.22196
298.95        39.72559
299.40        40.18331
299.85        40.59227
300.31        40.98245
300.76        41.38742
301.21        41.81248
301.67        42.25925
302.12        42.63948
302.58        42.89178
303.03         42.9845
303.48        42.97653
303.94        42.97683
304.39        43.09954
304.84        43.37998
305.30        43.78266
305.75        44.19312
306.20        44.49992
306.66        44.68338
307.11        44.76423
307.57        44.80183
308.02        44.82558
308.47        44.86523
308.93        44.90812
309.38        44.94525
309.83        45.02648
310.29        45.15195
310.74        45.30668
311.19        45.42954
311.65        45.41097
312.10        45.22738
312.55        44.91325
313.00        44.56833
313.46        44.34196
313.91        44.24943
314.36        44.25866
314.82        44.27427
315.27        44.15409
315.72        43.86172
316.18        43.45886
316.63        43.02566
317.08        42.70316
317.53        42.52226
317.99        42.43004
318.44        42.36427
318.89        42.21223
319.35        41.94333
319.80        41.59703
320.25        41.22106
320.70         40.8888
321.16        40.62167
321.61        40.41079
322.06        40.22401
322.51        40.01675
322.97        39.76867
323.42        39.49243
323.87        39.22799
324.32        39.04472
324.78         38.9371
325.23        38.90814
325.68        38.84444
326.13        38.57109
326.59        38.06518
327.04        37.40625
327.49        36.75848
327.94        36.38021
328.39        36.32397
328.85        36.49734
329.30        36.79064
329.75        36.92398
330.20        36.80478
330.66        36.50478
331.11        36.12793
331.56        35.81704
332.01        35.62101
332.46        35.47662
332.92        35.34893
333.37        35.24584
333.82        35.13465
334.27        35.04058
334.72        34.92673
335.17         34.7165
335.63        34.40307
336.08        34.03319
336.53        33.68195
336.98        33.48953
337.43        33.49001
337.88        33.63171
338.34        33.85295
338.79        34.08054
339.24        34.25153
339.69        34.37982
340.14        34.41757
340.59        34.29576
341.05        34.02977
341.50        33.64621
341.95        33.24646
342.40        32.98954
342.85        32.91425
343.30        32.97406
343.75        33.11651
344.20        33.24786
344.66        33.33084
345.11         33.3903
345.56        33.40181
346.01        33.32845
346.46        33.18127
346.91        32.97599
347.36        32.78036
347.81        32.70838
348.26        32.77932
348.72        32.95244
349.17        33.17078
349.62        33.35431
350.07        33.46978
350.52        33.54326
350.97        33.54706
351.42        33.44135
351.87        33.23598
352.32         32.9446
352.77        32.66018
353.22        32.52166
353.67        32.55032
354.13        32.70978
354.58         32.8956
355.03         32.9276
355.48        32.76073
355.93        32.45064
356.38        32.10127
356.83        31.86986
357.28        31.78776
357.73        31.79694
358.18         31.8163
358.63        31.71828
359.08        31.47301
359.53        31.13546
359.98        30.76263
360.43        30.43095
360.88        30.16371
361.33        29.93453
361.78        29.73471
362.23        29.55485
362.68        29.38896
363.13        29.24584
363.58        29.10982
364.03        28.95047
364.48        28.76106
364.93        28.54481
365.38        28.32502
365.83        28.14559
366.28        28.01629
366.73        27.92245
367.18        27.83727
367.63        27.71786
368.08        27.55307
368.53        27.35762
368.98        27.14875
369.43        26.95285
369.88        26.77858
370.33        26.61683
370.78        26.46257
371.23        26.31003
371.68        26.15666
372.13        26.00559
372.58        25.85718
373.03        25.70902
373.48        25.55962
373.93        25.40858
374.38        25.25319
374.83        25.09143
375.28        24.92527
375.72         24.7514
376.17        24.59356
376.62        24.45502
377.07        24.34037
377.52         24.2526
377.97        24.18334
378.42         24.1222
378.87        24.06225
379.32        23.99175
379.77        23.93127
380.22        23.91211
380.67        23.93171
381.11        23.99118
381.56        24.00571
382.01        23.86129
382.46        23.55403
382.91        23.14113
383.36        22.75186
383.81        22.56266
384.26        22.59601
384.71        22.79017
385.15        23.03606
385.60        23.15062
386.05        23.07705
386.50        22.87188
386.95        22.59945
387.40        22.36187
387.85        22.19646
388.29        22.06098
388.74        21.96606
389.19        21.87513
389.64        21.77805
390.09        21.68435
390.54         21.6049
390.98        21.54636
391.43        21.52158
391.88        21.52097
392.33        21.51817
392.78        21.47893
393.23        21.39938
393.67        21.27803
394.12        21.17212
394.57        21.12453
395.02        21.14043
395.47        21.19858
395.91        21.25764
396.36        21.23524
396.81        21.13006
397.26        20.98002
397.71        20.82653
398.15        20.74162
398.60        20.76259
399.05        20.77183
399.50        20.77789
399.95        20.95132
400.39        21.21687
400.84        21.20268
401.29        20.92528
401.74        20.74588
402.18        20.69297
402.63         20.5486
403.08          20.359
403.53         20.2896
403.97        20.35209
404.42        20.50475
404.87        20.66694
405.32        20.70459
405.76        20.58531
406.21         20.3593
406.66         20.1122
407.11         19.9789
407.55         19.9978
408.00        20.12389
408.45        20.28156
408.90        20.32668
409.34        20.22016
409.79        20.01493
410.24        19.80323
410.68         19.7083
411.13        19.75883
411.58        19.91134
412.03        20.08549
412.47        20.14412
412.92        20.04476
413.37        19.84674
413.81        19.62668
414.26        19.50845
414.71        19.51156
415.15        19.60204
415.60        19.72852
416.05         19.8197
416.49         19.8489
416.94        19.83879
417.39        19.80641
417.83        19.77417
418.28        19.75097
418.73        19.72158
419.17        19.69673
419.62        19.69868
420.07        19.72839
420.51        19.77713
420.96         19.8209
421.41        19.81478
421.85        19.74721
422.30        19.63031
422.74        19.48989
423.19        19.45182
423.64        19.49629
424.08        19.48697
424.53        19.42102
424.98        19.44416
425.42        19.56876
425.87        19.66477
426.31        19.70979
426.76        19.81318
427.21        19.90993
427.65        19.73059
428.10         19.3883
428.54        19.26284
428.99         19.3943
429.44        19.66526
429.88        19.94585
430.33         19.9559
430.77        19.72971
431.22        19.67467
431.66         19.8125
432.11        19.83749
432.56        19.76403
433.00        19.85172
433.45        19.98611
433.89        19.82749
434.34        19.50809
434.78        18.96008
435.23        19.30469
435.67        19.36099
436.12        19.40786
436.57        19.47566
437.01        19.54024
437.46        19.57154
437.90        19.54388
438.35        19.41106
438.79        19.22914
439.24        19.14829
439.68        19.19011
440.13        19.31286
440.57         19.4507
441.02        19.51408
441.46        19.47794
441.91        19.32735
442.35        19.13724
442.80        19.19753
443.24        19.43932
443.69        19.49951
444.13        19.36839
444.58        19.34075
445.02        19.41385
445.47        19.41644
445.91        19.35437
446.36        19.33072
446.80        19.34781
447.24         19.3747
447.69        19.40785
448.13        19.43462
448.58        19.45396
449.02        19.47017
449.47        19.47768
449.91        19.45516
450.36        19.40838
450.80        19.33985
451.25         19.2782
451.69        19.25534
452.13        19.27919
452.58        19.33506
453.02        19.39771
453.47        19.42853
453.91         19.4172
454.36        19.38077
454.80        19.32487
455.24        19.25863
455.69        19.19506
456.13        19.11632
456.58        19.05877
457.02        19.04761
457.46        19.09101
457.91        19.17951
458.35        19.25362
458.79        19.22377
459.24         19.0957
459.68        18.89331
460.13         18.7056
460.57        18.61755
461.01        18.66211
461.46        18.79268
461.90        18.97496
462.34        19.13473
462.79        19.23508
463.23         19.3011
463.68        19.31598
464.12        19.26669
464.56        19.15916
465.01        19.02495
465.45        18.87867
465.89        18.79373
466.34         18.7798
466.78        18.81519
467.22        18.88562
467.67        18.94394
468.11        18.98317
468.55        19.00595
468.99         19.0131
469.44         19.0043
469.88        18.98408
470.32         18.9502
470.77        18.91297
471.21        18.89423
471.65         18.8983
472.10        18.92451
472.54        18.96206
472.98        18.99916
473.42        19.02988
473.87        19.06003
474.31        19.08064
474.75        19.09666
475.20         19.1133
475.64        19.12301
476.08        19.12713
476.52         19.1182
476.97        19.09731
477.41        19.07661
477.85        19.07405
478.29        19.08976
478.74        19.14135
479.18        19.26994
479.62        19.43317
480.06        19.53033
480.50        19.55105
480.95        19.51579
481.39        19.44133
481.83        19.53985
482.27        19.53532
482.72        19.64847
483.16        19.78239
483.60        19.87474
484.04        19.91417
484.48        20.00635
484.93        20.18475
485.37        20.05549
485.81         20.3304
486.25        20.28656
486.69        20.48574
487.14        20.50467
487.58        21.10692
488.02         21.0385
488.46        20.47274
488.90        20.79777
489.34        20.99652
489.79        21.26025
490.23        21.19434
490.67        21.24027
491.11        21.38801
491.55        21.43542
491.99        21.41793
492.43        21.46271
492.88        21.58641
493.32        21.74399
493.76         21.9161
494.20        22.09571
494.64        22.28027
495.08        22.42902
495.52        22.54091
495.96        22.76028
496.41        23.03739
496.85        23.02207
497.29        22.78041
497.73        22.94877
498.17        23.19721
498.61         23.3707
499.05        23.34448
499.49        23.35487
499.93        23.36371
500.37        23.49467
500.82        23.70674
501.26        23.86881
501.70        23.96395
502.14        24.07457
502.58         24.2205
503.02        24.38469
503.46        24.56457
503.90        24.76348
504.34        24.93222
504.78        24.99096
505.22        24.92957
505.66        24.77588
506.10        24.60786
506.54        24.54925
506.98        24.62954
507.42        24.81448
507.86        25.03949
508.30        25.19485
508.74        25.24887
509.18        25.23569
509.62         25.1973
510.06        25.20139
510.50        25.26801
510.94        25.37089
511.38        25.48848
511.82        25.58994
512.26        25.66378
512.70         25.7222
513.14        25.77058
513.58         25.8147
514.02        25.85749
514.46         25.8942
514.90        25.92497
515.34        25.95284
515.78        25.97768
516.22        25.99919
516.66        26.01668
517.10        26.02732
517.54        26.03171
517.98        26.03378
518.42        26.03156
518.86        26.02208
519.30        26.00565
519.74        25.98051
520.18        25.95973
520.62        25.96336
521.06        25.99342
521.50        26.04613
521.93        26.09501
522.37        26.08738
522.81        26.01888
523.25        25.90457
523.69        25.78713
524.13        25.73312
524.57        25.75341
525.01        25.82326
525.45        25.89882
525.89        25.90934
526.32        25.83414
526.76         25.7047
527.20        25.54888
527.64        25.41195
528.08        25.31047
528.52        25.23116
528.96        25.17191
529.40        25.12973
529.83        25.09929
530.27        25.08479
530.71        25.07373
531.15        25.04633
531.59        24.99879
532.03        24.93451
532.46        24.85987
532.90        24.80465
533.34        24.77086
533.78        24.73722
534.22        24.69957
534.66        24.68191
535.09        24.66393
535.53        24.59085
535.97        24.47585
536.41        24.40311
536.85        24.38147
537.28        24.36802
537.72         24.3652
538.16         24.3945
538.60        24.45354
539.04         24.5354
539.47         24.6209
539.91        24.69656
540.35        24.75299
540.79        24.79527
541.22        24.83363
541.66        24.89386
542.10        24.97856
542.54        25.08148
542.97        25.18927
543.41        25.29167
543.85        25.38368
544.29        25.47489
544.72        25.56978
545.16        25.69189
545.60        25.84097
546.04        26.01237
546.47        26.20558
546.91        26.41446
547.35        26.62852
547.79        26.84577
548.22        27.05028
548.66        27.21326
549.10        27.36406
549.53        27.49911
549.97        27.63149
550.41        27.72044
550.84        27.80178
551.28        27.94889
551.72         28.1384
552.15        28.35439
552.59         28.6232
553.03        28.52642
553.46        28.91652
553.90        29.03771
554.34        29.14157
554.77        29.23546
555.21        29.33907
555.65        29.45877
556.08        29.58504
556.52        29.69846
556.96        29.80078
557.39        29.96423
557.83        30.16157
558.27        30.25147
558.70        30.23895
559.14        30.23475
559.57        30.26408
560.01        30.36814
560.45        30.52175
560.88        30.62229
561.32        30.67873
561.75        30.75429
562.19        30.85682
562.63        30.91325
563.06        30.93575
563.50        31.01523
563.93        31.11743
564.37        31.20645
564.80        31.29204
565.24         31.3307
565.68        31.27504
566.11        31.71344
566.55        31.51072
566.98        31.61357
567.42        31.72462
567.85        31.87446
568.29        32.07083
568.72        32.32076
569.16        32.63869
569.60        32.84805
570.03        33.05791
570.47        33.27479
570.90         33.5279
571.34        33.44159
571.77        33.68905
572.21        33.75168
572.64          33.817
573.08        33.91475
573.51        33.98236
573.95        34.20104
574.38        34.51252
574.82        34.77783
575.25        34.58062
575.69        34.51559
576.12        34.50012
576.56         34.5435
576.99        34.84095
577.42        34.72661
577.86        34.78816
578.29        35.14874
578.73        34.83584
579.16        34.76818
579.60        34.58397
580.03        34.63748
580.47        34.44788
580.90         34.7506
581.33        34.55965
581.77        34.79432
582.20        34.39519
582.64        34.27716
583.07        34.01076
583.51        33.82315
583.94        33.76848
584.37        33.77889
584.81        33.79262
585.24        33.60295
585.68        33.34537
586.11        32.95047
586.54        33.20288
586.98        33.02465
587.41        32.66689
587.85          32.696
588.28        32.66571
588.71        32.75036
589.15        32.55143
589.58        32.65784
590.01        32.52544
590.45        32.61567
590.88        32.74569
591.31        32.65706
591.75        32.44196
592.18        32.33137
592.61        32.36665
593.05        32.79052
593.48        33.40035
593.91        32.96876
594.35        32.90911
594.78        32.75291
595.21        32.95429
595.65        33.22819
596.08        33.60772
596.51        33.83046
596.94        33.75525
597.38        33.93095
597.81        34.34887
598.24        34.55764
598.68         34.5928
599.11        35.14069
599.54        35.66571
599.97        35.48286
600.41        36.06229
600.84        36.09205
601.27        36.57277
601.70        36.96525
602.14        37.42808
602.57        37.73944
603.00        38.03506
603.43        38.16633
603.87        39.14182
604.30        39.75492
604.73        40.08136
605.16        39.95908
605.60        40.53658
606.03        40.74022
606.46        40.88127
606.89        41.56945
607.32        42.20682
607.76        42.49088
608.19        43.02385
608.62        43.29529
609.05        43.63769
609.48        43.92621
609.92        44.73378
610.35        44.91538
610.78         44.7952
611.21        45.00581
611.64        45.44278
612.07        45.92601
612.50        46.12752
612.94         46.4372
613.37        46.76307
613.80        46.93814
614.23        46.85518
614.66        47.09183
615.09        47.61127
615.52        47.96293
615.96        48.06154
616.39        48.62703
616.82        48.84237
617.25        48.89143
617.68         49.1268
618.11        49.46094
618.54        49.99438
618.97        50.25442
619.40        50.24409
619.84        50.50677
620.27        50.57911
620.70        50.76419
621.13        50.85934
621.56          50.648
621.99        50.25451
622.42         50.1751
622.85        50.40904
623.28         50.6303
623.71         50.8284
624.14        50.68875
624.57        51.04888
625.00        51.08951
625.43        51.04293
625.86        50.92149
626.29        50.77379
626.72        50.49031
627.15         50.4879
627.58        50.37699
628.01         50.2099
628.44        50.13779
628.87         49.9397
629.30        49.39238
629.73        49.17811
630.16        48.95336
630.59        48.88662
631.02        48.72867
631.45        48.46325
631.88        48.17804
632.31        47.84203
632.74        47.60417
633.17        47.04269
633.60        46.57974
634.03        46.10519
634.46        45.61346
634.89         45.1101
635.32        44.62187
635.75        44.16327
636.18        43.68582
636.61        43.21908
637.04        42.82694
637.47        42.50998
637.89         42.2431
638.32        41.97158
638.75        41.65062
639.18         41.2714
639.61        40.85257
640.04        40.44184
640.47        40.11062
640.90        39.87509
641.33        39.71782
641.76        39.60013
642.18        39.46172
642.61        39.27676
643.04        39.07323
643.47        38.89022
643.90        38.78746
644.33        38.77921
644.76        38.84665
645.18        38.95503
645.61        39.03886
646.04        39.08725
646.47        39.12327
646.90        39.18506
647.33        39.32276
647.75        39.53531
648.18        39.84941
648.61        40.25087
649.04        40.55973
649.47        40.72682
649.89        41.42155
650.32        41.56281
650.75        41.97588
651.18         42.3746
651.61        42.92777
652.03        43.59637
652.46        44.20086
652.89        44.70325
653.32        45.04965
653.74        45.44698
654.17        45.84695
654.60        46.71774
655.03        47.50866
655.46        47.28518
655.88        47.36417
656.31        50.04378
656.74        51.90908
657.16        51.65537
657.59        52.11434
658.02        50.54953
658.45        51.58871
658.87        51.37337
659.30         51.8005
659.73        51.87607
660.15        53.41212
660.58        52.60237
661.01        52.81704
661.44        53.04189
661.86        53.16693
662.29        53.16122
662.72        53.67666
663.14        53.71884
663.57        53.97757
664.00        54.19419
664.42        54.52614
664.85        54.97874
665.27        55.47719
665.70        55.90705
666.13        56.16583
666.55        56.23465
666.98        56.08945
667.41        55.82414
667.83        55.95368
668.26        55.93827
668.69        56.21633
669.11        56.57205
669.54        56.88129
669.96        57.10088
670.39         57.4616
670.82        57.61574
671.24        57.79573
671.67        57.90776
672.09        57.97574
672.52        58.03833
672.94        58.14228
673.37        58.28559
673.80         58.3674
674.22        58.41497
674.65         58.5214
675.07        58.70428
675.50        58.89235
675.92        59.05987
676.35        59.18311
676.77        59.25624
677.20        59.28677
677.62        59.31707
678.05        59.40543
678.47        59.55904
678.90        59.80015
679.32        60.01801
679.75        60.18509
680.17         60.2543
680.60        60.30421
681.02        60.36574
681.45        60.34264
681.87         60.3168
682.30        60.59872
682.72        61.10226
683.15        61.27523
683.57          61.139
684.00        61.15048
684.42        61.35437
684.85        61.52116
685.27        61.65063
685.70        61.88091
686.12        62.14633
686.54        62.30843
686.97        62.34629
687.39        62.27428
687.82        62.14632
688.24        62.15418
688.66        62.28699
689.09        62.32155
689.51        62.27981
689.94         62.3517
690.36        62.54851
690.78        62.71282
691.21        62.84072
691.63         63.0466
692.06        63.28804
692.48        63.38608
692.90         63.3461
693.33         63.3335
693.75        63.35741
694.17         63.3149
694.60        63.26928
695.02        63.31437
695.44        63.46446
695.87        63.84123
696.29        64.31039
696.71        64.27469
697.14        63.83616
697.56        63.74762
697.98        64.04535
698.41        64.20943
698.83        64.23121
699.25        64.46825
699.68        64.82142
700.10        65.00918
700.52        64.97275
700.94        64.80569
701.37        64.62099
701.79        64.60878
702.21        64.80644
702.64        65.13556
703.06        65.50198
703.48        65.73664
703.90        65.79163
704.33         65.7246
704.75        65.59734
705.17        65.49909
705.59        65.46918
706.01        65.47863
706.44        65.53308
706.86        65.65733
707.28        65.83253
707.70        66.06511
708.12        66.31891
708.55        66.49482
708.97        66.58884
709.39        66.66328
709.81         66.7276
710.23         66.7695
710.66        66.79312
711.08         66.8276
711.50        66.85023
711.92        66.83394
712.34         66.7834
712.76        66.72506
713.19        66.66502
713.61        66.64801
714.03        66.67429
714.45        66.73901
714.87        66.86242
715.29        67.07909
715.71        67.37778
716.13        67.72411
716.56        68.04137
716.98        68.29184
717.40        68.41216
717.82        68.42701
718.24        68.33185
718.66        68.12469
719.08        67.84413
719.50        67.52197
719.92        67.25987
720.34        67.20802
720.76        67.38921
721.19        67.73328
721.61        68.18057
722.03        68.57114
722.45        68.83399
722.87        68.99526
723.29        69.02814
723.71        68.90237
724.13        68.64149
724.55        68.26824
724.97        67.88831
725.39        67.68411
725.81         67.7049
726.23        67.88789
726.65        68.15707
727.07        68.52952
727.49        68.71316
727.91        68.93354
728.33        69.12955
728.75        69.33294
729.17        69.54079
729.59        69.71822
730.01         69.8516
730.43        69.93616
730.85        69.96914
731.27        69.94595
731.69        69.85976
732.10        69.77019
732.52        69.56621
732.94        69.37451
733.36        69.22272
733.78        69.08533
734.20        68.97714
734.62        69.12375
735.04        69.55889
735.46        69.14053
735.88        69.94462
736.30        69.82136
736.72        70.32393
737.13        70.53647
737.55        70.68244
737.97        70.88078
738.39         71.0489
738.81        70.85449
739.23        70.39378
739.65        70.27044
740.06        70.47485
740.48        70.58365
740.90        70.56626
741.32        70.70935
741.74        70.99316
742.16        71.21484
742.57         71.3447
742.99         71.4196
743.41        71.43764
743.83        71.38116
744.25        71.26122
744.67        71.06975
745.08        70.89922
745.50        70.87618
745.92        71.03362
746.34        71.33566
746.75        71.66013
747.17        71.79131
747.59        71.69439
748.01        71.43427
748.42        71.14401
748.84        71.06702
749.26        71.25632
749.68        71.54263
750.09        71.82334
750.51        72.12957
750.93        72.31028
751.35        72.02887
751.76         71.4216
752.18        71.01508
752.60         70.8571
753.01        70.94868
753.43        70.76922
753.85         70.7804
754.27        70.83067
754.68          70.989
755.10        71.20093
755.52        71.26982
755.93        71.21767
756.35         71.2682
756.77        71.48633
757.18        71.68556
757.60        71.86325
758.02        72.33725
758.43        72.86632
758.85        72.55026
759.26        71.90934
759.68        71.26878
760.10        71.04321
760.51         71.3963
760.93        72.24313
761.34        72.07825
761.76        72.53124
762.18        72.49521
762.59         72.5717
763.01        72.66444
763.42        72.85349
763.84         72.9746
764.26        72.98425
764.67        72.96296
765.09        72.91508
765.50        72.57607
765.92        72.11055
766.33        71.95868
766.75        72.07967
767.16        72.17144
767.58        72.15647
768.00        72.25333
768.41        72.48054
768.83         72.7049
769.24        72.83813
769.66        72.92278
770.07        72.92116
770.49        72.48106
770.90        71.88272
771.32        72.28479
771.73        73.47865
772.15        73.94842
772.56        73.59185
772.97        73.20583
773.39        72.98075
773.80        72.88665
774.22        72.96223
774.63        73.25968
775.05        73.59727
775.46        73.76199
775.88        73.66714
776.29        73.40668
776.70        73.11992
777.12        73.05984
777.53        73.28567
777.95        73.65611
778.36          74.062
778.77        74.26266
779.19        74.21706
779.60         74.0966
780.02        73.90414
780.43        73.61332
780.84         73.3661
781.26        73.05484
781.67         72.8646
782.09         73.6768
782.50        75.07101
782.91        75.13715
783.33        73.99514
783.74        73.60081
784.15        74.04622
784.57        74.15269
784.98        73.93269
785.39        73.95677
785.81        74.23614
786.22        74.62055
786.63        74.99187
787.04        75.16698
787.46        75.12103
787.87        74.88685
788.28        74.61151
788.70        74.53203
789.11          74.599
789.52        74.86256
789.93        75.16636
790.35        75.25701
790.76        75.09946
791.17        74.78822
791.58         74.4931
792.00        74.36539
792.41        74.43491
792.82        74.84235
793.23        75.37994
793.65        75.10075
794.06        74.27862
794.47        74.49125
794.88        75.53709
795.29        75.87816
795.71        75.42759
796.12        75.07829
796.53        74.98947
796.94        75.02573
797.35        75.22798
797.76        75.63118
798.18         76.0635
798.59        76.29612
799.00        76.24514
799.41        75.95911
799.82        75.55271
800.23        75.27991
800.64        75.21494
801.06        75.06167
801.47        75.16314
801.88        75.14565
802.29         75.0778
802.70        74.98689
803.11        74.88633
803.52        74.77913
803.93        74.69779
804.34        74.65732
804.75        74.67085
805.17        74.86369
805.58        75.29614
805.99        75.54937
806.40        75.66496
806.81         76.5681
807.22        77.83238
807.63        77.49791
808.04        75.85659
808.45        75.10926
808.86        75.45037
809.27        75.70676
809.68        75.71443
810.09        75.75484
810.50        75.77843
810.91        75.70933
811.32        75.66818
811.73         75.8294
812.14        76.20931
812.55        76.79028
812.96        77.35983
813.37        77.42242
813.78        76.93814
814.19        76.29708
814.60        75.68984
815.01        75.17249
815.42        74.81205
815.83        74.66236
816.24        74.70623
816.65        74.83591
817.05        75.01968
817.46        75.26397
817.87        75.53906
818.28        75.74393
818.69        75.85526
819.10        75.85704
819.51         75.8277
819.92        75.92886
820.33        76.18835
820.74        76.55672
821.14        76.89666
821.55        76.97872
821.96        76.76714
822.37         76.3456
822.78        75.88171
823.19        75.65601
823.60        75.75184
824.00        76.11111
824.41        76.55615
824.82        76.89947
825.23        77.04706
825.64        77.04552
826.04        76.94055
826.45        76.76379
826.86        76.56429
827.27         76.3486
827.68        76.11178
828.08         75.8829
828.49        75.62898
828.90        75.37299
829.31        75.23145
829.72        75.38084
830.12        75.86066
830.53        76.55582
830.94        77.21806
831.35        77.37152
831.75        76.92973
832.16        76.01896
832.57         75.0037
832.97        74.44608
833.38         74.4945
833.79        74.95853
834.20          75.634
834.60        76.19164
835.01        76.51978
835.42        76.76508
835.82         76.9317
836.23        76.93164
836.64        76.80949
837.04         76.5275
837.45        76.29787
837.86        76.55502
838.26        77.38439
838.67           78.62
839.08         79.8298
839.48        80.18354
839.89        79.47726
840.29        78.01878
840.70        76.45673
841.11        75.52473
841.51        75.41851
841.92        75.89906
842.33        76.72485
842.73        77.46214
843.14        77.81897
843.54        77.97888
843.95        78.02072
844.35        78.13155
844.76        78.33448
845.17         78.5311
845.57        78.64362
845.98        78.54048
846.38        78.22926
846.79        77.77837
847.19        77.29492
847.60        76.90849
848.00        76.68186
848.41        76.55473
848.81        76.54876
849.22        76.60086
849.62        76.72638
850.03        76.92822
850.43        77.15301
850.84        77.23765
851.24         77.1989
851.65        76.98457
852.05        76.81707
852.46        76.96721
852.86        77.47299
853.27        78.21832
853.67        78.85638
854.07        79.04227
854.48        78.69322
854.88        77.95734
855.29        77.01847
855.69         76.3692
856.10        76.10712
856.50        76.19576
856.90        76.45634
857.31        76.60006
857.71        76.59079
858.12        76.45046
858.52        76.31185
858.92        76.26228
859.33        76.31171
859.73        76.45269
860.13        76.57264
860.54        76.52979
860.94           76.34
861.34        76.03723
861.75         75.7271
862.15        75.62541
862.55        75.75651
862.96        76.01652
863.36          76.342
863.76        76.52758
864.17        76.49574
864.57        76.34126
864.97        76.05499
865.38        75.63123
865.78        75.13077
866.18        74.55663
866.58        74.05048
866.99        73.86296
867.39        74.07782
867.79        74.61193
868.19         75.2889
868.60        75.80495
869.00        76.10328
869.40        76.22154
869.80        76.23492
870.21        76.29571
870.61        76.51031
871.01         76.7609
871.41        76.91638
871.81        76.80547
872.22        76.39885
872.62        75.75381
873.02        75.07738
873.42         74.7049
873.82        74.73013
874.22        75.07403
874.63        75.47208
875.03        75.51786
875.43        75.10885
875.83        74.36972
876.23        73.61199
876.63        73.30854
877.03        73.56877
877.44        74.24366
877.84        75.02552
878.24        75.38146
878.64        75.14295
879.04        74.36778
879.44         73.5114
879.84        73.34552
880.24        73.96612
880.64        75.08027
881.04        76.14847
881.44        76.30194
881.84        75.36052
882.24         73.6737
882.65        71.81324
883.05        70.64603
883.45        70.42987
883.85        70.91242
884.25        71.82641
884.65        72.70263
885.05        73.32777
885.45        73.81642
885.85        74.17136
886.25        74.39837
886.65        74.51603
887.05         74.4754
887.45        74.30369
887.85        74.09407
888.25        73.88693
888.65        73.69381
889.04        73.53008
889.44        73.42641
889.84        73.37203
890.24        73.36623
890.64        73.38514
891.04        73.38669
891.44        73.35259
891.84        73.28918
892.24        73.20213
892.64        73.09271
893.04         72.9893
893.44        72.93957
893.83        72.97108
894.23        73.06853
894.63        73.25597
895.03        73.48559
895.43        73.85876
895.83          74.549
896.23        75.51226
896.63        76.62918
897.02        77.53116
897.42        77.67056
897.82        76.96889
898.22        75.67636
898.62         74.1804
899.01        73.04991
899.41        72.48587
899.81        72.32607
900.21        72.50365
900.61        72.89381
901.00        73.39056
901.40        74.00302
901.80        74.57793
902.20        74.84802
902.59        74.77796
902.99        74.43891
903.39        73.94357
903.79         73.5116
904.18        73.22243
904.58        73.00289
904.98        72.98331
905.38        73.36479
905.77        74.13096
906.17        75.24892
906.57        76.28595
906.96        76.51182
907.36        75.77262
907.76         74.3014
908.15        72.73927
908.55         72.0965
908.95        72.62008
909.34        74.02525
909.74        75.68135
910.14        76.61366
910.53        76.50314
910.93        75.67886
911.33        74.52683
911.72        73.62595
912.12        73.23318
912.52        73.16109
912.91        73.25674
913.31        73.33563
913.70        73.33496
914.10        73.29961
914.49        73.39999
914.89        73.79398
915.29        74.51201
915.68        75.47381
916.08        76.30611
916.47        76.49595
916.87        75.96359
917.26        74.86218
917.66        73.70738
918.05         73.1074
918.45        73.21128
918.84        73.90818
919.24         74.7928
919.64        75.28588
920.03        75.22784
920.42        74.75256
920.82        74.27451
921.21        74.38129
921.61        75.16724
922.00        76.46481
922.40        77.77524
922.79        78.39668
923.19        78.09409
923.58        77.14423
923.98        75.99174
924.37        75.19961
924.77         74.9438
925.16        75.01871
925.55         75.2722
925.95         75.4208
926.34         75.3827
926.74        75.25333
927.13        75.04364
927.52        74.67791
927.92        74.23259
928.31        73.71478
928.70        73.28476
929.10          73.173
929.49        73.40284
929.89        73.83498
930.28        74.46902
930.67        75.16521
931.07        75.79803
931.46         76.4673
931.85        76.87477
932.24        76.61039
932.64        75.69959
933.03        74.25706
933.42        72.88269
933.82         72.4422
934.21         73.1027
934.60        74.68495
934.99        76.56863
935.39        77.60933
935.78        77.51093
936.17          76.479
936.56        75.15046
936.96        74.54205
937.35         74.8968
937.74        75.89606
938.13        76.91402
938.53        76.99661
938.92        75.96304
939.31        74.21532
939.70        72.40076
940.09        71.41713
940.49        71.44063
940.88        72.22964
941.27        73.37611
941.66        74.13596
942.05        74.25993
942.44        74.00073
942.84        73.63375
943.23        73.57594
943.62        73.94614
944.01        74.52563
944.40        75.21117
944.79         75.8831
945.18         76.4446
945.57        76.93624
945.97        77.15714
946.36        76.87886
946.75        76.06403
947.14        74.86771
947.53        73.62712
947.92        72.81745
948.31        72.55447
948.70        72.72507
949.09        73.18299
949.48        73.64881
949.87        74.00181
950.26        74.30258
950.65        74.54972
951.04        74.75232
951.43        74.90658
951.82        74.96026
952.21        74.92389
952.60        74.84244
952.99         74.7537
953.38        74.70367
953.77        74.67666
954.16        74.64064
954.55         74.5787
954.94        74.43903
955.33        74.36065
955.72        74.57654
956.11         75.1075
956.50        75.92476
956.89        76.57043
957.28        76.28426
957.66        74.96714
958.05        72.94927
958.44        71.01244
958.83        70.27682
959.22        70.93385
959.61        72.66012
960.00        74.74815
960.39        75.86028
960.78        75.56326
961.16        74.26657
961.55        72.65949
961.94        71.64153
962.33        71.47362
962.72        71.92477
963.11        72.70052
963.49         73.2902
963.88        73.40114
964.27        73.19842
964.66        73.04677
965.04        73.50513
965.43        74.61078
965.82        76.23213
966.21        77.70518
966.60        77.80508
966.98        76.24467
967.37        73.59032
967.76        70.89133
968.15        69.44028
968.53        69.47066
968.92        70.66459
969.31         72.3553
969.69        73.20487
970.08        72.68801
970.47        71.26485
970.86        69.77226
971.24        69.38226
971.63        70.33168
972.02        72.26002
972.40        74.47543
972.79        75.33981
973.17        74.44241
973.56        72.40094
973.95        70.12789
974.33        68.77597
974.72        68.60011
975.11        69.20897
975.49        70.28843
975.88        71.14725
976.26        71.54377
976.65        71.66252
977.04        71.55302
977.42        71.23474
977.81        70.74052
978.19        70.00891
978.58        69.36024
978.96         69.3214
979.35        69.95365
979.74        71.15079
980.12        72.54885
980.51        73.21006
980.89        73.01904
981.28        72.25013
981.66        71.33987
982.05        70.89832
982.43        71.10927
982.82        71.75564
983.20         72.8654
983.59        74.34035
983.97         76.1101
984.35        78.10381
984.74        79.81822
985.12        80.66929
985.51        80.44263
985.89        79.32922
986.28        77.84771
986.66        76.72626
987.04        76.24245
987.43        76.17176
987.81        76.38824
988.20        76.46896
988.58        76.29345
988.96        75.92551
989.35         75.4325
989.73        74.84471
990.12        74.17311
990.50        73.45055
990.88        72.56561
991.27        71.42272
991.65        70.12469
992.03        68.76892
992.42        67.79167
992.80         67.7235
993.18        68.64823
993.56        70.44437
993.95        72.46439
994.33         73.6437
994.71        73.50263
995.10        72.44341
995.48        71.11862
995.86        70.63725
996.24        71.25512
996.63        72.45939
997.01        74.07477
997.39        75.31836
997.77        75.77538
998.15        75.81688
998.54        75.22109
998.92        73.49252
999.30        70.87212
999.68        67.60889
1000.06        64.82004
1000.45         64.0782
1000.83        65.75769
1001.21        69.57298
1001.59        74.43901
1001.97        77.61988
1002.35        77.94275
1002.73         76.1397
1003.12        73.58286
1003.50          72.021
1003.88        71.99836
1004.26        72.86375
1004.64        74.24545
1005.02        75.38424
1005.40        75.87189
1005.78        76.16124
1006.16        75.98386
1006.54        74.82109
1006.92        72.81297
1007.30        70.15721
1007.69        67.88387
1008.07        67.32214
1008.45         68.8634
1008.83        72.23093
1009.21        76.45238
1009.59        79.03777
1009.97        78.77982
1010.35        76.37621
1010.73        72.89339
1011.11        69.89886
1011.49        67.96481
1011.86         66.7086
1012.24        66.10824
1012.62        66.09834
1013.00        66.58501
1013.38        67.65079
1013.76        69.19147
1014.14        70.68257
1014.52         71.7392
1014.90        72.32911
1015.28        72.33542
1015.66        71.76303
1016.04        70.70347
1016.41        69.12968
1016.79        67.48947
1017.17        66.71686
1017.55        67.02361
1017.93        68.15908
1018.31        69.43082
1018.69        69.77769
1019.06        68.99215
1019.44        67.31728
1019.82        65.20756
1020.20        63.87908
1020.58        63.82067
1020.95        64.39462
1021.33        65.36907
1021.71        66.38313
1022.09        67.38519
1022.46        68.90158
1022.84        70.12914
1023.22        69.32172
1023.60        66.22636
1023.97        61.34854
1024.35        57.46709
1024.73        57.82956
