SpectraSmart Spectrum 2.9.0.0
--------- Device Information -----------
Spectrum Name :  反射率_0
Saving Time :  2024/04/26 23:36:52
Spectro-Module Model Name : SE2030-DUVN
Spectro-Module Serial Number : OS361AC55029948
Wavelength Start : 200
Wavelength End : 1025
Wavelength Unit : Wavelength(nm)
Spectrum Unit : Reflectance(%)
-----------Spectrum Setting ------------
Integration Time : 20ms
Average : 10
Boxcar : 0
Background removal :  enabled
linearity correction :  enabled
SC :  disabled
Intensity correction :  disabled
DWT denoise :  enabled
savitzky-golay :  disabled
FFT :  disabled
Running average :  disabled
Kalman :  disabled
High pass :  disabled
---------------BEGIN--------------------
Wavelength(nm)             Reflectance(%)
200.29               0
200.75        32.71054
201.21        32.60357
201.67        32.89091
202.13        33.24905
202.58        33.56316
203.04        34.27187
203.50        35.82203
203.96        38.69911
204.42        42.79753
204.88        47.54332
205.34        51.23148
205.80        51.61403
206.26        48.48245
206.72         43.0156
207.18        37.31119
207.64        32.50818
208.10        28.24421
208.55        23.98004
209.01         19.0425
209.47         15.2959
209.93        14.94583
210.39        16.98934
210.85        20.14051
211.31        24.67169
211.77        32.34626
212.23        48.23512
212.69        86.62579
213.14        150.9062
213.60        148.3488
214.06        102.4697
214.52          70.936
214.98        55.98182
215.44        48.42424
215.90        42.87103
216.36        38.78825
216.81        36.14138
217.27        35.15115
217.73        37.07112
218.19        40.73857
218.65        40.30563
219.11         35.1895
219.57        29.26862
220.02        26.86289
220.48        30.88979
220.94        41.81618
221.40        61.64533
221.86        90.30505
222.32        110.4597
222.77        105.9061
223.23        87.46168
223.69        68.69244
224.15        57.68427
224.61        53.17253
225.06        51.47166
225.52        51.20311
225.98        50.87634
226.44        50.17134
226.90         49.7322
227.36        49.40355
227.81        48.80003
228.27        48.02883
228.73        46.91445
229.19        46.06136
229.65         46.2568
230.10         47.4313
230.56        49.39759
231.02        51.09157
231.48        50.83995
231.93        48.55434
232.39        45.28687
232.85        42.38728
233.31        41.63576
233.77        43.13091
234.22        46.17327
234.68        49.71785
235.14        52.23463
235.60        53.19093
236.05        53.01246
236.51        51.90889
236.97        50.45118
237.43        49.04465
237.88         47.6342
238.34        46.38861
238.80        45.77195
239.26        45.98146
239.71        47.45895
240.17        50.27175
240.63        54.37383
241.08        59.58486
241.54         65.3232
242.00        71.49744
242.46        78.83325
242.91        88.72372
243.37        101.5503
243.83        117.3359
244.28        129.3433
244.74        127.1291
245.20        111.5635
245.66        92.58538
246.11        77.63377
246.57        67.09292
247.03        58.48926
247.48        52.15504
247.94        49.44922
248.40        49.97308
248.85        52.29755
249.31        54.11253
249.77        53.02788
250.22        48.68936
250.68        40.81731
251.14        31.15774
251.59         27.1063
252.05        32.65878
252.51        44.19963
252.96        54.90414
253.42        59.00456
253.88        57.22631
254.33        52.22541
254.79        48.15564
255.25        48.36741
255.70        52.55853
256.16        59.13861
256.62        64.88457
257.07        65.10072
257.53        61.01357
257.99          55.666
258.44        51.20439
258.90        49.54068
259.35        49.74762
259.81        51.02359
260.27        52.30534
260.72        52.39159
261.18        51.42387
261.63        49.78757
262.09        48.24742
262.55        47.15691
263.00        46.45378
263.46        46.04393
263.91        45.57947
264.37         44.8974
264.83        43.96573
265.28        42.88357
265.74        41.95214
266.19        41.26896
266.65        40.89512
267.11        40.67253
267.56        40.50142
268.02        40.23028
268.47        39.81464
268.93        39.34459
269.38        38.77799
269.84        38.10043
270.30        37.32408
270.75        36.44418
271.21        35.65294
271.66        35.19384
272.12        35.08975
272.57         35.2269
273.03        35.34537
273.48        35.02052
273.94         34.2182
274.39        33.06989
274.85        31.87685
275.31        30.92483
275.76        30.27011
276.22        29.85544
276.67        29.55235
277.13        29.25608
277.58        28.88732
278.04        28.50588
278.49        28.11198
278.95          27.804
279.40        27.53995
279.86        27.33789
280.31        27.07043
280.77        26.66002
281.22        26.07933
281.68        25.43086
282.13        24.81496
282.59         24.4399
283.04        24.29986
283.50        24.33832
283.95         24.4297
284.41        24.38415
284.86        24.15325
285.32        23.82616
285.77        23.46978
286.22        23.22841
286.68        23.13124
287.13        23.09859
287.59        23.10318
288.04        23.06784
288.50        22.98994
288.95        22.87484
289.41        22.74145
289.86         22.5563
290.32        22.35521
290.77        22.13799
291.22        21.95681
291.68        21.87901
292.13        21.91059
292.59        22.04755
293.04        22.26452
293.50        22.53563
293.95        22.83827
294.40        23.18125
294.86        23.55439
295.31        23.93657
295.77        24.32731
296.22        24.71481
296.68        25.11821
297.13        25.55904
297.58        26.04489
298.04        26.57049
298.49        27.10484
298.95        27.61421
299.40        28.08073
299.85        28.51248
300.31        28.93518
300.76        29.38119
301.21        29.85634
301.67        30.35988
302.12        30.83567
302.58        31.25228
303.03        31.58149
303.48        31.85739
303.94        32.12938
304.39         32.4409
304.84        32.80912
305.30        33.21894
305.75         33.6135
306.20        33.95872
306.66        34.24812
307.11        34.48153
307.57        34.67056
308.02        34.78751
308.47        34.84677
308.93         34.8592
309.38        34.85259
309.83        34.91849
310.29        35.06824
310.74         35.2719
311.19        35.45415
311.65        35.48402
312.10        35.33234
312.55        35.04532
313.00        34.71972
313.46         34.4992
313.91        34.40478
314.36        34.40185
314.82        34.41752
315.27        34.34305
315.72        34.14752
316.18        33.88017
316.63        33.58724
317.08         33.3533
317.53        33.19681
317.99        33.07844
318.44         32.9719
318.89        32.82695
319.35        32.62722
319.80        32.39268
320.25        32.12811
320.70        31.83889
321.16        31.53179
321.61         31.2167
322.06        30.90972
322.51        30.64278
322.97        30.41874
323.42        30.23162
323.87        30.07256
324.32        29.92933
324.78        29.78049
325.23        29.64441
325.68        29.47306
326.13        29.20068
326.59        28.82524
327.04        28.38131
327.49        27.94702
327.94        27.64851
328.39        27.50443
328.85        27.46068
329.30        27.46559
329.75        27.37033
330.20        27.13151
330.66        26.79328
331.11        26.40743
331.56        26.03361
332.01        25.69987
332.46        25.38247
332.92        25.09585
333.37        24.90977
333.82        24.81996
334.27        24.82353
334.72        24.85822
335.17        24.81077
335.63        24.65177
336.08         24.4215
336.53        24.18208
336.98        24.05328
337.43        24.06236
337.88        24.15855
338.34        24.28693
338.79        24.38064
339.24        24.39704
339.69        24.36403
340.14         24.2605
340.59        24.05419
341.05        23.76664
341.50        23.41149
341.95        23.07754
342.40        22.90078
342.85        22.90564
343.30         23.0507
343.75        23.24817
344.20        23.35046
344.66        23.31446
345.11        23.17602
345.56        22.98311
346.01        22.81649
346.46        22.70642
346.91        22.63186
347.36        22.57375
347.81        22.50662
348.26        22.42443
348.72        22.34085
349.17        22.27711
349.62        22.27231
350.07        22.32933
350.52        22.43362
350.97        22.52963
351.42        22.53189
351.87        22.42433
352.32        22.23146
352.77        22.02386
353.22        21.90757
353.67        21.89986
354.13        21.96672
354.58        22.03553
355.03        21.99037
355.48        21.80687
355.93         21.5338
356.38        21.23923
356.83        21.01991
357.28        20.90078
357.73        20.84866
358.18        20.83356
358.63        20.80925
359.08         20.7546
359.53        20.68008
359.98        20.58524
360.43        20.46626
360.88        20.32284
361.33        20.15419
361.78         19.9612
362.23        19.75047
362.68         19.5344
363.13        19.32387
363.58          19.138
364.03        19.00092
364.48        18.91576
364.93        18.87201
365.38        18.85851
365.83        18.85611
366.28        18.85132
366.73         18.8421
367.18        18.81065
367.63        18.73261
368.08          18.606
368.53         18.4389
368.98        18.25595
369.43        18.09777
369.88        17.97731
370.33        17.88762
370.78        17.81816
371.23        17.74818
371.68        17.67179
372.13        17.59719
372.58        17.52787
373.03        17.46883
373.48        17.41736
373.93        17.36166
374.38         17.2992
374.83        17.22991
375.28        17.15126
375.72        17.06228
376.17        16.95937
376.62        16.81314
377.07        16.62823
377.52        16.42125
377.97        16.23221
378.42        16.12734
378.87        16.11793
379.32        16.17354
379.77        16.25944
380.22        16.32449
380.67        16.34808
381.11        16.34713
381.56        16.29636
382.01        16.17532
382.46        15.99551
382.91        15.77437
383.36        15.56254
383.81        15.42953
384.26        15.38243
384.71        15.39741
385.15        15.43943
385.60        15.44965
386.05        15.40756
386.50        15.33596
386.95        15.23584
387.40        15.11131
387.85        14.97405
388.29        14.81347
388.74        14.68261
389.19        14.62267
389.64         14.6328
390.09        14.69515
390.54        14.75757
390.98        14.72862
391.43        14.60354
391.88        14.41848
392.33         14.2263
392.78        14.10164
393.23        14.06002
393.67        14.06574
394.12        14.11263
394.57        14.16509
395.02        14.20886
395.47        14.24907
395.91        14.27621
396.36        14.26327
396.81        14.21652
397.26        14.14479
397.71        14.06297
398.15        14.00461
398.60        13.99294
399.05        13.95848
399.50        13.91383
399.95        13.97911
400.39         14.1061
400.84        14.04578
401.29        13.81544
401.74        13.66236
402.18        13.60755
402.63        13.50928
403.08        13.39107
403.53        13.35021
403.97        13.39027
404.42        13.48193
404.87        13.58141
405.32        13.61485
405.76        13.56284
406.21        13.45672
406.66        13.33062
407.11         13.2406
407.55        13.20645
408.00        13.20253
408.45        13.21918
408.90        13.23299
409.34        13.23232
409.79         13.2291
410.24        13.21754
410.68        13.18178
411.13        13.12563
411.58        13.04915
412.03         12.9684
412.47         12.9184
412.92        12.90431
413.37        12.91913
413.81        12.94375
414.26        12.96012
414.71        12.95806
415.15        12.94747
415.60        12.92693
416.05        12.90498
416.49        12.88721
416.94        12.86874
417.39        12.85425
417.83        12.85151
418.28        12.85842
418.73        12.86922
419.17        12.87941
419.62        12.88038
420.07        12.87055
420.51        12.85386
420.96        12.82526
421.41        12.77494
421.85        12.70159
422.30        12.60522
422.74        12.50977
423.19        12.50827
423.64        12.58523
424.08        12.65117
424.53        12.67154
424.98        12.68751
425.42        12.69682
425.87        12.63056
426.31        12.52153
426.76         12.5147
427.21         12.5865
427.65        12.54564
428.10        12.42181
428.54        12.39116
428.99        12.46265
429.44        12.58156
429.88        12.69097
430.33         12.6526
430.77        12.50027
431.22        12.47997
431.66        12.58991
432.11        12.60957
432.56        12.54292
433.00        12.56115
433.45        12.61767
433.89        12.54016
434.34         12.4177
434.78        12.18197
435.23        12.51175
435.67        12.59028
436.12        12.58603
436.57        12.53731
437.01        12.46539
437.46         12.4133
437.90        12.38489
438.35        12.33453
438.79        12.26953
439.24        12.24167
439.68        12.25337
440.13         12.2888
440.57        12.32982
441.02        12.35781
441.46        12.36338
441.91        12.32101
442.35        12.24445
442.80        12.27268
443.24        12.35702
443.69        12.28504
444.13        12.09133
444.58        12.02421
445.02        12.09381
445.47        12.17063
445.91        12.22553
446.36        12.27226
446.80        12.29638
447.24         12.2945
447.69        12.27359
448.13        12.23912
448.58        12.20028
449.02         12.1577
449.47         12.1185
449.91        12.08824
450.36        12.07261
450.80        12.06773
451.25        12.08055
451.69         12.1136
452.13        12.16348
452.58        12.22314
453.02        12.27234
453.47        12.28162
453.91         12.2458
454.36        12.17799
454.80        12.09283
455.24        12.01329
455.69        11.95433
456.13        11.90324
456.58        11.87827
457.02        11.88595
457.46        11.92815
457.91        11.99831
458.35        12.06172
458.79         12.0647
459.24        12.00871
459.68        11.90334
460.13        11.79661
460.57        11.72902
461.01        11.72185
461.46        11.75213
461.90        11.80922
462.34        11.86257
462.79        11.89736
463.23        11.92785
463.68        11.94566
464.12        11.94447
464.56         11.9218
465.01        11.88988
465.45        11.84778
465.89        11.83012
466.34        11.84105
466.78        11.87188
467.22        11.91004
467.67        11.92079
468.11        11.90359
468.55        11.86424
468.99        11.82505
469.44        11.81975
469.88          11.856
470.32        11.92113
470.77        11.99453
471.21        12.04638
471.65        12.06509
472.10        12.06065
472.54        12.04062
472.98         12.0226
473.42         12.0132
473.87        12.01278
474.31        12.01009
474.75        12.00009
475.20        11.98653
475.64        11.96981
476.08        11.96534
476.52        11.98845
476.97        12.04124
477.41        12.12268
477.85        12.21929
478.29        12.29116
478.74        12.33848
479.18        12.39677
479.62        12.46264
480.06        12.51135
480.50        12.54497
480.95        12.56406
481.39        12.55893
481.83        12.63473
482.27        12.61012
482.72        12.64648
483.16        12.69978
483.60        12.75554
484.04        12.80152
484.48        12.91413
484.93        13.14019
485.37        13.11966
485.81        13.24022
486.25        13.53257
486.69        13.52325
487.14         13.2915
487.58        13.84848
488.02        13.80504
488.46        13.47157
488.90        13.72717
489.34         13.7222
489.79        13.93611
490.23        14.03886
490.67        14.22765
491.11        14.45297
491.55        14.52985
491.99        14.49475
492.43        14.53155
492.88          14.658
493.32         14.7692
493.76        14.85593
494.20         14.9629
494.64        15.09429
495.08        15.21008
495.52        15.31099
495.96        15.49543
496.41        15.72851
496.85        15.77712
497.29        15.67899
497.73        15.85209
498.17          16.073
498.61        16.25744
499.05        16.31598
499.49         16.3891
499.93        16.44623
500.37         16.5861
500.82        16.77482
501.26        16.90426
501.70          16.964
502.14        17.02284
502.58        17.10384
503.02        17.20877
503.46         17.3412
503.90        17.49765
504.34        17.65056
504.78        17.75378
505.22        17.79629
505.66        17.79278
506.10        17.76786
506.54        17.76197
506.98        17.78831
507.42        17.83566
507.86        17.89782
508.30         17.9635
508.74        18.02711
509.18        18.09416
509.62        18.15842
510.06         18.2088
510.50        18.24376
510.94        18.26382
511.38        18.28139
511.82        18.31754
512.26        18.37731
512.70        18.45676
513.14        18.53966
513.58        18.59944
514.02        18.62933
514.46        18.63393
514.90        18.63406
515.34        18.66393
515.78        18.72826
516.22        18.81462
516.66        18.89116
517.10        18.90756
517.54        18.85539
517.98        18.75469
518.42        18.64109
518.86        18.57056
519.30        18.55877
519.74        18.58851
520.18        18.63852
520.62         18.6748
521.06         18.6853
521.50        18.67978
521.93        18.66447
522.37        18.64176
522.81         18.6175
523.25        18.58833
523.69        18.55398
524.13        18.51645
524.57        18.47568
525.01         18.4303
525.45        18.38527
525.89        18.34727
526.32         18.3149
526.76        18.29199
527.20        18.26295
527.64        18.20521
528.08        18.11722
528.52        18.00672
528.96        17.89968
529.40        17.83647
529.83        17.82338
530.27        17.84781
530.71        17.87886
531.15        17.86842
531.59        17.80548
532.03        17.70548
532.46        17.59109
532.90        17.51086
533.34        17.47331
533.78        17.45374
534.22        17.43801
534.66        17.42604
535.09        17.39989
535.53        17.32964
535.97        17.23005
536.41        17.16765
536.85        17.15191
537.28        17.14863
537.72        17.16334
538.16        17.21796
538.60        17.30828
539.04        17.42446
539.47        17.54007
539.91        17.62578
540.35        17.67225
540.79         17.6916
541.22        17.69995
541.66        17.73096
542.10        17.79197
542.54        17.87227
542.97        17.96784
543.41        18.07937
543.85        18.20039
544.29        18.33426
544.72        18.46275
545.16        18.56982
545.60         18.6513
546.04        18.71604
546.47         18.7899
546.91        18.91191
547.35        19.08658
547.79        19.29912
548.22        19.52093
548.66        19.70481
549.10        19.86303
549.53        19.99978
549.97        20.12792
550.41        20.22229
550.84        20.30985
551.28         20.4406
551.72         20.5966
552.15        20.76591
552.59        20.97077
553.03        20.91017
553.46        21.21023
553.90         21.3192
554.34        21.42016
554.77        21.50995
555.21        21.61311
555.65        21.75017
556.08        21.91296
556.52        22.08384
556.96        22.22254
557.39         22.3294
557.83        22.38044
558.27        22.26359
558.70        22.05853
559.14        22.02354
559.57        22.16913
560.01        22.35708
560.45        22.52367
560.88        22.64107
561.32         22.7028
561.75        22.69875
562.19        22.67842
562.63        22.71505
563.06        22.81943
563.50        22.96395
563.93         23.1041
564.37        23.23198
564.80        23.34565
565.24         23.4001
565.68        23.35019
566.11        23.63881
566.55        23.42685
566.98        23.39828
567.42        23.37813
567.85         23.5139
568.29        23.79473
568.72        24.08807
569.16        24.37607
569.60        24.58284
570.03        24.78029
570.47        24.92157
570.90        25.05919
571.34        25.00868
571.77        25.26839
572.21        25.40971
572.64        25.52787
573.08        25.71509
573.51        25.78745
573.95        25.83114
574.38        25.86225
574.82        26.05519
575.25        25.87248
575.69        26.03881
576.12        26.35802
576.56        26.23071
576.99        26.15311
577.42        26.32454
577.86         25.9788
578.29        26.66658
578.73        26.27559
579.16        26.19493
579.60         25.8912
580.03        25.87968
580.47        25.84835
580.90        26.11238
581.33        26.12945
581.77        26.16264
582.20        25.90373
582.64        25.58065
583.07        25.54828
583.51        25.40135
583.94        25.33179
584.37        25.24052
584.81        25.13837
585.24        25.05043
585.68         24.9766
586.11         24.7314
586.54        24.69067
586.98        24.29616
587.41        24.32256
587.85        24.36631
588.28        24.25056
588.71         24.2509
589.15        24.18144
589.58        24.26948
590.01        24.18206
590.45        24.24576
590.88        24.38482
591.31        24.30007
591.75        24.11936
592.18        23.99922
592.61        23.92636
593.05        24.56395
593.48        24.82805
593.91        24.37342
594.35        24.45941
594.78        24.28692
595.21        24.35272
595.65        24.63236
596.08        25.10641
596.51        25.29106
596.94        25.11175
597.38        25.22115
597.81        25.61985
598.24        25.89892
598.68        26.07213
599.11        26.30996
599.54        26.85155
599.97        26.65571
600.41        27.16534
600.84        27.24103
601.27        27.70925
601.70        27.81611
602.14        28.30696
602.57        28.61653
603.00         28.9612
603.43        29.08165
603.87        29.71914
604.30        30.03526
604.73        30.30378
605.16        30.51396
605.60        30.92919
606.03        31.16889
606.46        31.32471
606.89        31.61095
607.32        32.41017
607.76        32.60263
608.19        32.96109
608.62        33.12805
609.05        33.41618
609.48        33.67771
609.92        34.33055
610.35         34.6353
610.78        34.72773
611.21        34.73491
611.64        35.26908
612.07         35.6031
612.50        35.71236
612.94        35.92981
613.37         36.2029
613.80        36.32433
614.23        36.30574
614.66        36.51925
615.09        36.93769
615.52        37.26855
615.96        37.46422
616.39        37.67579
616.82        37.90348
617.25        37.99613
617.68        38.01684
618.11        38.23269
618.54        38.59286
618.97         38.8059
619.40         38.8969
619.84        38.83651
620.27        39.10202
620.70        39.24876
621.13        39.38202
621.56        39.20456
621.99        39.04122
622.42        39.00657
622.85        39.19212
623.28        39.26733
623.71        39.37618
624.14        39.48329
624.57        39.61354
625.00        39.59943
625.43        39.52556
625.86        39.41983
626.29        39.38804
626.72        38.86667
627.15        39.00666
627.58        38.89497
628.01        38.81425
628.44         38.6268
628.87        38.36449
629.30        38.11476
629.73         37.8633
630.16         37.8717
630.59        37.50562
631.02        37.35233
631.45        37.22475
631.88        37.01793
632.31        36.69829
632.74        36.61776
633.17        36.19276
633.60        35.85109
634.03        35.42702
634.46         34.9464
634.89        34.44665
635.32        34.00811
635.75        33.65801
636.18        33.33699
636.61        33.03425
637.04        32.74686
637.47        32.46042
637.89        32.17026
638.32        31.86159
638.75        31.54335
639.18        31.22233
639.61        30.90523
640.04        30.60449
640.47        30.32715
640.90        30.08224
641.33         29.8917
641.76        29.74774
642.18        29.61836
642.61        29.49051
643.04        29.38375
643.47        29.30128
643.90        29.24223
644.33        29.20598
644.76        29.19123
645.18        29.19401
645.61         29.2024
646.04         29.2241
646.47        29.26879
646.90        29.34951
647.33        29.50075
647.75         29.7214
648.18        29.96764
648.61        30.25273
649.04        30.64655
649.47        31.03806
649.89        31.53722
650.32        31.37474
650.75        31.64748
651.18        32.13055
651.61        32.61419
652.03        33.07552
652.46        33.47556
652.89        33.80154
653.32        34.20308
653.74        34.79807
654.17        34.74821
654.60        35.54288
655.03        35.94592
655.46        35.65816
655.88        36.14755
656.31        37.96066
656.74        39.31404
657.16         39.6656
657.59        40.10116
658.02        38.73747
658.45        39.43951
658.87        39.49094
659.30        39.64679
659.73        39.56625
660.15        40.59818
660.58        40.32855
661.01        40.52911
661.44        40.56181
661.86        40.58894
662.29        40.61761
662.72        41.13523
663.14        41.32753
663.57         41.5302
664.00         41.5604
664.42        41.77053
664.85        42.17511
665.27        42.56981
665.70        42.86849
666.13        43.07079
666.55        43.16312
666.98        43.10291
667.41        42.93831
667.83        43.03019
668.26        42.96217
668.69        43.07734
669.11        43.23547
669.54        43.42152
669.96        43.62361
670.39        43.84472
670.82        44.06855
671.24        44.24443
671.67          44.359
672.09        44.41345
672.52        44.44326
672.94        44.48021
673.37        44.54218
673.80        44.61666
674.22        44.70868
674.65        44.79864
675.07        44.89283
675.50        44.98947
675.92        45.08141
676.35        45.14666
676.77         45.1831
677.20        45.19569
677.62        45.21519
678.05         45.2574
678.47        45.32435
678.90         45.4749
679.32        45.69153
679.75        45.64089
680.17        45.80664
680.60        45.80183
681.02        45.81587
681.45        45.88979
681.87        46.04393
682.30         46.2752
682.72        46.52597
683.15         46.6211
683.57        46.57717
684.00         46.5647
684.42        46.62522
684.85        46.69788
685.27        46.79374
685.70        46.96643
686.12        47.14906
686.54        47.25647
686.97        47.29273
687.39        47.07981
687.82        47.10226
688.24         47.0731
688.66        47.12621
689.09        47.17101
689.51        47.20887
689.94        47.27232
690.36        47.35518
690.78        47.41396
691.21        47.46701
691.63        47.55881
692.06        47.69485
692.48        47.86782
692.90        48.02256
693.33        48.07741
693.75        48.01693
694.17        47.84329
694.60        47.66699
695.02        47.66266
695.44        47.84238
695.87        48.19196
696.29        48.57449
696.71        48.54234
697.14        48.17432
697.56        48.06237
697.98        48.26001
698.41        48.38533
698.83        48.43737
699.25        48.69793
699.68        49.05484
700.10        49.21676
700.52        49.12435
700.94        48.87558
701.37        48.59911
701.79        48.50751
702.21        48.64634
702.64        48.93464
703.06        49.27137
703.48         49.4789
703.90        49.50731
704.33        49.42159
704.75         49.2787
705.17        49.16041
705.59        49.10155
706.01        49.07017
706.44        49.08739
706.86        49.18451
707.28        49.34338
707.70        49.61444
708.12        49.92382
708.55        50.00344
708.97        49.89577
709.39        49.94527
709.81        50.14656
710.23        50.21155
710.66         50.1314
711.08        50.09375
711.50        50.10389
711.92        50.09711
712.34        50.07914
712.76        50.08008
713.19        50.08297
713.61         50.0856
714.03        50.07831
714.45        50.06461
714.87        50.07831
715.29        50.17507
715.71        50.35711
716.13        50.59638
716.56         50.8235
716.98        50.98999
717.40        51.04413
717.82        51.00624
718.24        50.90259
718.66        50.77834
719.08        50.66274
719.50        50.55915
719.92        50.48285
720.34        50.45026
720.76        50.45941
721.19         50.5061
721.61        50.61752
722.03        50.74926
722.45        50.87458
722.87        51.17547
723.29        51.25826
723.71        51.30095
724.13        51.19231
724.55        50.97532
724.97         50.7263
725.39        50.58508
725.81        50.59367
726.23        50.69212
726.65        50.83599
727.07        51.06318
727.49        51.16298
727.91        51.30474
728.33        51.42842
728.75        51.52888
729.17        51.60204
729.59        51.63621
730.01        51.65341
730.43        51.69324
730.85        51.76104
731.27        51.84612
731.69        51.91154
732.10        51.89756
732.52        51.79385
732.94        51.63283
733.36        51.48136
733.78        51.34058
734.20        51.22405
734.62        51.34157
735.04        51.70676
735.46        51.32001
735.88        51.71514
736.30        51.79452
736.72        52.01342
737.13        52.23246
737.55        52.38182
737.97        52.56588
738.39        52.70152
738.81        52.48074
739.23        52.02413
739.65          51.957
740.06        52.24654
740.48        52.37253
740.90        52.30284
741.32        52.37145
741.74        52.57471
742.16        52.71827
742.57        52.78398
742.99        52.81354
743.41        52.81006
743.83        52.76578
744.25         52.6886
744.67        52.56809
745.08        52.46451
745.50        52.45886
745.92        52.57065
746.34        52.77552
746.75        52.98451
747.17        53.03988
747.59        52.91589
748.01        52.66188
748.42        52.38323
748.84        52.24975
749.26        52.30125
749.68        52.48087
750.09        52.70423
750.51        52.83233
750.93        52.82871
751.35        52.76281
751.76        52.65474
752.18        52.52907
752.60        52.40087
753.01        52.27531
753.43        52.17049
753.85        52.13687
754.27        52.19016
754.68        52.33747
755.10        52.52105
755.52        52.64077
755.93        52.65885
756.35        52.58147
756.77        52.52326
757.18         52.5495
757.60        52.66736
758.02        53.13057
758.43        53.74808
758.85        53.24707
759.26        52.84133
759.68        52.49511
760.10        52.58645
760.51        52.86255
760.93        53.18954
761.34        52.84486
761.76        53.24464
762.18         53.1661
762.59        53.12899
763.01        53.26841
763.42        53.59263
763.84         53.7238
764.26          53.624
764.67        53.50171
765.09        53.42302
765.50        53.24847
765.92        53.07013
766.33        53.08467
766.75        53.18167
767.16        53.15179
767.58         52.9603
768.00        52.65719
768.41        52.43189
768.83        52.78588
769.24        53.53543
769.66        53.88639
770.07        53.75684
770.49        53.44926
770.90        53.14427
771.32        53.27947
771.73        53.76954
772.15        53.86724
772.56        53.55323
772.97        53.29617
773.39        53.20007
773.80        53.21229
774.22        53.32843
774.63        53.57115
775.05        53.82814
775.46        53.99966
775.88        54.02365
776.29        53.93376
776.70        53.78873
777.12        53.71952
777.53        53.76529
777.95        53.85246
778.36        53.95736
778.77        54.00382
779.19        53.98076
779.60        53.96011
780.02        53.91641
780.43        53.79035
780.84        53.63152
781.26        53.41265
781.67        53.24945
782.09        53.53669
782.50        54.12686
782.91        54.27073
783.33        53.95705
783.74        53.84626
784.15        53.94783
784.57        53.86552
784.98        53.67258
785.39        53.62799
785.81         53.7859
786.22        54.19014
786.63        54.69876
787.04        54.95041
787.46        54.91372
787.87        54.71349
788.28        54.47322
788.70        54.31785
789.11        54.28003
789.52        54.34935
789.93        54.46979
790.35        54.54242
790.76        54.54084
791.17        54.48131
791.58        54.43496
792.00        54.42698
792.41        54.46996
792.82        54.75272
793.23         55.1292
793.65         54.8384
794.06         54.1031
794.47        54.17313
794.88        54.91314
795.29        55.11469
795.71        54.70522
796.12        54.47247
796.53        54.49892
796.94        54.36538
797.35        54.19045
797.76        54.56504
798.18        55.30152
798.59        55.62741
799.00        55.43264
799.41        55.08944
799.82        54.76001
800.23        54.56992
800.64        54.58471
801.06         54.7416
801.47        54.95911
801.88        55.02575
802.29        54.88602
802.70        54.60587
803.11        54.29404
803.52        54.12599
803.93        54.16642
804.34        54.36243
804.75        54.63574
805.17         54.9253
805.58        55.22947
805.99         55.3181
806.40        55.25431
806.81        55.70858
807.22        56.42887
807.63        56.09991
808.04        54.93438
808.45         54.4169
808.86        54.67615
809.27        54.94137
809.68        55.04909
810.09         55.0789
810.50        54.97932
810.91         54.7351
811.32        54.50421
811.73        54.53834
812.14        54.88408
812.55         55.4629
812.96        56.08385
813.37        56.38484
813.78        56.25591
814.19        55.82931
814.60        55.27893
815.01        54.83616
815.42        54.56927
815.83        54.41587
816.24        54.36349
816.65        54.39061
817.05          54.485
817.46        54.64277
817.87        54.84522
818.28        55.01593
818.69        55.13132
819.10        55.17926
819.51        55.19384
819.92        55.25214
820.33         55.3663
820.74        55.51304
821.14        55.61942
821.55         55.5665
821.96         55.3393
822.37        54.98364
822.78        54.61316
823.19        54.41541
823.60        54.44427
824.00        54.66941
824.41        54.95089
824.82        55.12358
825.23        55.12445
825.64        55.00208
826.04        54.83816
826.45        54.73705
826.86        54.74641
827.27        54.83776
827.68        54.95901
828.08        55.04795
828.49        55.04141
828.90        54.97563
829.31        54.92806
829.72        55.02229
830.12        55.29824
830.53         55.6688
830.94        56.00698
831.35         56.0627
831.75        55.79549
832.16        55.27412
832.57        54.69903
832.97        54.36731
833.38         54.3598
833.79        54.57536
834.20        54.90918
834.60        55.19069
835.01        55.36198
835.42        55.50649
835.82        55.62159
836.23        55.63768
836.64        55.57902
837.04        55.42523
837.45        55.31194
837.86        55.52114
838.26        56.10838
838.67        56.95662
839.08        57.77463
839.48        58.00576
839.89        57.51153
840.29        56.49314
840.70        55.40189
841.11        54.73756
841.51        54.63633
841.92        54.94344
842.33        55.47892
842.73         55.9229
843.14        56.07035
843.54        56.05257
843.95        55.98026
844.35        56.07071
844.76        56.35197
845.17        56.73693
845.57        57.06961
845.98        57.08787
846.38        56.76076
846.79        56.17857
847.19        55.54925
847.60        55.18388
848.00        55.17186
848.41        55.40125
848.81        55.73694
849.22        55.88205
849.62        55.78175
850.03        55.51456
850.43        55.18597
850.84        54.90874
851.24        54.76371
851.65        54.66212
852.05        54.66433
852.46        54.79618
852.86        55.04217
853.27        55.38908
853.67        55.68698
854.07        55.80957
854.48        55.71791
854.88        55.46216
855.29        55.10496
855.69        54.86978
856.10        54.77977
856.50        54.84708
856.90          54.977
857.31        55.02057
857.71        54.98184
858.12        54.85208
858.52         54.7491
858.92        54.77474
859.33        54.93692
859.73        55.22768
860.13        55.50688
860.54         55.5666
860.94        55.39484
861.34        55.04429
861.75        54.65842
862.15        54.50676
862.55        54.63947
862.96        54.94939
863.36        55.34196
863.76        55.58923
864.17        55.60237
864.57        55.47766
864.97        55.22757
865.38        54.87804
865.78        54.48782
866.18        54.04541
866.58        53.64818
866.99         53.4743
867.39         53.5797
867.79        53.91243
868.19         54.3584
868.60        54.71168
869.00        54.93863
869.40        55.07083
869.80        55.13471
870.21        55.18787
870.61        55.29498
871.01        55.37465
871.41        55.40131
871.81        55.35349
872.22        55.22137
872.62        55.01611
873.02        54.77005
873.42         54.5229
873.82        54.30229
874.22        54.12185
874.63        53.95498
875.03        53.77433
875.43        53.57023
875.83        53.35482
876.23        53.20795
876.63        53.25685
877.03        53.51052
877.44        53.88272
877.84         54.2481
878.24        54.44007
878.64        54.35738
879.04        53.89458
879.44        53.26511
879.84        52.94119
880.24        52.98796
880.64        53.22036
881.04        53.45548
881.44        53.43378
881.84         53.0929
882.24        52.54117
882.65        51.96835
883.05        51.65481
883.45        51.67812
883.85        51.95475
884.25        52.36309
884.65        52.69464
885.05        52.87501
885.45        52.96257
885.85        53.01925
886.25        53.14316
886.65        53.35726
887.05        53.60821
887.45          53.848
887.85        54.00985
888.25        54.06429
888.65         54.0323
889.04        53.92655
889.44        53.78999
889.84        53.62895
890.24        53.43948
890.64         53.2304
891.04        53.01828
891.44         52.8223
891.84        52.66555
892.24        52.55402
892.64        52.48119
893.04          52.455
893.44        52.48661
893.83        52.61224
894.23        52.84301
894.63        53.18259
895.03        53.58602
895.43        54.00967
895.83        54.39466
896.23        54.69448
896.63        54.89454
897.02        54.93797
897.42        54.77325
897.82        54.41149
898.22        53.91474
898.62        53.36898
899.01        52.88931
899.41        52.53387
899.81        52.27705
900.21        52.14837
900.61        52.18336
901.00        52.36498
901.40         52.6706
901.80        52.98789
902.20        53.13297
902.59         53.0729
902.99        52.84953
903.39         52.5645
903.79        52.39423
904.18        52.37973
904.58        52.46052
904.98         52.6118
905.38        52.80173
905.77        53.00908
906.17        53.27323
906.57        53.49208
906.96        53.49157
907.36        53.24642
907.76         52.8198
908.15        52.45108
908.55        52.50744
908.95        53.05626
909.34        53.97107
909.74        54.93695
910.14        55.50549
910.53        55.51462
910.93        55.12167
911.33        54.46113
911.72        53.73954
912.12        53.11943
912.52        52.56635
912.91        52.14196
913.31        51.94479
913.70        51.98687
914.10        52.22855
914.49        52.65805
914.89        53.16246
915.29        53.68893
915.68        54.24112
916.08        54.65277
916.47        54.72445
916.87         54.4413
917.26        53.83466
917.66        53.19318
918.05        52.85003
918.45        52.87921
918.84        53.24247
919.24        53.67593
919.64        53.81943
920.03         53.5951
920.42        53.10207
920.82        52.63377
921.21        52.58942
921.61        53.03947
922.00        53.86668
922.40        54.77444
922.79        55.35463
923.19        55.43202
923.58        55.15134
923.98        54.69084
924.37         54.2692
924.77        53.97794
925.16        53.72065
925.55        53.50532
925.95        53.33834
926.34        53.23133
926.74        53.20095
927.13        53.18005
927.52          52.979
927.92        52.61456
928.31        52.12766
928.70        51.69316
929.10        51.55848
929.49        51.75746
929.89        52.17527
930.28        52.73663
930.67         53.2163
931.07        53.50187
931.46        53.70505
931.85        53.75761
932.24        53.60192
932.64        53.29094
933.03        52.80836
933.42        52.39091
933.82        52.37161
934.21        52.80416
934.60        53.64918
934.99         54.5933
935.39        55.06336
935.78        54.93975
936.17        54.29475
936.56        53.51806
936.96        53.22755
937.35        53.54666
937.74        54.28261
938.13        54.98832
938.53        54.97438
938.92        54.12823
939.31        52.74562
939.70         51.2878
940.09        50.39755
940.49        50.20842
940.88        50.54444
941.27        51.19418
941.66        51.75909
942.05        52.07889
942.44        52.28988
942.84        52.42345
943.23        52.51536
943.62        52.58913
944.01        52.54378
944.40        52.47687
944.79        52.59217
945.18        52.90051
945.57         53.3639
945.97        53.66619
946.36        53.35524
946.75        52.34557
947.14        50.86719
947.53        49.37687
947.92        48.50908
948.31        48.40256
948.70          48.888
949.09        49.67464
949.48        50.24652
949.87        50.42688
950.26        50.34691
950.65        50.19301
951.04        50.28952
951.43        50.70513
951.82        51.27589
952.21        51.82051
952.60        52.07544
952.99        51.99198
953.38        51.72241
953.77        51.36539
954.16        51.05899
954.55        50.86113
954.94        50.68746
955.33        50.66615
955.72        51.01849
956.11        51.74112
956.50        52.78171
956.89        53.70175
957.28        53.75839
957.66        52.82206
958.05        51.18948
958.44        49.46825
958.83        48.53492
959.22        48.56924
959.61        49.32292
960.00        50.39368
960.39        51.02024
960.78        50.93296
961.16        50.36756
961.55        49.63158
961.94        49.11121
962.33        48.92442
962.72        48.95352
963.11        49.08421
963.49        49.15444
963.88        49.06544
964.27        48.90741
964.66        48.84834
965.04        49.14321
965.43        49.78485
965.82        50.71489
966.21        51.63961
966.60         51.9968
966.98        51.60226
967.37        50.68909
967.76        49.65804
968.15        49.01495
968.53        48.88242
968.92        49.15266
969.31        49.61408
969.69         49.8537
970.08        49.68884
970.47        49.26748
970.86        48.92866
971.24        49.15574
971.63        50.03046
972.02        51.41354
972.40        52.87861
972.79        53.38982
973.17        52.72164
973.56        51.24411
973.95        49.61615
974.33        48.68311
974.72        48.61956
975.11        49.14768
975.49        49.99764
975.88        50.60969
976.26        50.78046
976.65         50.6604
977.04        50.31187
977.42        49.78887
977.81        49.13136
978.19        48.30201
978.58        47.58592
978.96        47.41109
979.35        47.84013
979.74        48.77669
980.12        49.93847
980.51        50.58125
980.89        50.60305
981.28        50.19751
981.66         49.6615
982.05        49.39313
982.43        49.52389
982.82        49.88191
983.20        50.55733
983.59        51.64837
983.97        53.13813
984.35        54.98306
984.74        56.61098
985.12        57.28461
985.51        56.78648
985.89        55.35507
986.28        53.70745
986.66        52.87524
987.04        53.15765
987.43        54.25851
987.81        55.68648
988.20        56.38839
988.58        56.02584
988.96        54.90738
989.35        53.46666
989.73        52.30938
990.12        51.58863
990.50        51.14215
990.88         50.7958
991.27        50.30993
991.65         49.6516
992.03        48.98652
992.42        48.53225
992.80        48.53633
993.18        49.05225
993.56        49.99361
993.95        51.08472
994.33         51.9583
994.71        52.35136
995.10        52.39551
995.48        52.27767
995.86        52.40545
996.24        52.88022
996.63        53.45975
997.01        54.10312
997.39        54.45954
997.77        54.37157
998.15         54.0356
998.54        53.43242
998.92        52.40094
999.30        51.08261
999.68        49.59795
1000.06        48.41742
1000.45         48.1553
1000.83        48.99995
1001.21        50.85054
1001.59        53.28419
1001.97        55.14322
1002.35         55.9137
1002.73        55.88771
1003.12        55.59507
1003.50        55.68864
1003.88        56.43322
1004.26        57.44101
1004.64        58.68024
1005.02        60.03142
1005.40        61.26364
1005.78        62.55798
1006.16        63.13166
1006.54        61.73842
1006.92        58.48035
1007.30        53.94348
1007.69        49.81015
1008.07        48.30993
1008.45        50.03712
1008.83        54.49268
1009.21        60.37814
1009.59        64.31725
1009.97        64.61826
1010.35        62.23777
1010.73        58.31611
1011.11        54.59125
1011.49        51.79729
1011.86        49.48482
1012.24        47.98563
1012.62        47.80688
1013.00        48.93295
1013.38        51.45812
1013.76        54.72389
1014.14        56.81356
1014.52        56.81458
1014.90        55.06223
1015.28        52.62035
1015.66        51.14518
1016.04         50.9981
1016.41         51.6872
1016.79         52.6565
1017.17        52.94965
1017.55         52.2959
1017.93        51.17178
1018.31        49.96252
1018.69        49.08928
1019.06        48.68625
1019.44        48.61467
1019.82         48.8933
1020.20        49.57064
1020.58        50.46922
1020.95        51.35144
1021.33         52.1534
1021.71        52.79054
1022.09        53.31059
1022.46        53.90167
1022.84        54.15244
1023.22         53.2536
1023.60        51.17681
1023.97        48.19702
1024.35        45.90272
1024.73        45.93216
