SpectraSmart Spectrum 2.9.0.0
--------- Device Information -----------
Spectrum Name :  反射率_0
Saving Time :  2024/04/26 23:35:21
Spectro-Module Model Name : SE2030-DUVN
Spectro-Module Serial Number : OS361AC55029948
Wavelength Start : 200
Wavelength End : 1025
Wavelength Unit : Wavelength(nm)
Spectrum Unit : Reflectance(%)
-----------Spectrum Setting ------------
Integration Time : 20ms
Average : 10
Boxcar : 0
Background removal :  enabled
linearity correction :  enabled
SC :  disabled
Intensity correction :  disabled
DWT denoise :  enabled
savitzky-golay :  disabled
FFT :  disabled
Running average :  disabled
Kalman :  disabled
High pass :  disabled
---------------BEGIN--------------------
Wavelength(nm)             Reflectance(%)
200.29               0
200.75         25.5256
201.21        30.13198
201.67        34.51213
202.13        37.32751
202.58        38.59047
203.04        39.31583
203.50        39.84621
203.96        40.51749
204.42        41.57852
204.88        42.66069
205.34        43.72493
205.80        45.04837
206.26        46.34169
206.72        47.09715
207.18        47.43232
207.64        47.51696
208.10        47.39658
208.55        47.55896
209.01        46.46038
209.47        42.00344
209.93        35.99393
210.39        31.15356
210.85        28.70894
211.31        28.71306
211.77        31.24961
212.23        38.71702
212.69        59.29122
213.14        98.40286
213.60        103.6336
214.06        81.37674
214.52        65.11523
214.98        58.74155
215.44        57.52383
215.90        57.99857
216.36        59.54288
216.81        61.60132
217.27        64.40812
217.73        69.88188
218.19        77.51979
218.65        80.87144
219.11        77.66341
219.57        71.55776
220.02        68.05809
220.48        71.30674
220.94        81.44074
221.40        100.0769
221.86        126.6205
222.32        143.5257
222.77        135.9347
223.23         115.962
223.69        96.85203
224.15        85.96455
224.61         81.8724
225.06        80.84857
225.52        81.86892
225.98        83.67098
226.44        85.92168
226.90        89.14822
227.36        92.74519
227.81         95.2634
228.27        96.46558
228.73        96.38287
229.19         96.1601
229.65        97.37221
230.10        100.0413
230.56        103.7446
231.02        107.0112
231.48        107.5492
231.93        105.1019
232.39        101.2176
232.85        97.41207
233.31        95.69005
233.77         96.2177
234.22        98.16948
234.68        100.7097
235.14        102.6086
235.60          103.39
236.05        103.5713
236.51        102.7694
236.97        100.6011
237.43        97.16978
237.88        92.60233
238.34        88.00385
238.80        85.49441
239.26        85.73396
239.71         89.2677
240.17        94.81263
240.63        98.85771
241.08         99.1229
241.54        94.88863
242.00        88.82262
242.46        86.65748
242.91        91.83018
243.37        105.3196
243.83        126.6103
244.28         141.605
244.74        133.0719
245.20        104.7436
245.66        75.27377
246.11        58.78442
246.57        54.77003
247.03        58.25046
247.48        64.22161
247.94        64.53029
248.40        59.28715
248.85        52.99575
249.31        48.55601
249.77        47.36861
250.22        49.10396
250.68          53.056
251.14         59.0499
251.59        64.94646
252.05        68.51821
252.51        70.45633
252.96        69.95975
253.42        67.03899
253.88        62.75665
254.33        57.66949
254.79        54.77996
255.25         56.4598
255.70        62.18279
256.16        70.74034
256.62        78.80361
257.07        81.04679
257.53        78.43601
257.99         74.0552
258.44         70.1928
258.90        69.16452
259.35        70.05652
259.81        72.15684
260.27        74.37861
260.72        75.46214
261.18        75.52589
261.63        74.75797
262.09        74.03225
262.55        73.66451
263.00        73.54553
263.46        73.68332
263.91        73.53708
264.37        72.86326
264.83        71.65218
265.28        70.10661
265.74        68.80269
266.19        68.04571
266.65        67.96169
267.11        68.25947
267.56        68.72048
268.02        69.01186
268.47        68.98619
268.93         68.7859
269.38        68.31627
269.84        67.52879
270.30        66.44724
270.75        65.08047
271.21        63.75125
271.66        62.87164
272.12        62.51719
272.57        62.52169
273.03        62.56498
273.48        62.08657
273.94        61.04647
274.39        59.60518
274.85        58.11805
275.31        56.86972
275.76        55.90719
276.22        55.18378
276.67        54.56933
277.13        54.04657
277.58        53.49341
278.04        52.96053
278.49        52.34513
278.95        51.66149
279.40        50.83707
279.86        49.98535
280.31        49.02327
280.77        48.00619
281.22        46.91336
281.68        45.86228
282.13        44.91016
282.59        44.26925
283.04        43.89076
283.50        43.72519
283.95        43.62561
284.41        43.39886
284.86        42.97432
285.32        42.44051
285.77        41.82534
286.22        41.25607
286.68        40.76135
287.13        40.26357
287.59        39.76637
288.04        39.21555
288.50        38.64752
288.95        38.06219
289.41        37.50895
289.86        36.95996
290.32        36.46066
290.77        35.98462
291.22        35.57233
291.68        35.26455
292.13        35.04232
292.59        34.90469
293.04        34.80389
293.50        34.69615
293.95        34.55931
294.40        34.41491
294.86        34.29289
295.31        34.22708
295.77        34.24183
296.22        34.32324
296.68        34.46655
297.13        34.64227
297.58         34.8471
298.04        35.08146
298.49        35.35468
298.95         35.7029
299.40        36.10669
299.85        36.54096
300.31        36.94621
300.76        37.22193
301.21        37.35688
301.67        37.40202
302.12        37.39196
302.58          37.445
303.03        37.56269
303.48        37.73279
303.94         37.9465
304.39        38.14965
304.84        38.33789
305.30        38.53546
305.75         38.7042
306.20        38.84228
306.66        38.95881
307.11        39.03568
307.57        39.09888
308.02        39.14001
308.47        39.17109
308.93        39.19488
309.38        39.20301
309.83        39.23554
310.29        39.29222
310.74        39.35574
311.19        39.38046
311.65        39.28596
312.10        39.06023
312.55        38.73977
313.00        38.40152
313.46        38.15752
313.91        38.01954
314.36         37.9618
314.82        37.93513
315.27        37.86849
315.72         37.7359
316.18          37.574
316.63        37.38603
317.08        37.19469
317.53        37.00745
317.99        36.80138
318.44        36.60325
318.89        36.44947
319.35        36.34135
319.80        36.27075
320.25        36.18248
320.70        35.98574
321.16        35.66622
321.61        35.27036
322.06        34.86514
322.51        34.56577
322.97        34.40067
323.42        34.33538
323.87         34.3376
324.32        34.36065
324.78        34.36295
325.23         34.3733
325.68        34.32718
326.13        34.12992
326.59        33.77385
327.04        33.30081
327.49        32.81272
327.94        32.47794
328.39        32.33339
328.85        32.32389
329.30         32.4024
329.75        32.40867
330.20        32.29437
330.66        32.10386
331.11        31.89644
331.56        31.74138
332.01         31.6635
332.46        31.62533
332.92        31.60369
333.37        31.61875
333.82        31.64228
334.27        31.67728
334.72        31.69078
335.17         31.6239
335.63        31.46427
336.08        31.24718
336.53        31.01345
336.98        30.84432
337.43         30.7669
337.88        30.76017
338.34        30.80374
338.79        30.88982
339.24        30.98998
339.69        31.10767
340.14        31.20944
340.59        31.24259
341.05        31.20577
341.50        31.10509
341.95        30.98375
342.40        30.91457
342.85        30.91504
343.30        30.96026
343.75        31.02616
344.20        31.07199
344.66        31.08847
345.11        31.09503
345.56        31.08127
346.01        31.03072
346.46        30.95096
346.91        30.84487
347.36        30.76272
347.81        30.78694
348.26        30.92275
348.72        31.13876
349.17        31.35326
349.62        31.44953
350.07        31.40087
350.52         31.2504
350.97        31.04352
351.42        30.86005
351.87        30.72973
352.32        30.62207
352.77        30.55222
353.22         30.5396
353.67         30.5762
354.13        30.66736
354.58        30.73896
355.03        30.66378
355.48          30.427
355.93        30.07141
356.38        29.72194
356.83        29.57072
357.28        29.64578
357.73        29.87335
358.18        30.13118
358.63        30.21714
359.08        30.07498
359.53        29.77739
359.98        29.38982
360.43        29.00813
360.88         28.6702
361.33        28.34499
361.78        28.05862
362.23        27.85657
362.68        27.74402
363.13        27.72306
363.58        27.72716
364.03        27.64154
364.48        27.44238
364.93        27.15295
365.38        26.85699
365.83        26.69918
366.28        26.70653
366.73        26.82529
367.18        26.95254
367.63        26.92977
368.08         26.7199
368.53        26.37602
368.98        25.98088
369.43        25.66377
369.88        25.46487
370.33        25.34909
370.78        25.26987
371.23        25.15126
371.68        24.97162
372.13        24.75951
372.58        24.55496
373.03        24.41445
373.48        24.34892
373.93        24.33445
374.38        24.32476
374.83        24.25208
375.28        24.10072
375.72        23.88557
376.17        23.66831
376.62        23.51175
377.07        23.43114
377.52        23.40769
377.97        23.39755
378.42        23.33296
378.87        23.19896
379.32        23.01503
379.77        22.83192
380.22         22.7219
380.67        22.69344
381.11        22.72808
381.56         22.7496
382.01        22.65581
382.46        22.43426
382.91        22.13814
383.36        21.84519
383.81        21.65838
384.26        21.59406
384.71        21.61097
385.15        21.67359
385.60        21.72466
386.05        21.73705
386.50        21.72893
386.95        21.68147
387.40         21.5682
387.85        21.39705
388.29        21.16628
388.74         20.9557
389.19        20.82618
389.64        20.78599
390.09        20.81496
390.54        20.86088
390.98        20.83109
391.43        20.71928
391.88        20.55333
392.33        20.38688
392.78        20.29546
393.23         20.2897
393.67        20.32993
394.12        20.38995
394.57        20.39391
395.02         20.3245
395.47        20.19594
395.91        20.05071
396.36        19.94881
396.81         19.9212
397.26        19.95503
397.71        19.99866
398.15        19.98875
398.60        19.94013
399.05         19.7925
399.50        19.62857
399.95        19.71123
400.39        19.99133
400.84        20.08356
401.29        19.95422
401.74        19.86778
402.18        19.82585
402.63        19.64473
403.08        19.39441
403.53        19.27207
403.97        19.30267
404.42        19.43312
404.87        19.57865
405.32        19.60105
405.76        19.46771
406.21        19.23514
406.66        18.99064
407.11         18.8689
407.55        18.90658
408.00        19.05414
408.45        19.23597
408.90        19.30899
409.34        19.23086
409.79        19.05372
410.24        18.85684
410.68        18.74498
411.13        18.74746
411.58        18.82865
412.03         18.9338
412.47        18.97203
412.92        18.91053
413.37        18.78754
413.81        18.65298
414.26        18.59235
414.71          18.614
415.15         18.6948
415.60        18.78196
416.05        18.80272
416.49        18.73903
416.94        18.61944
417.39        18.48659
417.83        18.40064
418.28        18.38001
418.73        18.40389
419.17        18.46247
419.62        18.54072
420.07        18.62516
420.51        18.71048
420.96        18.78285
421.41         18.8161
421.85        18.79917
422.30        18.73364
422.74        18.62648
423.19        18.57415
423.64        18.55561
424.08        18.45236
424.53         18.2856
424.98        18.23133
425.42        18.31378
425.87        18.40658
426.31        18.47355
426.76        18.57874
427.21        18.65699
427.65        18.49035
428.10        18.18031
428.54        18.05191
428.99        18.14362
429.44         18.3613
429.88        18.59355
430.33        18.58916
430.77        18.38371
431.22        18.35426
431.66        18.51419
432.11        18.56608
432.56        18.51736
433.00        18.60944
433.45        18.73989
433.89        18.59842
434.34        18.30996
434.78        17.80937
435.23        18.13324
435.67        18.14791
436.12        18.11531
436.57        18.07353
437.01        18.03679
437.46        18.03653
437.90        18.06308
438.35        18.05745
438.79        18.02244
439.24          18.025
439.68        18.06718
440.13        18.12498
440.57         18.1831
441.02        18.22668
441.46        18.24446
441.91        18.22434
442.35        18.17148
442.80        18.20708
443.24        18.28904
443.69        18.25694
444.13        18.12817
444.58        18.08567
445.02        18.13377
445.47        18.17585
445.91        18.19857
446.36        18.22962
446.80        18.25915
447.24        18.28092
447.69        18.28786
448.13        18.26141
448.58        18.20652
449.02        18.12851
449.47        18.05111
449.91        18.00223
450.36        17.99442
450.80        18.01544
451.25        18.05571
451.69         18.0878
452.13        18.10461
452.58        18.10736
453.02        18.09989
453.47        18.09168
453.91        18.08504
454.36        18.08142
454.80        18.06467
455.24        18.00928
455.69        17.92206
456.13        17.80401
456.58        17.70946
457.02        17.68959
457.46        17.75861
457.91        17.89517
458.35        18.03426
458.79        18.07802
459.24         18.0212
459.68        17.88415
460.13        17.74475
460.57         17.6749
461.01         17.7055
461.46        17.79626
461.90        17.91736
462.34        18.00392
462.79        18.02906
463.23        18.02143
463.68        17.98138
464.12        17.92093
464.56        17.84656
465.01        17.77351
465.45        17.69756
465.89        17.66419
466.34        17.67592
466.78        17.71964
467.22        17.77556
467.67        17.78997
468.11        17.76003
468.55        17.69315
468.99        17.61728
469.44        17.57531
469.88        17.58047
470.32        17.61949
470.77        17.67317
471.21        17.71362
471.65        17.72937
472.10        17.73034
472.54        17.72465
472.98        17.73132
473.42        17.75417
473.87         17.7917
474.31        17.82014
474.75        17.82159
475.20        17.79908
475.64        17.75502
476.08        17.71649
476.52         17.7147
476.97        17.75533
477.41        17.83513
477.85        17.93656
478.29        18.00323
478.74        18.03894
479.18        18.10212
479.62        18.18187
480.06        18.23144
480.50        18.25263
480.95         18.2438
481.39        18.21058
481.83        18.33768
482.27        18.35944
482.72        18.49216
483.16        18.62697
483.60        18.67643
484.04        18.62154
484.48        18.58143
484.93        18.64449
485.37        18.47269
485.81        18.69778
486.25        18.89833
486.69        19.01276
487.14        19.01802
487.58        19.50626
488.02        19.54371
488.46        19.05092
488.90        19.34401
489.34        19.19769
489.79        19.41615
490.23        19.55788
490.67        19.72573
491.11         19.8668
491.55        19.84645
491.99        19.72753
492.43        19.71226
492.88        19.82895
493.32        19.96271
493.76        20.08491
494.20        20.21595
494.64        20.35294
495.08        20.45086
495.52         20.5199
495.96        20.71013
496.41        20.97923
496.85        21.00254
497.29        20.82519
497.73        21.00765
498.17        21.24238
498.61        21.39018
499.05        21.34728
499.49        21.34808
499.93        21.36177
500.37        21.49691
500.82        21.70212
501.26        21.83444
501.70        21.87739
502.14        21.91878
502.58         21.9979
503.02        22.13241
503.46        22.32622
503.90        22.56725
504.34        22.79712
504.78        22.91964
505.22        22.91492
505.66        22.81717
506.10        22.68494
506.54        22.61238
506.98        22.62841
507.42         22.7051
507.86        22.82303
508.30        22.94836
508.74        23.06264
509.18         23.1758
509.62        23.27156
510.06        23.32222
510.50        23.32537
510.94        23.28665
511.38        23.23261
511.82        23.20979
512.26        23.23222
512.70        23.29059
513.14         23.3696
513.58        23.44149
514.02         23.4961
514.46        23.53947
514.90        23.57775
515.34        23.62091
515.78        23.66926
516.22        23.71521
516.66        23.74742
517.10        23.75041
517.54        23.72297
517.98        23.67411
518.42        23.61782
518.86        23.57516
519.30        23.55357
519.74         23.5481
520.18        23.55566
520.62         23.5696
521.06        23.58673
521.50        23.61006
521.93        23.63526
522.37        23.64631
522.81        23.64337
523.25        23.62614
523.69        23.60472
524.13        23.59744
524.57        23.60468
525.01        23.61653
525.45        23.61789
525.89        23.58452
526.32        23.51002
526.76        23.41323
527.20        23.30091
527.64        23.18524
528.08        23.07461
528.52        22.96624
528.96        22.87806
529.40        22.83667
529.83        22.84238
530.27        22.88921
530.71        22.93928
531.15         22.9334
531.59        22.85984
532.03        22.73438
532.46        22.59525
532.90        22.52047
533.34        22.52175
533.78        22.56261
534.22        22.60601
534.66        22.62287
535.09        22.58478
535.53        22.46097
535.97         22.2917
536.41        22.19685
536.85        22.19499
537.28        22.23025
537.72        22.28933
538.16         22.3673
538.60        22.45228
539.04        22.54703
539.47        22.63251
539.91        22.69325
540.35        22.72401
540.79        22.73017
541.22        22.73456
541.66        22.78446
542.10        22.88443
542.54        23.01823
542.97        23.15938
543.41        23.27454
543.85        23.35311
544.29        23.41532
544.72        23.46428
545.16        23.52026
545.60        23.58784
546.04        23.66208
546.47         23.7693
546.91        23.94745
547.35        24.19221
547.79        24.48809
548.22        24.77551
548.66        24.95893
549.10         25.0513
549.53        25.06799
549.97        25.06535
550.41        25.08047
550.84        25.16395
551.28         25.3594
551.72        25.60511
552.15        25.82154
552.59        26.01974
553.03        25.84715
553.46         26.1116
553.90        26.18039
554.34        26.29197
554.77        26.42761
555.21        26.58897
555.65        26.75846
556.08        26.91623
556.52        27.05328
556.96        27.15431
557.39        27.26932
557.83        27.37739
558.27         27.3259
558.70        27.16619
559.14        27.14542
559.57        27.26383
560.01        27.37367
560.45        27.45182
560.88        27.54693
561.32        27.66441
561.75        27.76288
562.19        27.84859
562.63        27.92572
563.06        27.99103
563.50        28.04592
563.93        28.07911
564.37        28.14692
564.80        28.26374
565.24        28.34897
565.68         28.3348
566.11        28.73125
566.55        28.50491
566.98        28.52316
567.42        28.54857
567.85        28.65611
568.29        28.86141
568.72        29.16034
569.16        29.54276
569.60        29.77131
570.03        29.92699
570.47        30.10942
570.90        30.39203
571.34        30.12846
571.77        30.53123
572.21        30.65279
572.64        30.80699
573.08        30.90768
573.51        30.99985
573.95        31.10406
574.38        31.26256
574.82        31.45287
575.25         31.3403
575.69        31.30443
576.12        31.26233
576.56        31.14793
576.99          31.337
577.42        31.21792
577.86        31.38573
578.29        31.94816
578.73        31.69761
579.16         31.6092
579.60        31.30149
580.03        31.29516
580.47        31.17558
580.90        31.40334
581.33        31.45074
581.77        31.37103
582.20        31.23824
582.64        31.28789
583.07        31.05475
583.51        30.82548
583.94        30.58452
584.37        30.50796
584.81        30.59456
585.24        30.61208
585.68         30.5582
586.11        30.24709
586.54        30.09328
586.98        29.85884
587.41        29.91673
587.85         29.7985
588.28        29.55236
588.71        29.79902
589.15        29.53245
589.58         29.5648
590.01        29.49339
590.45        29.60183
590.88        29.78642
591.31        29.78224
591.75        29.65293
592.18        29.47508
592.61        29.32683
593.05         29.8415
593.48        30.32322
593.91        30.15186
594.35        30.07184
594.78         29.8318
595.21        29.77484
595.65        30.01898
596.08        30.56687
596.51        30.59956
596.94        30.52864
597.38        30.54517
597.81        30.75126
598.24        31.37733
598.68        31.38156
599.11        31.59287
599.54        32.23844
599.97        32.26188
600.41        32.73068
600.84        32.78535
601.27        33.19074
601.70        33.50945
602.14        33.81994
602.57        34.06329
603.00        34.34346
603.43        34.28346
603.87        35.19405
604.30        35.63798
604.73        35.96742
605.16        36.11423
605.60        36.55784
606.03        36.78638
606.46        36.95623
606.89        37.27716
607.32        38.00679
607.76        38.34007
608.19        38.71299
608.62        39.01099
609.05        39.43432
609.48        39.72827
609.92        40.37441
610.35        40.64322
610.78        40.60343
611.21         40.5632
611.64        41.13615
612.07        41.54377
612.50        41.71559
612.94        42.00508
613.37        42.34099
613.80        42.45876
614.23        42.42078
614.66         42.6338
615.09        43.09618
615.52         43.3776
615.96        43.44004
616.39        43.74733
616.82        44.19693
617.25        44.10242
617.68        44.46785
618.11        44.76703
618.54        45.24295
618.97        45.49915
619.40        45.51909
619.84         45.6772
620.27        45.58314
620.70        45.69705
621.13        45.90256
621.56        45.73663
621.99        45.75724
622.42        45.77555
622.85        45.96856
623.28        45.87127
623.71        46.13878
624.14        46.04161
624.57         46.3496
625.00        46.34214
625.43        46.36325
625.86        46.39856
626.29        46.52897
626.72        46.05539
627.15        46.33266
627.58        45.91158
628.01        45.81929
628.44         45.5917
628.87         45.3505
629.30        45.08319
629.73        44.75955
630.16        44.71454
630.59        44.43184
631.02        44.31016
631.45        44.16407
631.88        43.94919
632.31        43.64555
632.74         43.2701
633.17        42.84911
633.60        42.41537
634.03        41.98728
634.46        41.55732
634.89        41.12429
635.32        40.69414
635.75        40.27174
636.18        39.82034
636.61        39.36687
637.04        38.97191
637.47          38.639
637.89        38.34477
638.32        38.04902
638.75        37.72703
639.18         37.3748
639.61        37.00664
640.04        36.65403
640.47        36.36201
640.90        36.14024
641.33         35.9768
641.76        35.84784
642.18        35.71931
642.61        35.57119
643.04        35.41846
643.47        35.28419
643.90        35.20454
644.33        35.18635
644.76        35.21838
645.18        35.27311
645.61        35.29737
646.04        35.28661
646.47        35.26352
646.90         35.2687
647.33        35.35562
647.75        35.52701
648.18        35.80791
648.61        36.18154
649.04        36.47626
649.47        36.64048
649.89        37.27642
650.32         37.4114
650.75        37.76761
651.18        38.07925
651.61         38.5632
652.03        39.17321
652.46        39.57041
652.89        39.81536
653.32        40.21508
653.74        40.84008
654.17        41.30534
654.60        42.02339
655.03        42.23949
655.46        42.07992
655.88        42.60712
656.31        44.99394
656.74        47.09198
657.16        47.07737
657.59         47.1719
658.02        45.55445
658.45        45.99389
658.87        46.24799
659.30        46.67412
659.73        46.68106
660.15        47.16024
660.58         46.9419
661.01        47.20721
661.44        47.60532
661.86        47.73997
662.29        47.61027
662.72        48.07282
663.14        48.23021
663.57        48.54371
664.00        48.76519
664.42        49.07314
664.85        49.46703
665.27        49.93393
665.70        50.40892
666.13        50.49522
666.55        50.75809
666.98        50.70168
667.41        50.55296
667.83        50.71601
668.26        50.69979
668.69        50.90045
669.11        51.13661
669.54        51.38069
669.96         51.6161
670.39        51.85534
670.82        52.09115
671.24        52.27838
671.67        52.41504
672.09        52.50443
672.52        52.57892
672.94        52.67976
673.37        52.80264
673.80        52.85821
674.22        52.87571
674.65        52.95031
675.07        53.10335
675.50        53.26946
675.92        53.43014
676.35        53.56992
676.77        53.68395
677.20        53.77451
677.62         53.8666
678.05        54.00175
678.47         54.1829
678.90        54.39463
679.32        54.61051
679.75        54.79459
680.17         54.9325
680.60        55.05709
681.02        55.17024
681.45        55.23941
681.87        55.30182
682.30        55.40974
682.72        55.57756
683.15        55.77778
683.57         55.9853
684.00        56.09192
684.42        56.12829
684.85        56.25678
685.27        56.47645
685.70         56.6973
686.12        56.87347
686.54        56.99173
686.97        57.04056
687.39        57.03355
687.82         56.9961
688.24        56.99043
688.66        57.03611
689.09        57.10336
689.51        57.23242
689.94        57.37704
690.36        57.54356
690.78        57.71584
691.21        57.90208
691.63        58.10561
692.06        58.32441
692.48        58.56746
692.90        58.77127
693.33        58.84233
693.75        58.76958
694.17        58.55367
694.60        58.34448
695.02        58.38774
695.44        58.70095
695.87          59.234
696.29        59.78559
696.71         59.8357
697.14        59.45774
697.56        59.22541
697.98        59.22057
698.41        59.45683
698.83        59.33924
699.25        59.64626
699.68        60.07351
700.10        60.32678
700.52        60.32938
700.94        60.19353
701.37         60.0449
701.79        60.07278
702.21        60.31649
702.64        60.68903
703.06        61.09419
703.48        61.36352
703.90        61.44875
704.33        61.41639
704.75        61.32268
705.17        61.21719
705.59        61.13041
706.01        61.09394
706.44        61.16433
706.86        61.13793
707.28        61.46783
707.70          61.813
708.12        62.21197
708.55        62.35495
708.97         62.2731
709.39        62.28944
709.81        62.42271
710.23        62.47042
710.66        62.43832
711.08        62.48107
711.50        62.57891
711.92         62.6421
712.34        62.66717
712.76        62.69449
713.19        62.71339
713.61        62.73746
714.03        62.76129
714.45        62.78653
714.87        62.84996
715.29        63.01386
715.71        63.27915
716.13         63.6127
716.56        63.94594
716.98         64.2207
717.40        64.36472
717.82        64.44189
718.24        64.46847
718.66        64.18916
719.08         64.1154
719.50        63.82093
719.92        63.53988
720.34        63.39645
720.76        63.45462
721.19        63.75214
721.61        64.23335
722.03          64.659
722.45        64.95104
722.87        65.18078
723.29        65.31586
723.71        65.29299
724.13        65.12342
724.55        64.83392
724.97        64.51686
725.39        64.32768
725.81        64.31281
726.23        64.47297
726.65        64.65791
727.07        65.02153
727.49          65.263
727.91        65.58314
728.33        65.87499
728.75        66.10967
729.17        66.27316
729.59        66.31399
730.01         66.2523
730.43        66.36378
730.85        66.29684
731.27        66.33891
731.69        66.34727
732.10        66.32101
732.52        66.27472
732.94         66.1031
733.36         65.8407
733.78        65.91811
734.20        65.95478
734.62        65.58025
735.04        66.52502
735.46        65.82595
735.88        66.08488
736.30        66.14751
736.72        66.63145
737.13          67.176
737.55         67.5527
737.97        67.79258
738.39        67.80466
738.81        67.27065
739.23        66.48104
739.65         66.5643
740.06        67.36883
740.48        67.71794
740.90         67.5337
741.32        67.53346
741.74        67.77777
742.16        67.95451
742.57        68.05293
742.99        68.20988
743.41         68.3598
743.83        68.22513
744.25        67.87668
744.67        67.68997
745.08        67.73889
745.50         67.8029
745.92        67.89462
746.34        68.17234
746.75        68.52589
747.17        68.66324
747.59        68.55141
748.01        68.28861
748.42        67.99294
748.84        67.85521
749.26        67.92645
749.68        68.08719
750.09        68.32096
750.51         68.5057
750.93        69.06541
751.35         68.9538
751.76        68.42901
752.18        68.13651
752.60        68.12798
753.01        68.04928
753.43        67.89255
753.85        67.85333
754.27        67.94545
754.68        68.15728
755.10        68.43489
755.52        68.63207
755.93        68.72855
756.35        68.84393
756.77        69.05885
757.18        69.21622
757.60        69.29532
758.02        69.73486
758.43        70.40774
758.85        69.55724
759.26        69.66776
759.68         69.1666
760.10        68.78332
760.51        69.65179
760.93        69.53792
761.34        69.60068
761.76        69.71106
762.18         69.7929
762.59        70.06167
763.01         70.2757
763.42        70.61739
763.84        70.71871
764.26        70.63801
764.67        70.30137
765.09        69.90232
765.50        69.88585
765.92        70.19231
766.33        70.10638
766.75        69.58672
767.16        69.45019
767.58        69.70667
768.00        69.65175
768.41        69.42522
768.83        69.98203
769.24        71.00107
769.66        71.19188
770.07        70.58982
770.49        69.87094
770.90        69.40939
771.32        69.98669
771.73        71.30184
772.15        71.78024
772.56        71.30311
772.97        70.73229
773.39        70.33116
773.80         70.2997
774.22        70.45882
774.63        70.87637
775.05        71.27258
775.46        71.50224
775.88        71.45897
776.29        71.17412
776.70        70.80018
777.12        70.64706
777.53        70.79411
777.95        71.09393
778.36         71.4473
778.77        71.64648
779.19        71.65704
779.60         71.6004
780.02        71.49153
780.43        71.41029
780.84        71.44173
781.26        71.26669
781.67        71.05106
782.09         71.8148
782.50        73.14947
782.91        73.09142
783.33        71.79468
783.74        71.24096
784.15        71.53619
784.57        71.62469
784.98        71.50134
785.39        71.30383
785.81        71.45476
786.22        71.90982
786.63        72.61897
787.04        72.92298
787.46        72.81167
787.87        72.74091
788.28        72.79577
788.70        72.76199
789.11        72.63944
789.52        72.73932
789.93        72.96471
790.35        72.73138
790.76        72.18051
791.17        72.15608
791.58        72.65247
792.00        72.82575
792.41        72.63562
792.82        72.84367
793.23         73.3139
793.65        72.87479
794.06        71.85044
794.47        71.97932
794.88        73.06744
795.29        73.43784
795.71        72.98203
796.12        72.80897
796.53        72.98166
796.94        72.77338
797.35        72.35424
797.76        72.69701
798.18        73.61192
798.59        74.01981
799.00         73.7963
799.41        73.51064
799.82        73.31347
800.23        73.21505
800.64        73.26881
801.06          73.425
801.47        73.64348
801.88        73.76598
802.29        73.73846
802.70          73.596
803.11        73.38595
803.52        73.18169
803.93        73.04452
804.34        72.99657
804.75        73.01968
805.17        73.15351
805.58        73.47702
805.99        73.64426
806.40        73.73135
806.81        74.75607
807.22         76.2267
807.63        75.89947
808.04        74.08913
808.45         73.2981
808.86        73.73233
809.27        74.02811
809.68        74.00074
810.09        73.99426
810.50        73.96354
810.91        73.82862
811.32        73.71145
811.73        73.79848
812.14        74.11658
812.55        74.60838
812.96        75.11514
813.37        75.33147
813.78        75.17336
814.19        74.76359
814.60        74.24699
815.01         73.8115
815.42        73.51388
815.83        73.29805
816.24        73.18462
816.65        73.21194
817.05        73.38136
817.46        73.66199
817.87        73.97344
818.28        74.13124
818.69         74.0976
819.10        73.89771
819.51        73.66129
819.92        73.63705
820.33        73.88157
820.74        74.30647
821.14        74.75425
821.55         74.9664
821.96        74.88222
822.37        74.59224
822.78        74.20792
823.19        73.91599
823.60         73.7891
824.00         73.7973
824.41        73.86854
824.82        73.99728
825.23        74.14847
825.64        74.33001
826.04        74.50426
826.45         74.5594
826.86        74.49271
827.27        74.33942
827.68        74.13416
828.08        73.97478
828.49        73.84467
828.90        73.73493
829.31        73.70846
829.72        73.86429
830.12        74.22925
830.53        74.72247
830.94        75.17208
831.35        75.23022
831.75        74.84504
832.16        74.10255
832.57        73.29763
832.97        72.87911
833.38        72.96056
833.79        73.38807
834.20        73.98083
834.60        74.44694
835.01        74.69218
835.42        74.84533
835.82        74.93067
836.23        74.90157
836.64        74.80885
837.04         74.6125
837.45        74.47913
837.86        74.76181
838.26        75.52763
838.67        76.63075
839.08        77.69643
839.48        78.00119
839.89        77.36772
840.29        76.06395
840.70        74.67191
841.11        73.83786
841.51        73.73891
841.92        74.16507
842.33        74.90936
842.73        75.60056
843.14        75.97036
843.54        76.17702
843.95        76.28292
844.35         76.4469
844.76        76.68666
845.17        76.92577
845.57          77.077
845.98        76.99249
846.38        76.67701
846.79        76.18543
847.19        75.67621
847.60        75.36667
848.00        75.32413
848.41        75.46531
848.81        75.69038
849.22        75.73277
849.62         75.5759
850.03        75.29916
850.43          75.019
850.84        74.84817
851.24        74.87717
851.65        74.97567
852.05        75.25083
852.46        75.75684
852.86        76.43806
853.27         77.2383
853.67        77.83918
854.07        77.93404
854.48        77.46851
854.88        76.57591
855.29        75.48136
855.69        74.76139
856.10        74.54129
856.50        74.76797
856.90        75.22845
857.31        75.56532
857.71        75.70352
858.12        75.66343
858.52        75.56035
858.92        75.46109
859.33        75.37921
859.73        75.32589
860.13        75.19839
860.54        74.87593
860.94          74.403
861.34        73.82482
861.75         73.3286
862.15        73.24979
862.55        73.62525
862.96        74.31128
863.36        75.10873
863.76        75.57785
864.17        75.57183
864.57         75.2454
864.97        74.69665
865.38        74.10062
865.78        73.57283
866.18        73.06149
866.58        72.67536
866.99        72.60211
867.39        72.89978
867.79         73.5232
868.19        74.27735
868.60        74.82711
869.00        75.10763
869.40        75.13009
869.80        75.03327
870.21         75.0974
870.61        75.44675
871.01        75.93507
871.41        76.26633
871.81        76.02573
872.22        75.16211
872.62        73.81334
873.02        72.42023
873.42        71.73084
873.82        71.94303
874.22        72.83866
874.63        73.90935
875.03        74.35085
875.43        73.95261
875.83        72.97712
876.23        71.85964
876.63        71.26576
877.03        71.37521
877.44        71.95618
877.84        72.73133
878.24        73.23702
878.64        73.27682
879.04        72.87738
879.44        72.35024
879.84        72.24094
880.24        72.61865
880.64        73.27364
881.04        73.80939
881.44        73.61243
881.84        72.58781
882.24        71.00312
882.65        69.38722
883.05        68.53667
883.45         68.6553
883.85        69.50414
884.25        70.72096
884.65        71.67201
885.05        72.12334
885.45        72.24862
885.85        72.18108
886.25        72.13376
886.65        72.18661
887.05        72.23885
887.45        72.28337
887.85        72.34456
888.25         72.4127
888.65        72.50058
889.04        72.57497
889.44        72.59366
889.84        72.53004
890.24         72.3971
890.64        72.20226
891.04        71.96504
891.44        71.71593
891.84         71.4817
892.24        71.29119
892.64        71.17516
893.04        71.15275
893.44        71.22743
893.83        71.43735
894.23        71.78263
894.63        72.25354
895.03        72.79084
895.43        73.32254
895.83         73.7458
896.23        74.00455
896.63        74.10593
897.02        74.00007
897.42        73.64954
897.82        73.09411
898.22        72.41035
898.62        71.74567
899.01        71.29853
899.41        71.14062
899.81         71.2069
900.21        71.44878
900.61        71.77308
901.00        72.11372
901.40        72.46165
901.80        72.73833
902.20        72.82244
902.59        72.70741
902.99        72.42317
903.39        72.04768
903.79        71.71904
904.18        71.48353
904.58        71.31524
904.98        71.26918
905.38        71.42579
905.77        71.78075
906.17        72.34031
906.57        72.89269
906.96        73.08186
907.36         72.8249
907.76        72.22895
908.15        71.65241
908.55        71.65229
908.95        72.34476
909.34        73.55499
909.74        74.83009
910.14         75.5148
910.53        75.39477
910.93        74.69685
911.33        73.70383
911.72        72.84082
912.12        72.32808
912.52        72.05518
912.91        71.93677
913.31        71.87016
913.70        71.81343
914.10        71.77531
914.49        71.88799
914.89        72.25343
915.29        72.88687
915.68        73.73829
916.08        74.45686
916.47        74.56135
916.87        73.98726
917.26        72.87121
917.66        71.73965
918.05        71.22622
918.45        71.46822
918.84        72.33543
919.24        73.36683
919.64        73.88322
920.03        73.69979
920.42        72.98859
920.82        72.21341
921.21        72.03473
921.61         72.5825
922.00        73.68416
922.40        74.87282
922.79        75.48679
923.19        75.29868
923.58        74.57258
923.98        73.70336
924.37        73.18975
924.77        73.17797
925.16        73.44869
925.55        73.85467
925.95        74.12895
926.34        74.18327
926.74        74.10915
927.13         73.8612
927.52         73.2823
927.92        72.45864
928.31        71.44491
928.70        70.53638
929.10        70.16072
929.49        70.37909
929.89        71.00317
930.28        71.90028
930.67        72.69427
931.07        73.19555
931.46        73.58115
931.85        73.67113
932.24        73.25021
932.64        72.40033
933.03        71.16241
933.42        70.07619
933.82        69.93034
934.21        70.85498
934.60        72.68785
934.99        74.78645
935.39        75.95789
935.78        75.88984
936.17        74.79374
936.56        73.32301
936.96        72.53724
937.35        72.69817
937.74        73.47626
938.13        74.29061
938.53        74.25028
938.92        73.18688
939.31         71.5062
939.70        69.76189
940.09        68.69845
940.49        68.48025
940.88        68.91479
941.27        69.75053
941.66        70.52465
942.05        71.04815
942.44        71.45787
942.84        71.84678
943.23        72.35132
943.62        72.99886
944.01        73.64099
944.40         74.2156
944.79        74.68681
945.18        74.99694
945.57        75.14117
945.97        74.98953
946.36        74.44323
946.75        73.50424
947.14         72.3414
947.53        71.15578
947.92         70.1899
948.31        69.53456
948.70        69.14869
949.09        69.09962
949.48         69.4798
949.87        70.25147
950.26        71.34177
950.65        72.49652
951.04        73.30351
951.43         73.6227
951.82        73.51653
952.21        73.13054
952.60        72.74455
952.99        72.48617
953.38         72.3259
953.77        72.24854
954.16        72.22596
954.55        72.23474
954.94        72.26202
955.33        72.38507
955.72        72.70363
956.11        73.20792
956.50        73.88364
956.89        74.39054
957.28        74.18111
957.66        73.18456
958.05        71.63698
958.44        70.14857
958.83        69.60206
959.22        70.13957
959.61        71.50769
960.00        73.11489
960.39         73.8479
960.78        73.36871
961.16        72.03835
961.55        70.46385
961.94        69.42001
962.33        69.12951
962.72        69.39543
963.11        69.99067
963.49        70.51901
963.88        70.72776
964.27        70.74592
964.66        70.81281
965.04        71.31612
965.43        72.25214
965.82        73.49863
966.21         74.5634
966.60        74.55959
966.98        73.27624
967.37        71.16577
967.76         68.9583
968.15        67.51947
968.53        67.03159
968.92        67.29717
969.31        67.97853
969.69        68.41063
970.08        68.28046
970.47        67.79455
970.86        67.39549
971.24        67.71957
971.63        68.88506
972.02         70.7103
972.40        72.60928
972.79        73.17943
973.17         72.1311
973.56        69.96425
973.95        67.68321
974.33        66.58985
974.72        66.93812
975.11        68.35604
975.49        70.24149
975.88        71.31876
976.26        71.19296
976.65        70.20419
977.04        68.89978
977.42        68.08656
977.81        67.96951
978.19        68.26979
978.58         68.8243
978.96        69.36014
979.35         69.7263
979.74        70.04829
980.12        70.37782
980.51        70.53412
980.89         70.6108
981.28        70.57976
981.66        70.50838
982.05        70.50124
982.43         70.6025
982.82        70.76511
983.20        71.13636
983.59         71.8347
983.97        72.93584
984.35        74.34934
984.74        75.62675
985.12        76.27587
985.51        76.08929
985.89        75.21611
986.28        74.16293
986.66        73.62729
987.04        73.83955
987.43        74.58528
987.81        75.47929
988.20        75.62935
988.58        74.84095
988.96          73.365
989.35        71.76759
989.73        70.80451
990.12         70.6309
990.50        71.07338
990.88        71.68134
991.27        71.68484
991.65        70.91071
992.03        69.63659
992.42         68.4566
992.80        68.14059
993.18        68.85643
993.56        70.36911
993.95        72.05247
994.33        72.94023
994.71        72.58586
995.10        71.42308
995.48        70.02679
995.86        69.32188
996.24        69.54553
996.63         70.2842
997.01        71.46082
997.39        72.51554
997.77        73.12883
998.15        73.53658
998.54        73.56464
998.92        72.81391
999.30        71.42146
999.68         69.5253
1000.06        67.85674
1000.45        67.43729
1000.83        68.53956
1001.21        70.98535
1001.59        74.05522
1001.97        75.92545
1002.35        75.89397
1002.73        74.54906
1003.12        72.85953
1003.50        71.97422
1003.88        72.27042
1004.26        73.20444
1004.64        74.65755
1005.02        76.32025
1005.40         77.8426
1005.78        79.47372
1006.16        80.32489
1006.54        78.97971
1006.92        75.53772
1007.30        70.61478
1007.69        66.08965
1008.07        64.50368
1008.45        66.53429
1008.83        71.62209
1009.21        78.29583
1009.59        82.74586
1009.97        83.02612
1010.35        80.15274
1010.73        75.46243
1011.11        70.97205
1011.49         67.5372
1011.86        64.72631
1012.24        62.74412
1012.62        61.81611
1013.00        61.87824
1013.38        63.01558
1013.76        65.04232
1014.14        67.13451
1014.52        68.70931
1014.90        69.68994
1015.28         70.0436
1015.66        69.97783
1016.04        69.62113
1016.41        68.89442
1016.79        67.91603
1017.17        67.07371
1017.55        66.51324
1017.93        66.19481
1018.31        66.08189
1018.69        66.02438
1019.06        65.98314
1019.44        66.06189
1019.82        66.05111
1020.20        65.54231
1020.58        64.49139
1020.95        62.95872
1021.33        61.70745
1021.71        61.49886
1022.09        62.43684
1022.46        64.61575
1022.84        67.12773
1023.22        67.78962
1023.60        65.86688
1023.97        61.93213
1024.35        58.36018
1024.73        57.82985
