SpectraSmart Spectrum 2.9.0.0
--------- Device Information -----------
Spectrum Name :  反射率_0
Saving Time :  2024/04/26 23:33:25
Spectro-Module Model Name : SE2030-DUVN
Spectro-Module Serial Number : OS361AC55029948
Wavelength Start : 200
Wavelength End : 1025
Wavelength Unit : Wavelength(nm)
Spectrum Unit : Reflectance(%)
-----------Spectrum Setting ------------
Integration Time : 20ms
Average : 10
Boxcar : 0
Background removal :  enabled
linearity correction :  enabled
SC :  disabled
Intensity correction :  disabled
DWT denoise :  enabled
savitzky-golay :  disabled
FFT :  disabled
Running average :  disabled
Kalman :  disabled
High pass :  disabled
---------------BEGIN--------------------
Wavelength(nm)             Reflectance(%)
200.29               0
200.75         25.9849
201.21        26.14817
201.67        26.60275
202.13        26.92467
202.58        26.99264
203.04        27.45818
203.50        28.22857
203.96        28.68444
204.42        28.48841
204.88        27.25291
205.34        26.34229
205.80        28.32755
206.26        32.94817
206.72        38.51698
207.18        42.52219
207.64        42.86443
208.10         39.4878
208.55        32.49629
209.01        22.14803
209.47        16.12451
209.93        19.10675
210.39        26.17213
210.85        32.82717
211.31        37.86463
211.77        42.84873
212.23        51.27872
212.69         70.1853
213.14        101.8031
213.60        99.51697
214.06        75.66183
214.52        59.98774
214.98        53.80858
215.44        52.07458
215.90        51.95972
216.36         52.1919
216.81        50.80134
217.27        47.32534
217.73        42.30424
218.19         35.4356
218.65        29.65059
219.11        28.53478
219.57         30.1775
220.02        33.54469
220.48        39.46878
220.94        48.83505
221.40        63.83125
221.86        83.78671
222.32        94.90276
222.77        86.49069
223.23         68.4597
223.69        51.80393
224.15        42.44529
224.61        38.92414
225.06        38.27057
225.52        39.12392
225.98        40.11459
226.44        40.94835
226.90        42.11956
227.36        43.45672
227.81         44.4554
228.27        45.03068
228.73        45.00062
229.19        44.84692
229.65        45.27007
230.10        46.28704
230.56        47.76112
231.02        48.93456
231.48        48.63081
231.93        46.78632
232.39        44.22344
232.85        41.93185
233.31        41.20959
233.77        42.13684
234.22        44.26365
234.68        46.75474
235.14        48.41153
235.60        48.84204
236.05        48.34478
236.51        47.28704
236.97        46.50767
237.43        46.39939
237.88        46.80461
238.34        47.36045
238.80        47.69522
239.26        47.67815
239.71         47.5994
240.17        47.61361
240.63        48.63998
241.08         51.2742
241.54        55.17624
242.00         59.7234
242.46        63.86211
242.91        67.59406
243.37        70.37321
243.83        72.52347
244.28        74.67822
244.74        75.89409
245.20        75.61927
245.66        73.25553
246.11        67.73985
246.57        60.03053
247.03        50.54305
247.48         41.9602
247.94        39.41312
248.40        42.62785
248.85        47.77641
249.31        52.34179
249.77        54.49492
250.22        54.27711
250.68        52.22663
251.14        48.78595
251.59        46.09172
252.05        46.06268
252.51        48.15824
252.96        50.30456
253.42        50.87302
253.88        49.90981
254.33        47.84201
254.79        46.87088
255.25        48.60616
255.70         52.6969
256.16        58.45026
256.62         62.9135
257.07        61.89518
257.53        56.99306
257.99        51.06997
258.44        46.53264
258.90        45.48495
259.35        46.84954
259.81        49.63528
260.27        52.27647
260.72        52.88134
261.18        51.61614
261.63        49.21122
262.09        46.95934
262.55        45.76391
263.00        45.53556
263.46        45.93793
263.91        46.21718
264.37        45.68712
264.83         44.3195
265.28        42.47092
265.74        40.84308
266.19        40.03793
266.65        40.15809
267.11        40.85035
267.56         41.6734
268.02        41.93074
268.47         41.4442
268.93        40.48644
269.38        39.30368
269.84        38.32394
270.30        37.65469
270.75        37.12209
271.21        36.71874
271.66        36.39376
272.12        36.10611
272.57        35.87984
273.03        35.56535
273.48        34.89703
273.94        33.91234
274.39        32.68727
274.85        31.53656
275.31        30.77571
275.76        30.42401
276.22        30.38481
276.67        30.43375
277.13        30.32568
277.58        29.95675
278.04        29.44176
278.49        28.82689
278.95        28.28752
279.40        27.82183
279.86        27.43647
280.31        27.04954
280.77        26.64552
281.22        26.18921
281.68        25.75572
282.13        25.36489
282.59        25.11214
283.04        24.97318
283.50         24.9248
283.95        24.90004
284.41        24.80768
284.86        24.62363
285.32        24.40294
285.77        24.16547
286.22        23.99305
286.68        23.90064
287.13        23.82712
287.59        23.77773
288.04        23.72132
288.50         23.6629
288.95        23.58858
289.41        23.47718
289.86        23.23824
290.32        22.90088
290.77        22.48531
291.22        22.09346
291.68        21.86334
292.13         21.8155
292.59        21.92837
293.04        22.12562
293.50        22.30142
293.95        22.41914
294.40        22.51399
294.86        22.64308
295.31        22.88812
295.77        23.26809
296.22        23.73913
296.68        24.24083
297.13        24.67314
297.58        25.01679
298.04        25.30142
298.49        25.57692
298.95         25.9372
299.40        26.39006
299.85        26.89718
300.31        27.39713
300.76        27.79311
301.21        28.06241
301.67        28.24738
302.12        28.36988
302.58        28.51288
303.03        28.67572
303.48        28.85364
303.94         29.0326
304.39        29.16545
304.84        29.25383
305.30        29.32358
305.75        29.37691
306.20        29.46209
306.66        29.59077
307.11        29.73293
307.57        29.86566
308.02        29.91681
308.47        29.88469
308.93        29.79929
309.38         29.6912
309.83        29.64708
310.29        29.68334
310.74        29.76831
311.19        29.85256
311.65        29.85293
312.10        29.74285
312.55        29.54455
313.00        29.31309
313.46        29.12809
313.91        28.99763
314.36        28.91079
314.82        28.80893
315.27        28.60777
315.72        28.29573
316.18        27.91548
316.63        27.54769
317.08        27.32552
317.53         27.2702
317.99        27.33045
318.44        27.41826
318.89        27.38066
319.35        27.17539
319.80        26.84587
320.25         26.4596
320.70        26.12686
321.16        25.88027
321.61        25.69691
322.06        25.53647
322.51        25.33648
322.97        25.07831
323.42        24.79172
323.87        24.51953
324.32        24.32926
324.78        24.22455
325.23         24.1914
325.68        24.15781
326.13        24.01397
326.59        23.73558
327.04        23.37041
327.49         22.9899
327.94        22.70737
328.39         22.5479
328.85        22.46531
329.30         22.4357
329.75         22.3727
330.20        22.25032
330.66        22.09716
331.11        21.93425
331.56         21.7746
332.01        21.62711
332.46        21.47421
332.92        21.32906
333.37        21.25661
333.82        21.25188
334.27        21.30497
334.72        21.35726
335.17        21.30685
335.63        21.13253
336.08        20.87989
336.53        20.61607
336.98        20.46166
337.43        20.45045
337.88        20.53986
338.34         20.6857
338.79        20.83251
339.24        20.93609
339.69        21.00739
340.14        21.01563
340.59        20.91471
341.05        20.71458
341.50        20.43345
341.95         20.1307
342.40        19.89946
342.85        19.76794
343.30        19.71405
343.75        19.72316
344.20        19.76626
344.66        19.82783
345.11        19.91177
345.56         19.9875
346.01        20.00696
346.46        19.96607
346.91        19.87835
347.36        19.78238
347.81        19.74529
348.26        19.78173
348.72        19.86852
349.17        19.97859
349.62        20.07968
350.07        20.15384
350.52        20.20868
350.97        20.22443
351.42        20.17042
351.87        20.04857
352.32        19.87256
352.77        19.68254
353.22        19.53756
353.67        19.45106
354.13        19.41023
354.58        19.38998
355.03        19.35168
355.48        19.28268
355.93        19.19539
356.38        19.10044
356.83        19.01252
357.28        18.93308
357.73        18.85146
358.18         18.7607
358.63        18.65388
359.08        18.53208
359.53        18.40388
359.98        18.27167
360.43        18.13523
360.88        17.99557
361.33         17.8515
361.78        17.71587
362.23        17.60977
362.68        17.53738
363.13        17.49508
363.58        17.45646
364.03         17.3798
364.48        17.25551
364.93         17.0912
365.38        16.92519
365.83        16.82061
366.28        16.79188
366.73        16.82378
367.18        16.86116
367.63        16.81804
368.08        16.67737
368.53        16.46188
368.98        16.24176
369.43        16.12888
369.88        16.14439
370.33        16.25295
370.78        16.36689
371.23        16.34167
371.68         16.1438
372.13         15.8219
372.58        15.47053
373.03        15.23871
373.48        15.16605
373.93        15.20698
374.38        15.29176
374.83        15.30869
375.28        15.22525
375.72        15.07407
376.17         14.9094
376.62        14.79018
377.07        14.73319
377.52        14.71593
377.97        14.70878
378.42        14.67064
378.87        14.59056
379.32        14.48064
379.77        14.37257
380.22        14.30974
380.67        14.29639
381.11        14.32187
381.56        14.33212
382.01        14.25263
382.46         14.0765
382.91        13.84258
383.36        13.61572
383.81        13.48211
384.26        13.45563
384.71        13.50549
385.15        13.59297
385.60        13.65697
386.05        13.67246
386.50        13.65867
386.95        13.62013
387.40        13.56537
387.85        13.50254
388.29        13.41843
388.74        13.34578
389.19        13.30276
389.64        13.28934
390.09         13.2974
390.54        13.30408
390.98        13.26667
391.43        13.18696
391.88          13.081
392.33        12.97036
392.78        12.88429
393.23        12.83108
393.67         12.7959
394.12         12.7859
394.57        12.78654
395.02        12.79138
395.47         12.7965
395.91        12.80348
396.36        12.80479
396.81        12.80538
397.26        12.80861
397.71        12.79769
398.15        12.75747
398.60        12.70565
399.05        12.59607
399.50        12.47644
399.95         12.5069
400.39        12.65368
400.84        12.67556
401.29        12.55714
401.74        12.47174
402.18        12.42203
402.63        12.29397
403.08         12.1256
403.53        12.03062
403.97        12.02529
404.42        12.08101
404.87         12.1566
405.32        12.18369
405.76        12.14304
406.21         12.0598
406.66        11.97735
407.11        11.96454
407.55        12.03871
408.00        12.17312
408.45        12.31342
408.90         12.3584
409.34        12.28224
409.79        12.12098
410.24        11.94607
410.68         11.8549
411.13        11.87022
411.58        11.95969
412.03        12.06762
412.47        12.09723
412.92        12.01882
413.37        11.87524
413.81        11.71426
414.26        11.60944
414.71        11.57423
415.15        11.58692
415.60        11.62589
416.05        11.66323
416.49        11.68647
416.94        11.70535
417.39        11.71867
417.83        11.72181
418.28         11.7148
418.73         11.6934
419.17        11.66979
419.62        11.66755
420.07         11.6893
420.51        11.72333
420.96        11.75301
421.41         11.7496
421.85        11.70381
422.30        11.62567
422.74        11.52451
423.19        11.46564
423.64        11.43772
424.08        11.36683
424.53        11.26346
424.98        11.23587
425.42        11.29761
425.87        11.36508
426.31        11.41847
426.76        11.51035
427.21        11.59621
427.65        11.52215
428.10        11.33978
428.54        11.25087
428.99        11.27881
429.44        11.36021
429.88        11.44614
430.33        11.41811
430.77        11.30269
431.22        11.32028
431.66        11.45652
432.11        11.48575
432.56        11.40428
433.00        11.37241
433.45        11.35508
433.89        11.21679
434.34        11.05161
434.78         10.7987
435.23        11.06005
435.67        11.11001
436.12        11.09667
436.57         11.0553
437.01        11.00334
437.46        10.97514
437.90        10.97096
438.35        10.94757
438.79        10.90886
439.24        10.89848
439.68        10.91875
440.13        10.95728
440.57        10.99762
441.02         11.0228
441.46        11.02661
441.91        10.98728
442.35        10.92389
442.80        10.97041
443.24         11.0832
443.69        11.06555
444.13        10.93705
444.58        10.90497
445.02        10.97392
445.47        11.03376
445.91        11.05896
446.36        11.06365
446.80        11.04008
447.24        10.98671
447.69        10.92657
448.13        10.89049
448.58          10.889
449.02        10.91263
449.47        10.94523
449.91        10.95523
450.36         10.9386
450.80        10.90419
451.25        10.87045
451.69        10.85989
452.13          10.877
452.58        10.90847
453.02         10.9403
453.47        10.95275
453.91        10.94028
454.36        10.91425
454.80        10.87228
455.24        10.80908
455.69        10.73274
456.13        10.63743
456.58         10.5605
457.02        10.53931
457.46        10.58253
457.91        10.67772
458.35        10.77105
458.79        10.77744
459.24         10.6937
459.68        10.54171
460.13        10.39631
460.57        10.33987
461.01        10.39704
461.46        10.52852
461.90         10.6893
462.34         10.7925
462.79        10.80693
463.23        10.76379
463.68        10.68144
464.12        10.59933
464.56        10.53361
465.01         10.4843
465.45        10.44245
465.89        10.42723
466.34        10.43713
466.78        10.46769
467.22         10.5087
467.67        10.52876
468.11        10.52536
468.55        10.50133
468.99        10.46836
469.44        10.44548
469.88        10.43948
470.32        10.44505
470.77        10.45978
471.21        10.48198
471.65        10.50806
472.10        10.54086
472.54        10.57444
472.98        10.60352
473.42        10.62661
473.87        10.64748
474.31        10.66136
474.75        10.67332
475.20        10.68662
475.64        10.69416
476.08        10.70204
476.52        10.71383
476.97        10.72959
477.41        10.75449
477.85        10.78145
478.29        10.78222
478.74        10.76439
479.18         10.7619
479.62        10.77799
480.06        10.80192
480.50        10.83393
480.95        10.86323
481.39        10.87908
481.83        10.97218
482.27        10.98293
482.72        11.05044
483.16         11.1141
483.60        11.14747
484.04        11.13595
484.48        11.11987
484.93        11.21282
485.37        11.24985
485.81        11.44104
486.25        11.89256
486.69         11.5242
487.14        11.19638
487.58        12.09945
488.02        12.19583
488.46        11.83075
488.90        11.88844
489.34        11.72356
489.79        11.88299
490.23        12.06668
490.67        12.22019
491.11        12.29017
491.55        12.25913
491.99         12.1843
492.43        12.20196
492.88        12.33084
493.32        12.47751
493.76         12.6094
494.20         12.7307
494.64         12.8349
495.08        12.89409
495.52         12.9232
495.96        13.03366
496.41         13.2054
496.85        13.23122
497.29        13.14094
497.73        13.29046
498.17        13.48591
498.61        13.63876
499.05        13.67611
499.49        13.73617
499.93         13.7935
500.37        13.91688
500.82        14.07481
501.26        14.17835
501.70        14.21847
502.14        14.25322
502.58        14.30454
503.02        14.37781
503.46         14.4781
503.90        14.60296
504.34        14.72953
504.78        14.81906
505.22        14.86144
505.66        14.86746
506.10        14.85843
506.54        14.86893
506.98        14.90977
507.42        14.97266
507.86        15.04429
508.30        15.10287
508.74        15.14165
509.18        15.16602
509.62        15.18925
510.06        15.23192
510.50        15.29714
510.94        15.37732
511.38        15.45134
511.82        15.48627
512.26        15.47678
512.70        15.43521
513.14        15.38889
513.58        15.38135
514.02        15.42381
514.46         15.5031
514.90        15.59632
515.34        15.66649
515.78        15.70156
516.22         15.7106
516.66        15.70684
517.10        15.71175
517.54        15.73093
517.98        15.75673
518.42        15.77685
518.86        15.77325
519.30        15.74356
519.74        15.69643
520.18        15.64831
520.62        15.62296
521.06        15.62606
521.50         15.6507
521.93        15.68382
522.37        15.69733
522.81        15.68643
523.25        15.65825
523.69        15.62395
524.13        15.60129
524.57        15.59304
525.01        15.58974
525.45        15.58268
525.89        15.55936
526.32        15.51421
526.76         15.4567
527.20        15.38704
527.64        15.30599
528.08        15.21815
528.52        15.12673
528.96        15.04285
529.40         14.9827
529.83        14.94967
530.27        14.94038
530.71         14.9442
531.15        14.94466
531.59         14.9353
532.03        14.91668
532.46        14.89067
532.90        14.87221
533.34        14.86057
533.78        14.84362
534.22        14.81312
534.66        14.77539
535.09        14.72029
535.53         14.6203
535.97        14.49988
536.41        14.43409
536.85        14.43253
537.28        14.46134
537.72        14.50654
538.16        14.55455
538.60        14.59628
539.04        14.63631
539.47        14.67023
539.91         14.7009
540.35         14.7282
540.79         14.7523
541.22        14.78286
541.66        14.84194
542.10        14.93025
542.54        15.04072
542.97         15.1584
543.41        15.26534
543.85        15.35408
544.29        15.43199
544.72        15.50146
545.16        15.57796
545.60        15.66373
546.04        15.75778
546.47        15.86527
546.91        15.99091
547.35         16.1315
547.79        16.28461
548.22        16.43956
548.66        16.57633
549.10        16.71096
549.53        16.84066
549.97        16.96956
550.41        17.06584
550.84        17.14837
551.28        17.26226
551.72        17.39604
552.15        17.54538
552.59        17.72907
553.03        17.68858
553.46        17.94817
553.90        18.03328
554.34        18.09913
554.77        18.14958
555.21        18.20949
555.65        18.30276
556.08        18.42525
556.52        18.55805
556.96        18.67546
557.39        18.78901
557.83         18.8786
558.27         18.8489
558.70        18.73985
559.14        18.72767
559.57        18.81452
560.01         18.8943
560.45        18.95679
560.88        19.03887
561.32        19.14281
561.75        19.25805
562.19         19.3726
562.63        19.41617
563.06        19.40566
563.50        19.45529
563.93        19.54747
564.37        19.61393
564.80        19.66409
565.24        19.70657
565.68        19.70024
566.11        19.98521
566.55        19.84544
566.98        19.87549
567.42        19.91634
567.85        20.05488
568.29        20.28785
568.72         20.5486
569.16        20.81899
569.60        20.99393
570.03        21.13631
570.47         21.2353
570.90        21.34568
571.34        21.28804
571.77        21.50599
572.21        21.64947
572.64        21.80532
573.08        21.92938
573.51         22.0544
573.95        22.14957
574.38        22.23513
574.82         22.4953
575.25         22.4105
575.69        22.38662
576.12        22.29633
576.56        22.36985
576.99        22.65865
577.42        22.57818
577.86        22.60481
578.29        22.96729
578.73        22.65766
579.16         22.5916
579.60        22.39731
580.03        22.41504
580.47        22.37827
580.90        22.28991
581.33        22.25112
581.77        22.42794
582.20        22.17443
582.64        21.93488
583.07        21.90886
583.51        21.78164
583.94        21.72778
584.37        21.69212
584.81        21.65187
585.24        21.51248
585.68        21.35408
586.11        21.08718
586.54        21.17326
586.98        21.08497
587.41        20.97149
587.85        20.89857
588.28        20.88349
588.71         20.8066
589.15         20.8769
589.58        20.69083
590.01         20.7555
590.45        20.78024
590.88        20.86522
591.31        20.81858
591.75        20.71936
592.18        20.69141
592.61        20.68658
593.05         21.2087
593.48        21.28676
593.91        20.97462
594.35        21.01037
594.78        20.93159
595.21        21.04576
595.65        21.25159
596.08        21.56344
596.51        21.72538
596.94        21.65078
597.38        21.78498
597.81        22.14292
598.24        22.30565
598.68        22.27345
599.11        22.82705
599.54        23.29605
599.97        22.96864
600.41        23.61425
600.84        23.66843
601.27        24.02428
601.70        24.31607
602.14        24.62372
602.57        25.00211
603.00        25.46681
603.43        25.53606
603.87        26.19866
604.30        26.54772
604.73        26.91957
605.16        27.13436
605.60        27.46987
606.03        27.68402
606.46        27.95026
606.89        28.07735
607.32        29.03392
607.76        29.32263
608.19        29.72848
608.62        29.99746
609.05        30.38614
609.48        30.78011
609.92        31.49899
610.35        31.87116
610.78         31.6012
611.21        31.76305
611.64        32.21768
612.07        32.65321
612.50        32.84281
612.94        33.12706
613.37        33.44923
613.80        33.60238
614.23        33.64625
614.66        33.87816
615.09        34.30454
615.52        34.66464
615.96        34.90855
616.39          35.294
616.82        35.56127
617.25        35.79667
617.68        35.95417
618.11        36.28379
618.54         36.7324
618.97        36.93385
619.40         36.9091
619.84        37.13142
620.27         37.2734
620.70        37.53745
621.13         37.7523
621.56        37.69501
621.99        37.45733
622.42        37.50165
622.85        37.81785
623.28        38.03326
623.71        38.11591
624.14        38.11747
624.57        38.25758
625.00        38.22677
625.43        38.25842
625.86        38.21777
626.29        38.18147
626.72        37.93115
627.15        37.92263
627.58        37.79876
628.01         37.6626
628.44         37.4093
628.87        37.06386
629.30        36.75597
629.73        36.50805
630.16        36.26665
630.59        36.03006
631.02        35.82796
631.45        35.63702
631.88        35.40185
632.31        35.10618
632.74        34.75871
633.17        34.36048
633.60        33.92002
634.03        33.44888
634.46        32.94794
634.89        32.44071
635.32        31.97227
635.75        31.55669
636.18        31.15372
636.61        30.76582
637.04        30.40949
637.47        30.07616
637.89        29.75372
638.32        29.41916
638.75        29.06815
639.18        28.70313
639.61        28.33123
640.04        27.96957
640.47        27.64118
640.90        27.35293
641.33        27.10336
641.76         26.8888
642.18         26.7058
642.61        26.54625
643.04        26.41482
643.47        26.31826
643.90        26.26565
644.33        26.25529
644.76        26.28284
645.18        26.32814
645.61        26.35374
646.04        26.35678
646.47        26.35018
646.90        26.36829
647.33        26.45904
647.75        26.62555
648.18        26.88752
648.61        27.22471
649.04        27.49183
649.47        27.65233
649.89        28.17783
650.32        28.34719
650.75        28.72142
651.18        29.11109
651.61        29.67105
652.03        30.36065
652.46        30.92552
652.89         31.3458
653.32        31.73057
653.74         32.2014
654.17        32.34748
654.60        33.29536
655.03        33.42126
655.46        33.72349
655.88        34.23545
656.31         36.2323
656.74        37.55898
657.16        37.66464
657.59        37.72562
658.02        37.20683
658.45        37.81219
658.87        37.68425
659.30        38.24128
659.73           38.58
660.15        39.49522
660.58         39.5463
661.01        39.73618
661.44        39.82512
661.86        39.90842
662.29        40.03372
662.72        40.70479
663.14         41.0876
663.57         41.4414
664.00        41.56592
664.42        41.86973
664.85        42.36884
665.27        42.81508
665.70        43.14022
666.13        43.40171
666.55        43.59731
666.98        43.66908
667.41        43.65339
667.83        43.89631
668.26        43.96224
668.69         44.2067
669.11        44.48899
669.54        44.77541
669.96        45.04933
670.39        45.37776
670.82        45.73156
671.24        45.88965
671.67        45.90948
672.09          46.131
672.52        46.52353
672.94        46.72839
673.37        46.74136
673.80        46.76251
674.22        46.83663
674.65        46.91758
675.07        47.02791
675.50        47.17112
675.92        47.33691
676.35        47.47768
676.77         47.5826
677.20        47.69776
677.62        47.84222
678.05        47.85291
678.47        48.04172
678.90        48.16752
679.32        48.31658
679.75        48.48584
680.17        48.66624
680.60        48.84532
681.02        49.03276
681.45         49.2258
681.87        49.42422
682.30        49.68869
682.72        49.96598
683.15        49.97498
683.57        49.79062
684.00        49.80594
684.42        50.04498
684.85        50.22532
685.27        50.33731
685.70        50.57022
686.12         50.8604
686.54        51.02328
686.97        51.03736
687.39        50.96664
687.82        50.86374
688.24        50.84166
688.66         50.9348
689.09        51.07031
689.51        51.24044
689.94        51.50717
690.36        51.81664
690.78        51.93391
691.21        51.90347
691.63        52.03697
692.06        52.30209
692.48         52.4397
692.90        52.33427
693.33        52.28902
693.75        52.27746
694.17        52.23943
694.60        52.21577
695.02        52.16402
695.44        52.16407
695.87        52.56433
696.29        53.20582
696.71        53.39269
697.14        53.16152
697.56        52.96539
697.98         53.0423
698.41        53.37915
698.83        53.33984
699.25         53.6854
699.68        54.08835
700.10         54.3075
700.52        54.27363
700.94        54.08262
701.37        53.87057
701.79        53.84478
702.21        54.05131
702.64        54.40705
703.06        54.80823
703.48        55.07356
703.90        55.14951
704.33        55.09715
704.75        54.97856
705.17         54.8832
705.59        54.85164
706.01        54.85773
706.44        54.90525
706.86          55.012
707.28        55.16166
707.70        55.36866
708.12        55.61083
708.55         55.7953
708.97        55.92825
709.39        56.10663
709.81        56.30125
710.23        56.39254
710.66        56.36963
711.08        56.30727
711.50        56.23176
711.92        56.17893
712.34        56.16911
712.76        56.20129
713.19        56.25745
713.61        56.33537
714.03        56.41622
714.45        56.50938
714.87        56.62034
715.29        56.75916
715.71        56.92321
716.13        57.09187
716.56        57.24126
716.98        57.42168
717.40        57.60011
717.82        57.74452
718.24        57.81768
718.66        57.82269
719.08         57.7425
719.50        57.46791
719.92        57.11708
720.34        56.99413
720.76         57.1408
721.19        57.40447
721.61        57.74415
722.03        58.08501
722.45        58.36901
722.87        58.60022
723.29        58.73433
723.71        58.70408
724.13        58.51412
724.55        58.20091
724.97        57.85291
725.39        57.61117
725.81        57.52447
726.23        57.58898
726.65        57.73346
727.07        58.01484
727.49        58.20415
727.91        58.58806
728.33        59.03802
728.75        59.34097
729.17        59.45377
729.59         59.4618
730.01        59.41199
730.43        59.33545
730.85        59.27332
731.27        59.26892
731.69        59.29262
732.10        59.25088
732.52        59.13246
732.94        58.99635
733.36        58.90507
733.78        58.82451
734.20        58.77154
734.62         58.9611
735.04        59.38563
735.46         59.0079
735.88         59.5875
736.30        59.36049
736.72        59.51632
737.13        59.80733
737.55        60.28049
737.97        60.71896
738.39         60.9451
738.81        60.52031
739.23        59.69033
739.65        59.66171
740.06        60.33984
740.48        60.58716
740.90        60.35207
741.32        60.34425
741.74        60.60937
742.16        60.79615
742.57        60.89087
742.99        60.97814
743.41        61.04049
743.83        61.03138
744.25        60.95488
744.67         60.8051
745.08        60.66538
745.50        60.66543
745.92        60.82896
746.34        61.09325
746.75        61.36384
747.17        61.48033
747.59        61.40895
748.01        61.22787
748.42        61.01774
748.84        60.84408
749.26        60.78714
749.68        60.94542
750.09        61.23493
750.51        61.44613
750.93        61.49518
751.35        61.35269
751.76        61.08673
752.18        60.91937
752.60        60.88047
753.01        60.86996
753.43        60.85623
753.85        60.85605
754.27        60.87317
754.68        60.95243
755.10        61.04961
755.52        61.19872
755.93        61.35586
756.35        61.47479
756.77        61.61012
757.18        61.74639
757.60         61.8833
758.02        62.30978
758.43         62.7658
758.85        62.23986
759.26        61.47594
759.68         60.8699
760.10        60.98309
760.51        62.01807
760.93        62.41912
761.34        62.14305
761.76        62.28582
762.18        62.01839
762.59        61.95936
763.01        62.22579
763.42        62.76414
763.84        62.95668
764.26        62.76007
764.67        62.45865
765.09        62.22217
765.50        62.22951
765.92        62.46458
766.33        62.48903
766.75        62.23333
767.16        62.26576
767.58        62.31509
768.00        62.25741
768.41        62.11234
768.83         62.2489
769.24        62.58178
769.66        62.82003
770.07        62.88426
770.49        62.57635
770.90        62.12262
771.32        62.45272
771.73        63.40401
772.15        63.75981
772.56        63.45469
772.97        63.11234
773.39        62.88292
773.80        62.95107
774.22        62.97163
774.63        63.28823
775.05        63.62389
775.46        63.78482
775.88        63.68682
776.29        63.42332
776.70        63.11148
777.12        62.95329
777.53        63.01361
777.95        63.19042
778.36        63.42892
778.77        63.59443
779.19        63.66048
779.60        63.71506
780.02        63.73739
780.43        63.71275
780.84        63.70797
781.26        63.55714
781.67        63.38769
782.09        63.92084
782.50        64.85394
782.91        64.72371
783.33        63.67281
783.74        63.26179
784.15         63.5814
784.57        63.78304
784.98        63.81364
785.39        63.86764
785.81        63.97501
786.22        64.31937
786.63        64.81129
787.04          65.039
787.46        64.99374
787.87         64.9278
788.28        64.88488
788.70        64.77996
789.11        64.62346
789.52         64.4997
789.93        64.43789
790.35        64.45409
790.76        64.55279
791.17        64.70449
791.58        64.89689
792.00        65.01613
792.41        65.04675
792.82        65.23352
793.23        65.45932
793.65        65.05898
794.06        64.29719
794.47        64.30979
794.88         64.9627
795.29        65.51198
795.71        65.01072
796.12        65.08849
796.53         65.4592
796.94        65.17097
797.35        64.42731
797.76        64.63888
798.18         65.6561
798.59        66.05643
799.00        65.71919
799.41        65.43141
799.82        65.33914
800.23         65.3233
800.64        65.42364
801.06        65.63585
801.47        65.89296
801.88        66.00195
802.29         65.9045
802.70        65.62743
803.11        65.27984
803.52        65.05251
803.93        65.03136
804.34        65.19128
804.75        65.40544
805.17         65.6146
805.58        65.84177
805.99        65.58655
806.40        65.09743
806.81        66.01218
807.22        67.81107
807.63        67.59586
808.04        65.63252
808.45        64.82312
808.86        65.36247
809.27        65.63769
809.68        65.47442
810.09        65.38254
810.50        65.33903
810.91        65.20068
811.32        65.11517
811.73        65.31776
812.14         65.8348
812.55        66.61106
812.96        67.39113
813.37        67.68199
813.78        67.35981
814.19        66.61068
814.60         65.7338
815.01         65.1335
815.42        64.91167
815.83        64.96204
816.24        65.19136
816.65        65.41386
817.05        65.55136
817.46        65.63775
817.87        65.71406
818.28        65.79026
818.69        65.87721
819.10        65.93888
819.51        65.98692
819.92        66.08858
820.33        66.25003
820.74        66.38416
821.14        66.46359
821.55        66.59768
821.96        66.70302
822.37         66.4351
822.78        65.90124
823.19        65.63115
823.60        65.69985
824.00        65.86186
824.41        66.01793
824.82        66.21175
825.23        66.39759
825.64        66.55737
826.04        66.67271
826.45        66.67786
826.86        66.58123
827.27        66.41291
827.68         66.1982
828.08        66.00986
828.49        65.83334
828.90        65.67524
829.31         65.6049
829.72        65.72806
830.12        66.07078
830.53        66.54787
830.94        66.99754
831.35         67.0955
831.75         66.7849
832.16        66.14497
832.57        65.41766
832.97        64.97268
833.38        64.91328
833.79        65.11573
834.20        65.46952
834.60          65.791
835.01        66.01703
835.42        66.25163
835.82        66.46746
836.23        66.53539
836.64        66.47334
837.04        66.26083
837.45         66.1081
837.86        66.43291
838.26        67.31476
838.67        68.59175
839.08        69.82987
839.48        70.20947
839.89        69.53304
840.29        68.10355
840.70        66.56963
841.11        65.68514
841.51        65.64376
841.92        66.20679
842.33        67.10523
842.73        67.84973
843.14        68.14835
843.54        68.19924
843.95        68.12096
844.35        68.15479
844.76        68.34534
845.17        68.57913
845.57        68.76592
845.98        68.75748
846.38        68.54272
846.79        68.18739
847.19        67.78493
847.60        67.44735
848.00        67.22967
848.41         67.0799
848.81        67.00861
849.22        66.94962
849.62        66.92282
850.03        66.94157
850.43        66.99561
850.84        66.99803
851.24        66.97336
851.65         66.8625
852.05        66.82065
852.46        67.01447
852.86        67.45477
853.27        68.06377
853.67        68.56124
854.07        68.67489
854.48        68.34293
854.88        67.67962
855.29        66.86058
855.69        66.33863
856.10        66.20302
856.50        66.42174
856.90        66.79398
857.31         66.9909
857.71        66.96108
858.12        66.72847
858.52        66.47523
858.92        66.39487
859.33         66.5189
859.73        66.80777
860.13           67.06
860.54        66.97971
860.94        66.54695
861.34        65.85486
861.75        65.12397
862.15         64.7458
862.55        64.80473
862.96        65.16207
863.36        65.67616
863.76        66.01776
864.17        66.06506
864.57         65.9423
864.97        65.69318
865.38        65.39685
865.78        65.12483
866.18        64.83771
866.58        64.60555
866.99        64.56027
867.39        64.74976
867.79        65.14188
868.19        65.62855
868.60        66.01144
869.00        66.26252
869.40        66.38741
869.80        66.45451
870.21        66.59688
870.61        66.89063
871.01        67.23308
871.41        67.45532
871.81        67.32577
872.22         66.8206
872.62        66.02352
873.02        65.19531
873.42        64.77309
873.82        64.87901
874.22        65.38917
874.63        66.02188
875.03        66.34175
875.43        66.21234
875.83        65.75349
876.23        65.18996
876.63        64.87154
877.03        64.88848
877.44        65.11135
877.84         65.3595
878.24        65.35566
878.64         65.0008
879.04        64.27844
879.44        63.51146
879.84        63.28476
880.24        63.66647
880.64        64.42879
881.04        65.19857
881.44        65.39234
881.84        64.87555
882.24        63.85869
882.65        62.74078
883.05        62.13446
883.45        62.21056
883.85        62.79485
884.25        63.62971
884.65        64.27026
885.05        64.56275
885.45        64.63701
885.85        64.63672
886.25        64.78346
886.65        65.12611
887.05        65.54977
887.45         65.9408
887.85        66.13754
888.25        66.08589
888.65        65.85562
889.04        65.50722
889.44        65.14822
889.84        64.81957
890.24        64.51881
890.64        64.26637
891.04         64.0947
891.44        64.01694
891.84        64.03373
892.24        64.14501
892.64        64.33858
893.04         64.5994
893.44        64.92297
893.83         65.2709
894.23        65.53014
894.63         65.6905
895.03        65.75237
895.43        65.77831
895.83        65.89091
896.23        66.09509
896.63        66.32092
897.02        66.46855
897.42        66.40166
897.82        66.10137
898.22        65.68137
898.62        65.17529
899.01        64.61089
899.41        64.05794
899.81        63.49917
900.21        63.12737
900.61        63.25451
901.00         63.8941
901.40        64.91569
901.80        65.95833
902.20        66.43599
902.59        66.22304
902.99        65.49404
903.39         64.5427
903.79        63.86861
904.18        63.62812
904.58        63.66828
904.98        63.92552
905.38        64.30773
905.77        64.75106
906.17        65.32366
906.57        65.83999
906.96        65.97341
907.36        65.65992
907.76        64.98557
908.15        64.30497
908.55        64.18492
908.95        64.74446
909.34        65.81236
909.74        66.96563
910.14        67.57784
910.53        67.44811
910.93        66.81106
911.33        65.90175
911.72        65.07331
912.12        64.52631
912.52        64.15392
912.91        63.96299
913.31        63.98845
913.70        64.20615
914.10        64.59194
914.49        65.10518
914.89        65.56474
915.29        65.91967
915.68         66.1976
916.08        66.30184
916.47        66.17046
916.87        65.83511
917.26        65.29636
917.66        64.80406
918.05        64.60906
918.45        64.76199
918.84        65.24129
919.24        65.78479
919.64        66.04976
920.03        65.95431
920.42        65.57233
920.82        65.17165
921.21        65.11913
921.61        65.47893
922.00        66.16163
922.40        66.90428
922.79        67.38134
923.19        67.44753
923.58        67.23669
923.98        66.90459
924.37        66.62034
924.77        66.46164
925.16        66.32441
925.55        66.23238
925.95        66.21475
926.34        66.27608
926.74        66.41121
927.13        66.47529
927.52        66.15722
927.92        65.48271
928.31         64.5621
928.70        63.69773
929.10        63.32349
929.49        63.51402
929.89        64.07317
930.28        64.89295
930.67        65.66379
931.07        66.21207
931.46        66.69059
931.85        66.89989
932.24        66.57842
932.64        65.78996
933.03        64.59983
933.42        63.52067
933.82        63.30418
934.21        64.08015
934.60        65.67982
934.99         67.5518
935.39        68.67052
935.78        68.75235
936.17        67.97478
936.56        66.82531
936.96        66.09468
937.35        65.99529
937.74        66.28732
938.13        66.59248
938.53        66.34496
938.92        65.45609
939.31        64.22115
939.70        63.01431
940.09        62.32194
940.49        62.24037
940.88        62.63718
941.27        63.36495
941.66        64.14297
942.05        64.82807
942.44         65.4857
942.84        66.07796
943.23        66.54982
943.62        66.89096
944.01        67.02373
944.40        67.03835
944.79        67.13559
945.18        67.33023
945.57        67.56994
945.97        67.60098
946.36        67.09407
946.75        66.00273
947.14         64.5779
947.53        63.15926
947.92        62.19135
948.31        61.79214
948.70         61.8275
949.09        62.24069
949.48        62.91884
949.87        63.75014
950.26        64.72701
950.65        65.64165
951.04         66.1618
951.43        66.20375
951.82        65.82117
952.21        65.21946
952.60        64.77554
952.99        64.62129
953.38        64.68603
953.77        64.88022
954.16        65.05052
954.55        65.12711
954.94        65.12487
955.33        65.09486
955.72        65.10884
956.11        65.17329
956.50        65.28233
956.89        65.23022
957.28        64.69633
957.66        63.67485
958.05         62.3611
958.44        61.19639
958.83        60.80155
959.22        61.26593
959.61        62.39649
960.00        63.76871
960.39        64.57368
960.78        64.53204
961.16         63.8729
961.55        62.96984
961.94        62.30148
962.33        62.02938
962.72        62.04052
963.11        62.24778
963.49        62.52682
963.88        62.73687
964.27        62.91765
964.66        63.19936
965.04        63.80133
965.43         64.6888
965.82        65.82377
966.21        66.76428
966.60        66.70846
966.98        65.48407
967.37        63.47196
967.76        61.43307
968.15        60.30562
968.53          60.258
968.92        61.08007
969.31         62.2647
969.69        62.79176
970.08        62.27987
970.47        61.09649
970.86        59.93456
971.24        59.76717
971.63        60.79152
972.02        62.71991
972.40        64.96227
972.79        66.08837
973.17        65.69026
973.56        64.23871
973.95        62.50529
974.33        61.49096
974.72        61.42962
975.11        62.00922
975.49        62.90952
975.88        63.45383
976.26        63.45632
976.65        63.12905
977.04        62.70477
977.42        62.48581
977.81        62.52116
978.19         62.6274
978.58        62.86991
978.96        63.34886
979.35        63.99666
979.74        64.82244
980.12        65.53874
980.51        65.40041
980.89        64.44038
981.28        62.93135
981.66        61.45375
982.05        60.79494
982.43        61.13974
982.82         62.2286
983.20        63.91961
983.59        65.78902
983.97        67.61901
984.35        69.42265
984.74        70.73691
985.12         71.0825
985.51        70.32965
985.89        68.63969
986.28        66.68233
986.66        65.40903
987.04        65.12685
987.43        65.61568
987.81        66.51237
988.20        66.94095
988.58        66.64143
988.96        65.82026
989.35        64.86407
989.73        64.30426
990.12        64.24997
990.50        64.57148
990.88        64.88821
991.27        64.59715
991.65        63.60596
992.03        62.16169
992.42        60.89792
992.80        60.64536
993.18        61.56193
993.56        63.42395
993.95        65.50491
994.33        66.58377
994.71        66.14853
995.10         64.6913
995.48        62.93528
995.86        62.03429
996.24         62.2622
996.63        63.12263
997.01        64.44813
997.39        65.52796
997.77        65.99503
998.15        66.20821
998.54        65.94953
998.92        64.74618
999.30        62.78173
999.68        60.22382
1000.06        58.09305
1000.45        57.85575
1000.83        59.86181
1001.21        63.87354
1001.59        68.75722
1001.97        71.69822
1002.35        71.56094
1002.73        69.14351
1003.12        66.05386
1003.50        64.35301
1003.88        64.62022
1004.26        66.14314
1004.64        68.33106
1005.02        69.93798
1005.40        70.34449
1005.78        70.11687
1006.16        69.19228
1006.54        67.38412
1006.92        64.97483
1007.30        62.13414
1007.69         59.7963
1008.07        59.14365
1008.45        60.53596
1008.83        63.71894
1009.21        67.98698
1009.59        71.34342
1009.97        72.59904
1010.35        72.13105
1010.73        70.29014
1011.11        67.74618
1011.49        65.03703
1011.86        62.19302
1012.24        59.78641
1012.62        58.50711
1013.00        58.42593
1013.38        59.43625
1013.76        61.27955
1014.14        63.06348
1014.52        64.20456
1014.90        64.77533
1015.28        64.75938
1015.66        64.28743
1016.04        63.46495
1016.41         62.1913
1016.79         60.7213
1017.17        59.68313
1017.55        59.28577
1017.93         59.4553
1018.31         59.8619
1018.69        59.93802
1019.06        59.56882
1019.44        58.90968
1019.82        58.20918
1020.20        58.05901
1020.58        58.59717
1020.95        59.36219
1021.33        60.23649
1021.71        61.06761
1022.09        61.87754
1022.46        63.01558
1022.84        63.92371
1023.22        63.38806
1023.60        61.24409
1023.97        57.83282
1024.35        55.20209
1024.73        55.68248
