SpectraSmart Spectrum 2.9.0.0
--------- Device Information -----------
Spectrum Name :  反射率_0
Saving Time :  2024/04/26 23:31:39
Spectro-Module Model Name : SE2030-DUVN
Spectro-Module Serial Number : OS361AC55029948
Wavelength Start : 200
Wavelength End : 1025
Wavelength Unit : Wavelength(nm)
Spectrum Unit : Reflectance(%)
-----------Spectrum Setting ------------
Integration Time : 20ms
Average : 10
Boxcar : 0
Background removal :  enabled
linearity correction :  enabled
SC :  disabled
Intensity correction :  disabled
DWT denoise :  enabled
savitzky-golay :  disabled
FFT :  disabled
Running average :  disabled
Kalman :  disabled
High pass :  disabled
---------------BEGIN--------------------
Wavelength(nm)             Reflectance(%)
200.29               0
200.75        54.15166
201.21        48.59248
201.67        44.41871
202.13        42.52938
202.58        42.77168
203.04        45.26247
203.50         50.6763
203.96        59.07584
204.42        69.47912
204.88        81.15874
205.34        90.77543
205.80         93.9023
206.26        90.14099
206.72        81.23785
207.18        72.00842
207.64        66.25327
208.10        63.97071
208.55        65.15394
209.01        68.22022
209.47        68.33868
209.93        64.48357
210.39        60.14819
210.85        58.62357
211.31        62.47839
211.77        73.80137
212.23        100.2642
212.69         165.863
213.14        272.2249
213.60        261.9514
214.06        183.0025
214.52        131.1907
214.98        108.5627
215.44        99.62073
215.90        95.00724
216.36        94.33416
216.81        98.79218
217.27        109.1934
217.73        130.0267
218.19        157.7349
218.65        166.0132
219.11        147.0788
219.57        119.1446
220.02        100.1495
220.48        98.79968
220.94        113.1923
221.40        144.3647
221.86        191.5965
222.32        224.7117
222.77        216.1077
223.23        185.2487
223.69        153.8657
224.15        134.3573
224.61        125.2105
225.06         120.789
225.52        119.9301
225.98        121.1314
226.44        123.8066
226.90        128.4051
227.36        134.2035
227.81        139.2764
228.27         142.917
228.73        144.8261
229.19        145.8212
229.65        147.2656
230.10        149.2005
230.56        151.3846
231.02        152.5258
231.48        150.7867
231.93          146.25
232.39        140.7034
232.85         135.674
233.31        133.1304
233.77         133.209
234.22         135.076
234.68        138.0102
235.14        140.9416
235.60        143.3637
236.05        145.7279
236.51        147.2018
236.97        146.6398
237.43        143.7451
237.88        138.7607
238.34        133.0077
238.80        129.1912
239.26        128.2328
239.71        130.7516
240.17        135.5031
240.63        139.6664
241.08        141.5484
241.54        140.3804
242.00        139.0429
242.46        143.6087
242.91        158.5916
243.37        186.1729
243.83        225.8463
244.28        255.3756
244.74        244.9086
245.20        198.2537
245.66        146.1512
246.11        112.7024
246.57        97.48415
247.03        93.10828
247.48        93.82325
247.94        91.45271
248.40        85.62911
248.85        80.00446
249.31        76.58203
249.77        75.84631
250.22        77.39812
250.68        80.59136
251.14          85.046
251.59        88.74213
252.05        90.37366
252.51        91.29513
252.96        91.24454
253.42        90.78285
253.88        90.24191
254.33        89.01074
254.79        89.96598
255.25        95.41014
255.70        104.7387
256.16        117.1052
256.62        127.5567
257.07        128.4611
257.53        122.2378
257.99        113.7843
258.44        107.1283
258.90        106.1095
259.35        108.9959
259.81        114.2982
260.27        119.6436
260.72        122.1254
261.18        121.9492
261.63        119.8727
262.09        117.7946
262.55        116.7249
263.00         116.516
263.46        116.9961
263.91        117.0724
264.37        116.1112
264.83         114.052
265.28        111.3098
265.74        108.9709
266.19        107.7519
266.65        107.8524
267.11        108.7348
267.56        109.7842
268.02        110.0752
268.47        109.3231
268.93        107.9255
269.38         106.114
269.84        104.3799
270.30        102.8655
270.75        101.3839
271.21         100.104
271.66        99.16009
272.12        98.54852
272.57        98.18291
273.03        97.76024
273.48        96.70923
273.94        95.06113
274.39        92.95104
274.85        90.86457
275.31        89.18118
275.76        87.93848
276.22        87.09632
276.67        86.40512
277.13        85.77503
277.58        85.00285
278.04        84.17255
278.49        83.19437
278.95        82.18942
279.40        81.06357
279.86        79.96409
280.31         78.6686
280.77        77.13779
281.22         75.3243
281.68        73.46111
282.13        71.75372
282.59        70.70377
283.04        70.24638
283.50        70.25689
283.95        70.35751
284.41        70.02061
284.86        69.10235
285.32        67.84437
285.77        66.46425
286.22        65.40127
286.68        64.73954
287.13        64.26842
287.59        63.86941
288.04        63.27009
288.50        62.47071
288.95        61.52726
289.41        60.57782
289.86          59.664
290.32        58.88514
290.77        58.17144
291.22        57.55385
291.68        57.05258
292.13        56.63091
292.59        56.30462
293.04         56.0518
293.50        55.88118
293.95        55.76225
294.40        55.68886
294.86        55.62236
295.31          55.484
295.77        55.28449
296.22        55.04366
296.68         54.8289
297.13        54.70865
297.58        54.71533
298.04        54.82365
298.49         55.0176
298.95        55.30009
299.40        55.63346
299.85        56.01141
300.31        56.37003
300.76        56.58462
301.21        56.64066
301.67        56.58078
302.12        56.45221
302.58        56.42517
303.03        56.49322
303.48         56.6461
303.94        56.82306
304.39        56.86608
304.84        56.77421
305.30        56.60916
305.75        56.43027
306.20        56.40466
306.66        56.57118
307.11        56.84599
307.57        57.13486
308.02        57.21922
308.47        57.07817
308.93        56.78465
309.38        56.44388
309.83        56.28898
310.29        56.36166
310.74        56.58025
311.19        56.79448
311.65         56.7565
312.10        56.40899
312.55        55.84354
313.00        55.23726
313.46        54.84652
313.91        54.71052
314.36        54.76451
314.82        54.86251
315.27        54.78672
315.72         54.4758
316.18        54.01543
316.63        53.52083
317.08        53.19167
317.53        53.06755
317.99        53.06791
318.44        53.08794
318.89        52.94682
319.35         52.5999
319.80        52.11638
320.25        51.58315
320.70        51.13491
321.16        50.81281
321.61        50.59253
322.06        50.43412
322.51        50.27861
322.97        50.09533
323.42        49.90702
323.87        49.73444
324.32        49.61599
324.78        49.53798
325.23        49.51345
325.68        49.45498
326.13        49.24046
326.59        48.85524
327.04        48.35731
327.49        47.87461
327.94        47.61629
328.39        47.62033
328.85        47.80351
329.30         48.0749
329.75        48.16416
330.20        47.99078
330.66        47.62402
331.11        47.18988
331.56        46.85693
332.01        46.68052
332.46        46.59357
332.92        46.54019
333.37        46.50228
333.82        46.43264
334.27        46.37101
334.72        46.28711
335.17        46.11554
335.63        45.85669
336.08        45.55748
336.53        45.31026
336.98        45.29107
337.43        45.53177
337.88        45.95776
338.34        46.46084
338.79        46.90314
339.24        47.19027
339.69         47.3553
340.14        47.35576
340.59        47.13728
341.05        46.74193
341.50        46.20449
341.95        45.67973
342.40        45.40543
342.85        45.43159
343.30        45.68591
343.75        46.06516
344.20        46.38361
344.66        46.57348
345.11        46.68678
345.56        46.70229
346.01        46.59521
346.46        46.39024
346.91        46.09222
347.36        45.81833
347.81        45.76331
348.26        45.95239
348.72         46.3224
349.17        46.72878
349.62        46.95202
350.07        46.93258
350.52        46.74424
350.97        46.44977
351.42        46.15825
351.87        45.92203
352.32        45.70945
352.77        45.55442
353.22        45.50585
353.67        45.55736
354.13        45.69808
354.58        45.84846
355.03        45.86221
355.48        45.70257
355.93        45.40562
356.38        45.06118
356.83        44.80898
357.28        44.68005
357.73        44.63224
358.18        44.59219
358.63        44.44422
359.08        44.16161
359.53        43.78475
359.98        43.38586
360.43        43.06519
360.88        42.84015
361.33        42.67746
361.78        42.50689
362.23        42.22128
362.68        41.80728
363.13          41.314
363.58          40.824
364.03        40.45725
364.48        40.24179
364.93         40.1385
365.38        40.09177
365.83        40.01231
366.28        39.86942
366.73        39.68542
367.18        39.48069
367.63        39.28907
368.08        39.11496
368.53        38.93518
368.98        38.73559
369.43        38.49734
369.88        38.21939
370.33        37.92369
370.78        37.61258
371.23        37.28833
371.68        36.96473
372.13        36.64333
372.58        36.37358
373.03        36.23041
373.48        36.21334
373.93         36.2877
374.38        36.35804
374.83        36.27413
375.28        36.00223
375.72        35.58251
376.17        35.11935
376.62        34.72795
377.07        34.45114
377.52        34.26752
377.97        34.14529
378.42        34.03633
378.87        33.92158
379.32        33.80165
379.77        33.71617
380.22         33.7201
380.67        33.80742
381.11        33.96546
381.56        34.05458
382.01        33.88468
382.46        33.44144
382.91        32.81852
383.36        32.20963
383.81        31.87814
384.26        31.86515
384.71        32.08382
385.15        32.39643
385.60        32.56699
386.05        32.51758
386.50        32.31477
386.95        32.02675
387.40        31.76261
387.85        31.56179
388.29        31.37111
388.74        31.20945
389.19        31.02886
389.64        30.82201
390.09        30.60688
390.54        30.41181
390.98        30.26965
391.43        30.20693
391.88        30.20473
392.33        30.22556
392.78        30.21809
393.23        30.16988
393.67        30.07636
394.12        29.99977
394.57        29.97382
395.02        30.00395
395.47        30.06979
395.91        30.13161
396.36        30.10933
396.81        30.00572
397.26        29.85357
397.71        29.70077
398.15        29.63484
398.60        29.70032
399.05        29.73753
399.50         29.7378
399.95        29.91251
400.39        30.15189
400.84        29.93608
401.29        29.34628
401.74        28.98437
402.18        28.91289
402.63        28.80362
403.08        28.66041
403.53        28.61387
403.97        28.65588
404.42        28.76136
404.87        28.86686
405.32        28.86337
405.76        28.72872
406.21        28.50675
406.66        28.28299
407.11        28.19854
407.55        28.29003
408.00        28.50093
408.45        28.74791
408.90        28.86607
409.34         28.8023
409.79        28.61477
410.24        28.38192
410.68        28.20554
411.13        28.12172
411.58        28.09951
412.03        28.10189
412.47        28.07172
412.92        27.98683
413.37        27.88235
413.81        27.79464
414.26        27.79773
414.71        27.89017
415.15        28.05325
415.60        28.22444
416.05        28.32508
416.49        28.33027
416.94         28.2598
417.39        28.15374
417.83        28.07255
418.28         28.0349
418.73        28.01857
419.17        28.01909
419.62        28.03012
420.07        28.04584
420.51        28.06666
420.96        28.07915
421.41        28.05248
421.85        27.97488
422.30        27.84505
422.74        27.68621
423.19        27.65715
423.64        27.72492
424.08        27.70591
424.53        27.59008
424.98        27.57317
425.42        27.67494
425.87        27.71194
426.31        27.69192
426.76        27.82829
427.21        28.04389
427.65        27.94504
428.10        27.62174
428.54        27.52752
428.99        27.70009
429.44        27.93833
429.88         28.1452
430.33        28.18014
430.77         28.0575
431.22        28.05997
431.66        28.18252
432.11        28.19867
432.56        28.12585
433.00        28.07947
433.45        27.99587
433.89        27.93144
434.34        27.91327
434.78        27.33718
435.23        27.26063
435.67        27.19416
436.12        27.37473
436.57        27.44184
437.01        27.37803
437.46        27.37636
437.90        27.42411
438.35        27.39889
438.79        27.30663
439.24        27.25028
439.68        27.23481
440.13        27.22808
440.57        27.25501
441.02        27.33885
441.46        27.46005
441.91        27.65301
442.35        27.82376
442.80        27.85293
443.24        27.74384
443.69        27.67821
444.13        27.66951
444.58        27.63109
445.02        27.56957
445.47        27.56072
445.91        27.59795
446.36        27.63891
446.80        27.67103
447.24        27.70769
447.69        27.74731
448.13        27.77456
448.58        27.79156
449.02        27.79132
449.47        27.77537
449.91        27.73568
450.36         27.6829
450.80        27.61462
451.25        27.55283
451.69        27.51099
452.13        27.49734
452.58        27.50308
453.02         27.5176
453.47        27.52723
453.91        27.52543
454.36        27.51981
454.80        27.49943
455.24        27.44703
455.69        27.37184
456.13        27.26342
456.58        27.17147
457.02        27.12868
457.46        27.15257
457.91        27.23122
458.35        27.30843
458.79         27.3046
459.24        27.22781
459.68        27.08975
460.13        26.97206
460.57        26.93348
461.01        27.00665
461.46        27.14404
461.90        27.32109
462.34        27.47714
462.79        27.57683
463.23        27.64414
463.68        27.64933
464.12        27.56348
464.56        27.39188
465.01        27.18673
465.45        26.96864
465.89        26.83827
466.34        26.80742
466.78        26.84261
467.22        26.92416
467.67         26.9877
468.11        27.02617
468.55        27.04721
468.99        27.04781
469.44         27.0208
469.88        26.97268
470.32        26.89865
470.77          26.832
471.21        26.83259
471.65        26.90771
472.10        27.04543
472.54        27.18987
472.98        27.26042
473.42        27.23918
473.87        27.15691
474.31         27.0512
474.75        27.00646
475.20        27.04605
475.64        27.13372
476.08        27.23104
476.52         27.2647
476.97        27.21999
477.41        27.13587
477.85        27.06101
478.29        27.03338
478.74        27.08974
479.18         27.2731
479.62        27.51493
480.06        27.65946
480.50        27.68795
480.95        27.64014
481.39        27.53274
481.83        27.65124
482.27        27.60147
482.72        27.69682
483.16         27.8231
483.60        27.90857
484.04        27.93582
484.48        28.09816
484.93        28.39676
485.37        28.07131
485.81        28.19792
486.25        28.05813
486.69        28.71096
487.14        28.69683
487.58        28.76111
488.02        29.01389
488.46        28.37056
488.90        28.79709
489.34        28.94846
489.79        29.21271
490.23         29.2065
490.67         29.1771
491.11        29.15921
491.55        29.09316
491.99        29.02918
492.43        29.01826
492.88        29.08316
493.32         29.2327
493.76        29.44226
494.20        29.65694
494.64         29.8639
495.08        30.05674
495.52        30.21263
495.96         30.3959
496.41        30.58099
496.85        30.52642
497.29         30.2942
497.73        30.50856
498.17         30.7201
498.61         30.8432
499.05        30.74478
499.49        30.72882
499.93        30.74867
500.37        30.96545
500.82         31.2832
501.26        31.46091
501.70         31.4662
502.14        31.43496
502.58        31.43742
503.02        31.52304
503.46        31.71004
503.90         31.9796
504.34        32.25293
504.78        32.40035
505.22        32.39183
505.66        32.26828
506.10        32.11156
506.54        32.05204
506.98        32.12365
507.42        32.28667
507.86        32.48332
508.30        32.61868
508.74        32.66523
509.18        32.65663
509.62        32.62904
510.06        32.63776
510.50        32.69997
510.94        32.79364
511.38        32.90158
511.82        33.00025
512.26        33.07918
512.70        33.14577
513.14        33.20284
513.58        33.25262
514.02        33.29673
514.46        33.33353
514.90        33.35923
515.34        33.37052
515.78        33.36769
516.22        33.35122
516.66        33.33446
517.10        33.33722
517.54        33.36262
517.98        33.40717
518.42        33.44682
518.86        33.44262
519.30        33.38903
519.74        33.29889
520.18        33.20784
520.62        33.17109
521.06        33.20074
521.50        33.28139
521.93        33.37852
522.37        33.42341
522.81        33.40395
523.25        33.33836
523.69        33.26128
524.13        33.22789
524.57        33.24682
525.01        33.29259
525.45        33.33544
525.89        33.32809
526.32        33.25713
526.76        33.15652
527.20         33.0337
527.64        32.90214
528.08        32.77355
528.52        32.63993
528.96        32.53881
529.40        32.52869
529.83        32.60981
530.27         32.7663
530.71        32.91597
531.15        32.92952
531.59        32.78287
532.03        32.51509
532.46        32.21523
532.90         32.0482
533.34        32.04541
533.78        32.14007
534.22        32.25656
534.66        32.31724
535.09        32.27144
535.53         32.0866
535.97         31.8328
536.41        31.70019
536.85        31.71898
537.28        31.79971
537.72        31.91199
538.16        32.03314
538.60        32.14192
539.04        32.24815
539.47        32.33175
539.91        32.38142
540.35        32.39204
540.79         32.3665
541.22        32.33664
541.66        32.36731
542.10         32.4665
542.54          32.618
542.97          32.778
543.41        32.88963
543.85        32.93697
544.29         32.9464
544.72        32.94697
545.16        33.00437
545.60        33.12746
546.04        33.29925
546.47        33.50612
546.91        33.71988
547.35        33.92357
547.79        34.12596
548.22        34.31525
548.66        34.46555
549.10        34.61596
549.53        34.75459
549.97        34.89715
550.41        34.99323
550.84        35.08472
551.28        35.26267
551.72        35.48567
552.15        35.71426
552.59        35.98117
553.03        35.77101
553.46        36.16896
553.90        36.25301
554.34        36.34194
554.77        36.42977
555.21        36.53988
555.65          36.679
556.08        36.83199
556.52        36.97934
556.96        37.09314
557.39        37.22869
557.83        37.35582
558.27        37.27562
558.70        37.06071
559.14        37.05069
559.57        37.23994
560.01        37.41429
560.45        37.54644
560.88         37.6945
561.32        37.85816
561.75        38.03568
562.19        38.19738
562.63        38.16293
563.06        37.98925
563.50        37.98558
563.93        38.12432
564.37        38.21622
564.80        38.27511
565.24        38.35085
565.68        38.35655
566.11        38.90883
566.55        38.60677
566.98        38.65789
567.42         38.7187
567.85         38.8385
568.29        39.03122
568.72        39.32822
569.16        39.74241
569.60        39.95639
570.03          40.076
570.47        40.41114
570.90        40.67156
571.34         40.3976
571.77        40.79934
572.21        41.05261
572.64        41.10416
573.08         41.2641
573.51         41.1095
573.95        41.22662
574.38        41.54658
574.82        41.83898
575.25        41.54385
575.69        41.64339
576.12        41.97871
576.56         41.6682
576.99        41.74251
577.42        41.85152
577.86        41.83486
578.29        42.73151
578.73        42.37517
579.16        42.28074
579.60        41.82168
580.03        41.88899
580.47        41.99414
580.90        41.95787
581.33        41.96225
581.77        42.35744
582.20        41.90093
582.64        41.82397
583.07        41.60458
583.51        41.36231
583.94        41.19626
584.37        41.16533
584.81        41.26276
585.24        41.21777
585.68        41.07352
586.11        40.80098
586.54        40.90208
586.98        40.61346
587.41        40.11559
587.85        40.31396
588.28        40.40194
588.71        40.31861
589.15        39.96041
589.58        40.34006
590.01        40.01646
590.45        39.90149
590.88        40.34804
591.31        40.26337
591.75        39.98968
592.18        39.77461
592.61        39.71181
593.05        40.44788
593.48        40.85711
593.91        40.79341
594.35        40.68682
594.78        40.35874
595.21        40.16238
595.65        40.47463
596.08        41.26865
596.51        41.51732
596.94        41.08471
597.38        41.09064
597.81        41.52078
598.24        41.91675
598.68        41.88522
599.11        42.22872
599.54        43.15254
599.97        43.14576
600.41        43.33687
600.84        43.27798
601.27        43.89904
601.70        44.37391
602.14        44.78046
602.57        45.10178
603.00        45.46505
603.43        45.39323
603.87        46.57868
604.30        47.01316
604.73        47.27277
605.16        47.26134
605.60        47.47187
606.03        47.79416
606.46        48.30811
606.89        48.57202
607.32        49.29407
607.76        49.67089
608.19        50.11456
608.62        50.40499
609.05        50.70934
609.48        51.03496
609.92        52.02995
610.35        52.09472
610.78        51.92602
611.21         52.1523
611.64        52.53087
612.07         53.0037
612.50        53.16228
612.94        53.45895
613.37        53.77465
613.80         54.1678
614.23        54.09008
614.66        54.35375
615.09        54.80365
615.52        55.18792
615.96        55.43335
616.39        55.78273
616.82        56.13008
617.25        56.02768
617.68        56.28933
618.11        56.56606
618.54        57.04639
618.97        57.29641
619.40        57.32126
619.84        57.61172
620.27        57.70701
620.70        58.00068
621.13         58.2505
621.56        58.00048
621.99        57.36048
622.42        57.21683
622.85         57.6724
623.28        57.63025
623.71        57.65277
624.14        58.24585
624.57        58.51976
625.00        58.23848
625.43        58.55593
625.86        58.39209
626.29        58.27175
626.72        57.66545
627.15        57.91539
627.58         57.7198
628.01        57.69226
628.44        57.71341
628.87        57.04404
629.30        56.66685
629.73        56.38426
630.16        56.24125
630.59        56.09821
631.02        55.97937
631.45        55.82487
631.88        55.61509
632.31        55.31889
632.74        55.04842
633.17        54.52472
633.60        54.05758
634.03        53.58276
634.46        53.08432
634.89        52.58337
635.32        52.13492
635.75        51.75254
636.18        51.36935
636.61        50.98513
637.04        50.62143
637.47        50.26948
637.89         49.9208
638.32        49.54928
638.75        49.14668
639.18         48.7173
639.61         48.3052
640.04        47.96276
640.47        47.56637
640.90        47.44513
641.33        47.32639
641.76        47.24889
642.18        47.11516
642.61        46.89316
643.04        46.61346
643.47        46.33794
643.90        46.17572
644.33        46.15094
644.76        46.23205
645.18        46.36035
645.61        46.42712
646.04        46.41264
646.47        46.35731
646.90        46.31977
647.33        46.37981
647.75        46.54306
648.18        46.83474
648.61          47.237
649.04        47.52784
649.47        47.64609
649.89        48.40031
650.32        48.51458
650.75        48.87894
651.18        49.16986
651.61        49.71144
652.03        50.45902
652.46         51.0285
652.89        51.41381
653.32        51.86279
653.74        52.49344
654.17        52.91223
654.60        53.34371
655.03        54.12746
655.46        53.65522
655.88        54.22295
656.31        57.07426
656.74        59.95668
657.16        60.27366
657.59        59.58207
658.02        57.76756
658.45        57.89711
658.87        58.16848
659.30        57.88784
659.73        59.05969
660.15        59.94841
660.58        59.66343
661.01        59.71933
661.44        59.82482
661.86        59.94677
662.29         60.0504
662.72        60.84877
663.14        61.11349
663.57        61.43676
664.00        61.55204
664.42        61.92328
664.85        62.56785
665.27        63.20047
665.70        63.66491
666.13        63.93681
666.55         63.9798
666.98        63.67878
667.41         63.1888
667.83         63.2398
668.26        63.24231
668.69        63.61391
669.11        64.07426
669.54        64.47776
669.96        64.76902
670.39        65.05139
670.82        65.32654
671.24        65.42994
671.67        65.43902
672.09        65.62135
672.52         65.9689
672.94        66.24847
673.37         66.4138
673.80        66.44861
674.22        66.41542
674.65        66.46928
675.07        66.64866
675.50        66.82577
675.92        66.98742
676.35         67.0985
676.77        67.15804
677.20        67.18462
677.62        67.23386
678.05        67.31988
678.47        67.57268
678.90        67.86597
679.32        68.17707
679.75        68.41965
680.17        68.56632
680.60        68.66084
681.02        68.72688
681.45         68.7759
681.87        68.85793
682.30        68.99725
682.72        69.20023
683.15         69.4429
683.57        69.69123
684.00        69.79993
684.42        69.82643
684.85        70.01187
685.27        70.36651
685.70        70.75153
686.12         71.0677
686.54        71.30535
686.97        71.45193
687.39        71.26556
687.82        71.17526
688.24        71.21478
688.66        71.44819
689.09        71.46053
689.51        71.29712
689.94         71.3187
690.36         71.5404
690.78        71.73587
691.21        71.88382
691.63        72.03934
692.06        72.19539
692.48         72.3483
692.90        72.46086
693.33        72.48321
693.75         72.4157
694.17        72.24574
694.60        72.09891
695.02        72.19781
695.44        72.54814
695.87        73.06376
696.29        73.58293
696.71         73.6915
697.14        73.43015
697.56         73.2514
697.98         73.2813
698.41        73.36648
698.83        73.52548
699.25        73.95379
699.68        74.46811
700.10        74.71609
700.52        74.60786
700.94        74.27023
701.37        73.90378
701.79        73.83544
702.21        74.13316
702.64        74.66969
703.06        75.28152
703.48         75.6823
703.90        75.78786
704.33        75.69558
704.75        75.49598
705.17        75.32204
705.59        75.23466
706.01        75.18896
706.44        75.20826
706.86        75.34814
707.28        75.58935
707.70        75.94289
708.12        76.33448
708.55        76.57824
708.97        76.66785
709.39        76.73027
709.81        76.79652
710.23        76.84918
710.66        76.90125
711.08        76.99794
711.50        77.09464
711.92        77.12093
712.34        77.07478
712.76        76.99962
713.19        76.91409
713.61        76.88834
714.03        76.92809
714.45         77.0197
714.87        77.18153
715.29        77.44598
715.71        77.79939
716.13        78.20979
716.56        78.58575
716.98        78.87888
717.40        79.01479
717.82         79.0145
718.24        78.88976
718.66        78.67673
719.08        78.43563
719.50        78.14401
719.92        77.85735
720.34        77.81364
720.76        78.06654
721.19        77.89865
721.61        78.46118
722.03        78.75914
722.45        79.08765
722.87        79.41359
723.29        79.66201
723.71        79.69575
724.13        79.49609
724.55        79.12713
724.97        78.71715
725.39        78.49184
725.81        78.51618
726.23        78.70142
726.65        78.97668
727.07         79.3961
727.49        79.62483
727.91        79.92001
728.33        80.17397
728.75        80.35635
729.17        80.45542
729.59        80.46397
730.01        80.42361
730.43        80.40515
730.85        80.43378
731.27        80.50575
731.69        80.58071
732.10        80.59206
732.52        80.51959
732.94        80.37406
733.36        80.25533
733.78        80.15472
734.20        80.08425
734.62        80.32252
735.04        81.20049
735.46        80.32327
735.88        80.40181
736.30        80.51235
736.72        81.48778
737.13        82.18203
737.55        82.38084
737.97        82.51098
738.39        82.51598
738.81        81.93092
739.23         81.0521
739.65        81.06246
740.06        81.81971
740.48        82.16177
740.90        82.00982
741.32        82.07777
741.74        82.40226
742.16        82.65535
742.57        82.81742
742.99        82.95142
743.41        83.02798
743.83        82.98241
744.25        82.82419
744.67         82.5668
745.08        82.32413
745.50        82.26135
745.92        82.41179
746.34        82.69638
746.75        83.02116
747.17        83.18961
747.59        83.16296
748.01        83.10835
748.42        83.02162
748.84        82.73161
749.26         82.3857
749.68        82.29303
750.09        82.50964
750.51        83.00653
750.93         83.5273
751.35        83.59235
751.76        83.30866
752.18        82.55228
752.60        82.93961
753.01        82.71841
753.43        82.37557
753.85        82.19204
754.27        82.21752
754.68        82.39673
755.10        82.65211
755.52        82.82761
755.93        82.90478
756.35        83.04768
756.77        83.32527
757.18        83.55779
757.60        83.73586
758.02        84.23188
758.43        84.86507
758.85        84.26287
759.26        84.17961
759.68        83.43131
760.10        82.95992
760.51         83.5301
760.93         84.4501
761.34        84.10462
761.76        84.38093
762.18        84.26509
762.59        84.66743
763.01        83.94601
763.42        85.09825
763.84        85.18888
764.26        85.07623
764.67        84.97691
765.09        84.97919
765.50        84.92346
765.92         84.8151
766.33        84.61156
766.75        84.27417
767.16        84.06533
767.58        84.01529
768.00        84.00845
768.41        84.11773
768.83         84.6474
769.24        85.33472
769.66        85.49738
770.07        85.15989
770.49        84.59685
770.90        84.16239
771.32        84.81068
771.73        86.22003
772.15        86.74355
772.56        86.26611
772.97        85.55499
773.39        84.95406
773.80        84.95998
774.22        85.49734
774.63        85.83108
775.05        85.79529
775.46        85.86206
775.88        85.95499
776.29        85.93813
776.70        85.56633
777.12        85.53143
777.53        85.78422
777.95        86.12777
778.36        86.49157
778.77        86.67853
779.19        86.65883
779.60        86.67091
780.02        86.63815
780.43        86.24694
780.84        85.71483
781.26        85.29304
781.67        85.19468
782.09        86.16296
782.50         87.6808
782.91        87.63342
783.33        86.22332
783.74        85.73588
784.15         86.2669
784.57        86.62136
784.98        86.69588
785.39         86.4381
785.81        86.06144
786.22        86.70349
786.63        88.06921
787.04        88.38291
787.46        87.68705
787.87        87.36927
788.28        87.56922
788.70        87.58912
789.11        87.43071
789.52        87.63073
789.93        88.04593
790.35         87.9575
790.76        87.45517
791.17        87.30639
791.58         87.5618
792.00        87.57793
792.41        87.35278
792.82        87.55513
793.23        88.03242
793.65        87.61047
794.06        86.61163
794.47        86.80968
794.88        87.99741
795.29        88.44077
795.71        88.02189
796.12        87.89047
796.53        88.10712
796.94        87.93118
797.35        87.53228
797.76        87.87959
798.18        88.81241
798.59        89.31077
799.00        89.24811
799.41        89.17504
799.82        89.16242
800.23        89.09269
800.64         88.9923
801.06        88.84397
801.47        88.71384
801.88        88.60464
802.29        88.52021
802.70        88.46676
803.11        88.41055
803.52        88.28979
803.93        88.12344
804.34        87.94728
804.75        87.83688
805.17        88.00117
805.58         88.5242
805.99        88.98317
806.40        89.33715
806.81        90.31258
807.22        91.47463
807.63         91.0373
808.04        89.34821
808.45        88.56889
808.86        88.91216
809.27        89.26582
809.68        89.39126
810.09        89.39776
810.50        89.21317
810.91        88.82724
811.32        88.48167
811.73        88.54941
812.14        89.09772
812.55        90.01409
812.96         90.9868
813.37        91.42731
813.78        91.16763
814.19        90.42289
814.60        89.50672
815.01         88.8455
815.42        88.54968
815.83        88.49277
816.24        88.60998
816.65        88.77493
817.05         88.9325
817.46        89.11289
817.87        89.29627
818.28        89.37276
818.69        89.33062
819.10        89.15449
819.51        88.98661
819.92        89.10526
820.33        89.55413
820.74        90.23167
821.14        90.89846
821.55        91.16964
821.96        90.95966
822.37        90.37503
822.78        89.64078
823.19        89.16217
823.60        89.07507
824.00        89.29836
824.41        89.66035
824.82        90.01038
825.23        90.25627
825.64        90.44141
826.04        90.58721
826.45        90.66994
826.86        90.71173
827.27        90.71004
827.68        90.63612
828.08          90.495
828.49        90.24008
828.90        89.90549
829.31        89.62943
829.72        89.62868
830.12        89.96855
830.53         90.5235
830.94        91.07027
831.35        91.15886
831.75        90.71023
832.16        89.84384
832.57        88.88982
832.97        88.34708
833.38        88.34692
833.79        88.70618
834.20        89.25866
834.60        89.73824
835.01        90.04865
835.42        90.32868
835.82        90.54003
836.23        90.50524
836.64        90.26199
837.04        89.80447
837.45        89.43144
837.86        89.72138
838.26         90.7965
838.67        92.44332
839.08        94.12095
839.48        94.79007
839.89        94.17376
840.29        92.63295
840.70        90.94502
841.11        90.00996
841.51        90.06393
841.92        90.80515
842.33          91.913
842.73        92.81504
843.14        93.14822
843.54        93.15643
843.95        92.97221
844.35        92.87226
844.76        92.91559
845.17         92.9951
845.57        93.02399
845.98        92.84724
846.38         92.4735
846.79        91.97578
847.19        91.49751
847.60        91.21663
848.00        91.19032
848.41        91.31709
848.81        91.53655
849.22        91.64033
849.62        91.61839
850.03        91.51833
850.43        91.36841
850.84        91.12366
851.24        90.86069
851.65        90.49346
852.05        90.27689
852.46        90.49558
852.86        91.17875
853.27        92.20792
853.67        93.14663
854.07        93.55752
854.48        93.33423
854.88        92.63774
855.29        91.70825
855.69        91.17784
856.10        91.15571
856.50        91.58065
856.90        92.15272
857.31        92.39333
857.71        92.23086
858.12        91.72119
858.52        91.15414
858.92        90.85812
859.33        90.90623
859.73        91.24121
860.13        91.58857
860.54        91.53137
860.94        91.03719
861.34         90.2435
861.75        89.43101
862.15        89.10424
862.55        89.36285
862.96        89.99743
863.36        90.84265
863.76        91.49577
864.17        91.78975
864.57        91.86705
864.97         91.7035
865.38        91.27933
865.78        90.67083
866.18        89.86613
866.58        89.07954
866.99        88.70753
867.39        88.88422
867.79        89.49908
868.19        90.28406
868.60        90.77269
869.00        90.87003
869.40        90.64726
869.80        90.27219
870.21        90.08132
870.61        90.26036
871.01        90.63898
871.41        90.95653
871.81        90.85347
872.22        90.26413
872.62        89.29922
873.02        88.32057
873.42          87.925
873.82         88.2597
874.22        89.14954
874.63        90.11932
875.03         90.4323
875.43        89.90863
875.83        88.77872
876.23        87.53896
876.63         86.9473
877.03        87.18458
877.44        88.01182
877.84        89.01826
878.24        89.45628
878.64        89.11474
879.04        88.19681
879.44        87.19427
879.84        86.87173
880.24        87.35815
880.64        88.37239
881.04        89.43177
881.44        89.76138
881.84        89.17253
882.24        87.94682
882.65        86.55248
883.05        85.69681
883.45        85.58358
883.85        86.00541
884.25        86.67928
884.65        87.12505
885.05        87.18716
885.45        87.03198
885.85        86.82674
886.25        86.81154
886.65        87.05096
887.05        87.43492
887.45         87.8606
887.85        88.18333
888.25        88.34099
888.65        88.37307
889.04        88.32173
889.44        88.28606
889.84        88.27322
890.24        88.25002
890.64        88.17202
891.04        87.97849
891.44        87.67465
891.84         87.3194
892.24        86.98132
892.64        86.73734
893.04        86.63146
893.44        86.67965
893.83        86.89371
894.23        87.21929
894.63        87.65028
895.03        88.13771
895.43        88.71178
895.83         89.4379
896.23        90.25674
896.63        91.07565
897.02        91.63938
897.42        91.59162
897.82        90.90083
898.22        89.76469
898.62        88.47053
899.01        87.42542
899.41        86.79866
899.81        86.48049
900.21        86.47394
900.61          86.761
901.00          87.275
901.40        87.99592
901.80         88.7248
902.20         89.1294
902.59        89.14618
902.99        88.83722
903.39        88.37069
903.79        88.05085
904.18        87.95977
904.58        88.00907
904.98        88.18316
905.38        88.46474
905.77        88.82544
906.17         89.3147
906.57        89.74899
906.96        89.81436
907.36         89.4463
907.76        88.74469
908.15        88.08575
908.55        88.04853
908.95        88.75362
909.34        90.03139
909.74        91.38892
910.14        92.11848
910.53        91.98739
910.93        91.22664
911.33        90.15221
911.72        89.24339
912.12        88.73434
912.52        88.48769
912.91        88.36974
913.31        88.21638
913.70        87.97665
914.10        87.69427
914.49        87.55697
914.89        87.73563
915.29        88.28795
915.68        89.15264
916.08        89.97829
916.47        90.29121
916.87        90.00407
917.26        89.22583
917.66        88.43486
918.05        88.17897
918.45        88.58578
918.84        89.54404
919.24        90.61514
919.64         91.1885
920.03        91.10172
920.42        90.50068
920.82        89.83604
921.21        89.74456
921.61        90.34184
922.00        91.47786
922.40        92.67529
922.79        93.28973
923.19        93.08796
923.58        92.32207
923.98        91.39217
924.37        90.78143
924.77        90.64106
925.16        90.75659
925.55        90.97483
925.95        91.01958
926.34        90.81739
926.74        90.46047
927.13        89.94798
927.52        89.17914
927.92        88.26508
928.31        87.26876
928.70        86.42219
929.10        86.04137
929.49        86.17358
929.89        86.63789
930.28        87.45109
930.67        88.47733
931.07        89.54762
931.46        90.74451
931.85        91.61945
932.24        91.53252
932.64        90.48345
933.03        88.66859
933.42        86.86765
933.82        86.22424
934.21        86.97341
934.60        88.84328
934.99        91.14642
935.39        92.60156
935.78        92.83795
936.17         92.0813
936.56        90.86828
936.96        90.05764
937.35        89.89785
937.74        90.13324
938.13        90.34351
938.53        89.92291
938.92        88.78534
939.31        87.24696
939.70        85.81681
940.09        85.17252
940.49        85.41548
940.88        86.36666
941.27        87.65258
941.66        88.58344
942.05        88.92197
942.44        88.87989
942.84        88.69277
943.23        88.74178
943.62        89.13609
944.01        89.65996
944.40        90.26875
944.79        90.93678
945.18        91.57873
945.57        92.20875
945.97        92.51154
946.36        92.08042
946.75        90.85568
947.14        89.09711
947.53        87.29784
947.92        86.14217
948.31        85.80359
948.70        86.11514
949.09        86.88251
949.48         87.7371
949.87        88.50107
950.26        89.23214
950.65        89.89629
951.04        90.45816
951.43        90.88129
951.82        91.08845
952.21        91.06595
952.60        90.84289
952.99        90.48542
953.38        90.09315
953.77        89.71957
954.16         89.4227
954.55        89.23116
954.94         89.0911
955.33        89.17286
955.72        89.74808
956.11        90.80846
956.50        92.26807
956.89        93.55538
957.28        93.72228
957.66        92.59578
958.05        90.56417
958.44        88.42845
958.83        87.34743
959.22        87.55934
959.61        88.74072
960.00         90.3438
960.39        91.32376
960.78        91.30952
961.16        90.61198
961.55        89.68938
961.94        89.08198
962.33        88.97591
962.72        89.22775
963.11        89.66783
963.49        90.05835
963.88        90.17387
964.27        90.07518
964.66        90.05832
965.04        90.59624
965.43        91.67815
965.82        93.22753
966.21        94.51414
966.60        94.19404
966.98        92.02101
967.37        88.67219
967.76        85.39054
968.15        83.69963
968.53         83.8651
968.92        85.50504
969.31        87.85689
969.69        89.34877
970.08         89.2997
970.47        88.20045
970.86        86.91389
971.24        86.68837
971.63        87.79575
972.02        89.82877
972.40        92.10155
972.79        92.93758
973.17        91.94908
973.56         89.8104
973.95         87.4453
974.33        86.00014
974.72        85.74161
975.11        86.27694
975.49        87.35826
975.88        88.36057
976.26        89.06269
976.65        89.59402
977.04        89.88243
977.42         89.7653
977.81        89.22684
978.19        88.23954
978.58        87.22633
978.96        86.90337
979.35         87.3787
979.74        88.52801
980.12        89.89902
980.51        90.36403
980.89        89.79802
981.28        88.55151
981.66        87.21944
982.05        86.65199
982.43        87.04027
982.82        88.04846
983.20        89.54072
983.59        91.05811
983.97        92.45915
984.35        93.82474
984.74         94.7256
985.12        94.73028
985.51        93.74911
985.89        91.94105
986.28        90.12478
986.66        89.47249
987.04        90.30244
987.43        92.28625
987.81        94.71651
988.20        95.93975
988.58        95.46349
988.96        93.64886
989.35        91.36134
989.73        89.79987
990.12        89.25146
990.50        89.44093
990.88        89.74783
991.27        89.13609
991.65        87.45918
992.03        85.19442
992.42         83.2625
992.80        82.80198
993.18        84.06553
993.56        86.72657
993.95        89.88615
994.33        92.04655
994.71        92.46082
995.10        91.62814
995.48          90.338
995.86        89.94022
996.24        90.75726
996.63        92.15033
997.01        93.82217
997.39        94.70015
997.77         94.3351
998.15        93.29456
998.54        91.64352
998.92        89.21827
999.30        86.34595
999.68        83.17805
1000.06        80.70827
1000.45        80.31133
1000.83        82.31627
1001.21        86.52144
1001.59        91.84398
1001.97        95.49433
1002.35        96.26068
1002.73        94.81721
1003.12         92.6272
1003.50         91.6288
1003.88        92.41132
1004.26        94.23181
1004.64        96.56342
1005.02        98.28411
1005.40        98.81705
1005.78        98.77634
1006.16        97.89075
1006.54        95.63538
1006.92         92.3052
1007.30        88.20219
1007.69        84.76105
1008.07        83.87953
1008.45        86.05491
1008.83        90.89515
1009.21        97.05707
1009.59        101.0436
1009.97         101.112
1010.35        98.20245
1010.73        93.62323
1011.11        89.36304
1011.49        86.23538
1011.86        83.76745
1012.24        82.24376
1012.62        81.94192
1013.00        82.79962
1013.38        84.90233
1013.76        87.80269
1014.14        90.06091
1014.52         90.8655
1014.90        90.34708
1015.28        88.99917
1015.66        87.71612
1016.04        86.76858
1016.41        85.92825
1016.79        85.09835
1017.17        84.29449
1017.55        83.53497
1017.93        82.92326
1018.31        82.50852
1018.69        82.22832
1019.06        82.10581
1019.44        82.19242
1019.82        82.29828
1020.20        82.05054
1020.58         81.3709
1020.95        80.20624
1021.33        79.41589
1021.71        79.89809
1022.09        81.81709
1022.46        85.39451
1022.84        89.34902
1023.22        90.64584
1023.60         88.2391
1023.97        82.96679
1024.35        78.13491
1024.73        77.61109
