SpectraSmart Spectrum 2.9.0.0
--------- Device Information -----------
Spectrum Name :  反射率_0
Saving Time :  2024/04/26 23:31:27
Spectro-Module Model Name : SE2030-DUVN
Spectro-Module Serial Number : OS361AC55029948
Wavelength Start : 200
Wavelength End : 1025
Wavelength Unit : Wavelength(nm)
Spectrum Unit : Reflectance(%)
-----------Spectrum Setting ------------
Integration Time : 20ms
Average : 10
Boxcar : 0
Background removal :  enabled
linearity correction :  enabled
SC :  disabled
Intensity correction :  disabled
DWT denoise :  enabled
savitzky-golay :  disabled
FFT :  disabled
Running average :  disabled
Kalman :  disabled
High pass :  disabled
---------------BEGIN--------------------
Wavelength(nm)             Reflectance(%)
200.29               0
200.75        41.60867
201.21        42.91205
201.67        44.68486
202.13        46.48275
202.58        48.30053
203.04        50.63647
203.50        54.23203
203.96        59.71621
204.42        66.73784
204.88        74.79798
205.34        80.64851
205.80        79.79258
206.26        72.53608
206.72        61.61295
207.18        52.20993
207.64        48.36491
208.10        50.14719
208.55        57.82863
209.01         70.0733
209.47        77.09615
209.93        73.44988
210.39         65.3835
210.85        59.38993
211.31         59.0868
211.77        65.30227
212.23        82.03121
212.69        125.2791
213.14        197.9992
213.60        193.9233
214.06        143.2986
214.52        108.8564
214.98        92.28986
215.44         83.7392
215.90        76.96174
216.36        72.68022
216.81        73.32964
217.27        80.22143
217.73        96.63577
218.19        119.8171
218.65        128.3007
219.11        114.8287
219.57         93.6067
220.02        79.95944
220.48        82.23932
220.94        99.77132
221.40        134.7299
221.86         186.246
222.32        221.1447
222.77        210.1713
223.23        175.0824
223.69        140.6902
224.15        121.2353
224.61        114.2581
225.06        112.7228
225.52        114.5777
225.98        117.5565
226.44        121.0895
226.90        126.2545
227.36        132.0628
227.81         136.112
228.27         137.976
228.73        137.6674
229.19        137.1774
229.65        139.2734
230.10        143.9116
230.56        150.2449
231.02        155.6187
231.48        155.8873
231.93        150.7374
232.39         142.993
232.85        135.3515
233.31        131.2393
233.77        131.0258
234.22        133.2762
234.68        136.9662
235.14         140.588
235.60         143.407
236.05        146.1105
236.51        147.5332
236.97        145.8143
237.43        140.5787
237.88        132.2854
238.34        123.0831
238.80        117.0059
239.26          115.35
239.71        118.5022
240.17        125.1382
240.63        131.4376
241.08        134.8549
241.54         134.896
242.00        133.6545
242.46        135.8788
242.91        145.1797
243.37           161.9
243.83         186.183
244.28        206.3045
244.74        204.1368
245.20        180.5395
245.66        152.6544
246.11        134.5086
246.57        126.3325
247.03        123.7919
247.48        121.4672
247.94        112.4639
248.40        99.51931
248.85        87.54916
249.31        79.30532
249.77        75.10784
250.22        73.84644
250.68        74.48363
251.14        76.94437
251.59        80.34076
252.05        83.73161
252.51        87.57201
252.96        89.94165
253.42        89.96764
253.88        88.27909
254.33        85.07127
254.79        83.99563
255.25        88.06617
255.70        96.64985
256.16         108.484
256.62        118.6309
257.07        119.5185
257.53        113.4166
257.99        105.2206
258.44        98.67049
258.90        97.28719
259.35        99.47134
259.81        103.7971
260.27        108.2987
260.72        110.5945
261.18        110.8077
261.63        109.4959
262.09        108.0471
262.55        107.0159
263.00        106.3338
263.46         106.032
263.91        105.4842
264.37        104.5841
264.83        103.2713
265.28        101.6851
265.74        100.4612
266.19        99.81014
266.65        99.86421
267.11        100.2798
267.56        100.7542
268.02        100.8505
268.47        100.3971
268.93        99.61102
269.38        98.45118
269.84        96.99013
270.30        95.29668
270.75        93.36305
271.21        91.57903
271.66        90.40741
272.12        89.92359
272.57        89.92068
273.03        89.98125
273.48        89.36282
273.94        88.01476
274.39        86.13036
274.85        84.18084
275.31        82.54304
275.76        81.27609
276.22        80.33039
276.67        79.52386
277.13        78.84885
277.58        78.13106
278.04        77.43695
278.49        76.62899
278.95        75.73235
279.40        74.64641
279.86        73.53432
280.31        72.24979
280.77        70.84085
281.22        69.26698
281.68        67.69953
282.13        66.26375
282.59        65.33524
283.04        64.84343
283.50        64.70932
283.95        64.63054
284.41        64.19492
284.86         63.2934
285.32        62.12073
285.77        60.86361
286.22        59.90545
286.68        59.31384
287.13        58.90703
287.59        58.55378
288.04        57.96756
288.50        57.14746
288.95        56.15202
289.41        55.15536
289.86        54.26918
290.32        53.58943
290.77          53.024
291.22        52.53981
291.68        52.06248
292.13        51.54422
292.59        51.03726
293.04        50.57582
293.50        50.25265
293.95        50.06769
294.40        49.99073
294.86        49.96203
295.31        49.87382
295.77        49.71369
296.22        49.49868
296.68        49.29275
297.13        49.15966
297.58        49.13094
298.04        49.19316
298.49        49.29696
298.95        49.39666
299.40        49.46068
299.85         49.4945
300.31        49.54995
300.76        49.67967
301.21        49.88835
301.67        50.16799
302.12        50.38286
302.58        50.41339
303.03        50.21437
303.48        49.86712
303.94        49.53154
304.39         49.3909
304.84        49.49317
305.30        49.77416
305.75        50.07458
306.20        50.22167
306.66        50.18642
307.11        50.01751
307.57         49.7983
308.02        49.58456
308.47        49.42133
308.93        49.28491
309.38        49.18065
309.83        49.18632
310.29        49.29752
310.74        49.48731
311.19        49.64758
311.65         49.5921
312.10        49.28213
312.55        48.77678
313.00        48.22721
313.46         47.8606
313.91        47.71117
314.36        47.72825
314.82        47.78476
315.27        47.68597
315.72        47.38161
316.18        46.95288
316.63        46.50573
317.08        46.22161
317.53        46.13693
317.99        46.17637
318.44        46.24977
318.89        46.20184
319.35        45.98639
319.80        45.65435
320.25        45.26447
320.70        44.90893
321.16        44.61942
321.61        44.38768
322.06        44.18748
322.51         43.9818
322.97        43.75723
323.42        43.53491
323.87        43.35594
324.32        43.29023
324.78         43.3257
325.23        43.45369
325.68        43.55954
326.13        43.46748
326.59        43.14001
327.04        42.65081
327.49        42.11781
327.94         41.7346
328.39        41.55094
328.85        41.49496
329.30        41.54318
329.75        41.56137
330.20         41.5033
330.66        41.40235
331.11        41.29033
331.56        41.18239
332.01        41.08836
332.46        40.98268
332.92        40.85474
333.37        40.76382
333.82        40.69791
334.27         40.6634
334.72        40.63413
335.17         40.5577
335.63        40.42456
336.08        40.27497
336.53         40.1559
336.98        40.16037
337.43        40.30276
337.88         40.5358
338.34        40.79618
338.79        41.02067
339.24        41.15558
339.69        41.22453
340.14        41.19445
340.59        41.02075
341.05        40.73009
341.50        40.34113
341.95        39.97658
342.40        39.82193
342.85         39.9137
343.30        40.20214
343.75        40.56462
344.20        40.79179
344.66        40.82682
345.11        40.72439
345.56        40.56838
346.01        40.49842
346.46        40.55418
346.91         40.6855
347.36        40.83747
347.81        40.93448
348.26        40.95071
348.72        40.90978
349.17        40.84144
349.62         40.8043
350.07        40.81189
350.52        40.85374
350.97        40.86759
351.42        40.75788
351.87        40.51854
352.32        40.18952
352.77         39.8863
353.22        39.77325
353.67        39.87596
354.13        40.14338
354.58        40.44613
355.03        40.56348
355.48         40.4375
355.93        40.13105
356.38        39.77617
356.83        39.57623
357.28        39.56769
357.73        39.67131
358.18        39.76962
358.63        39.67718
359.08        39.35137
359.53        38.87296
359.98        38.32743
360.43        37.82993
360.88        37.42156
361.33        37.07166
361.78        36.77717
362.23        36.53703
362.68        36.34408
363.13        36.20292
363.58        36.08981
364.03         35.9586
364.48        35.79434
364.93        35.60167
365.38        35.38785
365.83         35.1757
366.28        34.97286
366.73        34.76676
367.18         34.5656
367.63         34.3823
368.08        34.21519
368.53        34.06628
368.98        33.90389
369.43        33.67344
369.88        33.36928
370.33        33.00947
370.78         32.6493
371.23         32.3846
371.68         32.2379
372.13        32.17673
372.58        32.14688
373.03        32.05854
373.48        31.88265
373.93        31.64563
374.38        31.36581
374.83        31.07713
375.28        30.79678
375.72        30.50619
376.17        30.24046
376.62        30.01443
377.07        29.83434
377.52        29.70992
377.97        29.61246
378.42        29.49417
378.87        29.34686
379.32        29.17233
379.77        29.02988
380.22        29.00986
380.67        29.11506
381.11        29.32134
381.56        29.49497
382.01        29.44252
382.46        29.13258
382.91        28.64836
383.36        28.14378
383.81        27.82915
384.26        27.74251
384.71        27.81659
385.15        27.95815
385.60        28.01017
386.05          27.923
386.50         27.7479
386.95        27.53255
387.40        27.34885
387.85        27.22128
388.29        27.10692
388.74        27.02157
389.19        26.92575
389.64        26.81094
390.09        26.68515
390.54        26.56372
390.98        26.46306
391.43        26.40186
391.88        26.36756
392.33        26.33516
392.78        26.26914
393.23        26.16655
393.67        26.03026
394.12        25.91224
394.57        25.83768
395.02        25.81024
395.47        25.80711
395.91        25.81703
396.36        25.80727
396.81        25.78207
397.26        25.75924
397.71        25.71984
398.15        25.65206
398.60        25.58971
399.05        25.42861
399.50        25.24529
399.95        25.33703
400.39        25.63253
400.84        25.65781
401.29        25.39532
401.74        25.21949
402.18        25.14491
402.63        24.92482
403.08        24.64172
403.53        24.53524
403.97        24.62784
404.42        24.85407
404.87        25.08963
405.32        25.13292
405.76        24.93948
406.21        24.58797
406.66        24.21189
407.11        24.01898
407.55        24.06433
408.00        24.27548
408.45        24.54243
408.90        24.65588
409.34         24.5538
409.79        24.31512
410.24         24.0459
410.68        23.88667
411.13        23.87721
411.58        23.96561
412.03        24.09417
412.47        24.16755
412.92        24.14615
413.37        24.07601
413.81         23.9882
414.26        23.94625
414.71        23.95514
415.15         23.9945
415.60        24.04404
416.05        24.09669
416.49         24.1447
416.94        24.19241
417.39        24.21931
417.83        24.18808
418.28        24.09755
418.73        23.95615
419.17        23.81867
419.62        23.77607
420.07        23.84446
420.51        23.98741
420.96        24.14319
421.41        24.20855
421.85        24.15395
422.30        24.00882
422.74        23.81533
423.19        23.74091
423.64        23.76723
424.08        23.72234
424.53        23.60605
424.98        23.59947
425.42        23.71695
425.87        23.81129
426.31        23.85602
426.76        23.94919
427.21        24.02888
427.65        23.84673
428.10        23.50322
428.54        23.35822
428.99         23.4534
429.44         23.6432
429.88        23.84082
430.33        23.90082
430.77        23.82779
431.22        23.87317
431.66        24.01909
432.11         24.0376
432.56        23.93625
433.00        23.84293
433.45        23.73836
433.89        23.65876
434.34        23.64921
434.78         23.3834
435.23        23.50628
435.67        23.50935
436.12        23.54309
436.57        23.47909
437.01        23.34133
437.46        23.26315
437.90        23.25255
438.35        23.22999
438.79         23.1861
439.24        23.16314
439.68         23.1608
440.13        23.17429
440.57        23.19819
441.02        23.24345
441.46        23.30256
441.91        23.30602
442.35        23.26051
442.80        23.41094
443.24        23.65757
443.69        23.59894
444.13        23.28451
444.58        23.16208
445.02        23.25196
445.47        23.31355
445.91        23.32363
446.36        23.36028
446.80         23.4085
447.24        23.44923
447.69        23.47066
448.13        23.44387
448.58        23.37259
449.02        23.26585
449.47        23.15219
449.91         23.0635
450.36         23.0183
450.80        23.00446
451.25        23.01841
451.69        23.03654
452.13        23.05336
452.58        23.06808
453.02        23.08063
453.47        23.09393
453.91        23.10749
454.36        23.12455
454.80        23.12452
455.24        23.07684
455.69        22.98794
456.13        22.85338
456.58        22.74169
457.02        22.71844
457.46        22.80221
457.91        22.97112
458.35        23.13486
458.79        23.15786
459.24        23.03682
459.68         22.8049
460.13        22.58541
460.57         22.5059
461.01        22.60891
461.46        22.83159
461.90        23.10358
462.34        23.28885
462.79        23.33506
463.23        23.28876
463.68        23.17604
464.12        23.05715
464.56        22.95448
465.01        22.87715
465.45        22.79645
465.89        22.73816
466.34        22.70196
466.78          22.682
467.22        22.68405
467.67        22.69216
468.11        22.71278
468.55         22.7353
468.99        22.75044
469.44         22.7419
469.88         22.7102
470.32        22.66169
470.77        22.60837
471.21        22.57409
471.65        22.56317
472.10        22.56861
472.54        22.58742
472.98        22.62237
473.42        22.66748
473.87        22.72767
474.31        22.76608
474.75        22.74762
475.20        22.67638
475.64        22.55974
476.08         22.4441
476.52        22.38888
476.97        22.40855
477.41        22.49674
477.85        22.62764
478.29        22.72344
478.74        22.78298
479.18        22.87537
479.62        22.98843
480.06        23.06497
480.50         23.1046
480.95        23.10784
481.39        23.06293
481.83        23.16371
482.27        23.07278
482.72        23.10083
483.16        23.16468
483.60        23.12201
484.04        23.09163
484.48        23.16126
484.93        23.43728
485.37        23.22519
485.81        23.31496
486.25        23.96187
486.69        23.87354
487.14        24.12682
487.58        24.09577
488.02        24.31028
488.46        23.99452
488.90        24.08481
489.34         23.9354
489.79         24.0023
490.23        24.12312
490.67        24.24253
491.11        24.33198
491.55        24.31907
491.99        24.23878
492.43        24.22899
492.88        24.30921
493.32        24.39191
493.76        24.47107
494.20        24.59849
494.64        24.77851
495.08        24.94493
495.52         25.0798
495.96        25.31539
496.41        25.58761
496.85        25.52757
497.29        25.21872
497.73        25.35505
498.17        25.58542
498.61         25.7853
499.05        25.80304
499.49        25.82912
499.93         25.8115
500.37        25.92109
500.82        26.11728
501.26        26.24792
501.70        26.29899
502.14        26.36837
502.58        26.47385
503.02        26.59045
503.46        26.71748
503.90        26.85979
504.34        26.98712
504.78        27.05001
505.22        27.04039
505.66        26.97416
506.10        26.89262
506.54        26.86197
506.98        26.90015
507.42         26.9906
507.86        27.10435
508.30        27.19217
508.74        27.23865
509.18        27.25727
509.62        27.26773
510.06        27.30147
510.50        27.36583
510.94        27.44858
511.38        27.52966
511.82        27.57899
512.26         27.5908
512.70        27.57745
513.14        27.56137
513.58        27.57714
514.02        27.63372
514.46        27.71945
514.90        27.81515
515.34        27.89115
515.78        27.93603
516.22        27.95414
516.66        27.95618
517.10        27.95951
517.54        27.96917
517.98        27.98248
518.42        27.98347
518.86        27.94781
519.30        27.87513
519.74        27.77645
520.18        27.68698
520.62        27.65882
521.06        27.70212
521.50        27.80316
521.93        27.92054
522.37        27.97584
522.81        27.95352
523.25        27.87179
523.69        27.77578
524.13        27.73785
524.57        27.76996
525.01        27.84344
525.45        27.91167
525.89        27.90074
526.32        27.79298
526.76        27.62851
527.20        27.44236
527.64        27.28895
528.08        27.18829
528.52        27.12324
528.96        27.09554
529.40        27.10777
529.83        27.15074
530.27          27.224
530.71        27.29388
531.15        27.30806
531.59        27.25568
532.03        27.14801
532.46         27.0141
532.90        26.92296
533.34        26.88569
533.78        26.86886
534.22        26.85098
534.66        26.83066
535.09        26.78124
535.53        26.65691
535.97        26.48523
536.41        26.37624
536.85        26.34513
537.28        26.33696
537.72        26.35323
538.16        26.41604
538.60        26.51762
539.04         26.6487
539.47        26.77418
539.91        26.85793
540.35        26.88663
540.79        26.87193
541.22        26.84169
541.66        26.85194
542.10        26.91313
542.54        27.01084
542.97        27.11941
543.41        27.20935
543.85        27.27025
544.29         27.3195
544.72        27.36815
545.16         27.4494
545.60         27.5661
546.04        27.71114
546.47        27.88216
546.91        28.07082
547.35        28.26606
547.79        28.46661
548.22        28.65911
548.66         28.8177
549.10        28.97231
549.53        29.11567
549.97         29.2527
550.41        29.32721
550.84        29.37401
551.28        29.47409
551.72        29.61176
552.15        29.78452
552.59        30.02579
553.03        29.89666
553.46         30.2831
553.90        30.38104
554.34        30.45115
554.77        30.50118
555.21         30.5678
555.65         30.6842
556.08        30.84344
556.52        31.01434
556.96        31.16423
557.39        31.32899
557.83        31.47474
558.27        31.43354
558.70        31.25707
559.14        31.21712
559.57        31.31449
560.01        31.38241
560.45        31.41098
560.88        31.48301
561.32        31.60892
561.75        31.73238
562.19        31.84742
562.63        31.93691
563.06        31.99162
563.50        32.02256
563.93        32.01977
564.37        32.05243
564.80        32.14048
565.24        32.18898
565.68        32.13284
566.11        32.56823
566.55        32.32474
566.98        32.38204
567.42        32.44688
567.85        32.56736
568.29        32.75811
568.72        33.02023
569.16        33.35789
569.60        33.60157
570.03        33.86226
570.47        34.09431
570.90        34.32041
571.34        34.38346
571.77        34.56361
572.21        34.67654
572.64        34.79726
573.08        34.82999
573.51        34.83028
573.95        35.01716
574.38        35.40501
574.82        35.40517
575.25        35.24617
575.69        35.19928
576.12        35.32997
576.56        35.35382
576.99        35.34103
577.42        35.52815
577.86        35.60064
578.29        36.09825
578.73         35.9925
579.16        35.83691
579.60        35.39048
580.03        35.33836
580.47        35.24046
580.90        35.63956
581.33        35.68887
581.77        35.71527
582.20         35.4464
582.64        35.58125
583.07        35.33556
583.51        35.04554
583.94        34.64493
584.37        34.57455
584.81        34.83628
585.24        34.80927
585.68        34.53559
586.11        34.33421
586.54        34.34299
586.98        34.09078
587.41        33.92395
587.85        33.81572
588.28        33.84152
588.71         33.8951
589.15        33.70923
589.58        33.62747
590.01         33.7176
590.45        33.50023
590.88        34.02498
591.31        33.93843
591.75        33.65847
592.18        33.48531
592.61        33.48565
593.05        33.99589
593.48        34.51013
593.91        34.20185
594.35        34.38139
594.78           34.13
595.21        33.97169
595.65        34.22739
596.08        34.87665
596.51        35.00687
596.94        34.53045
597.38        34.51759
597.81        34.98194
598.24        35.33346
598.68        35.61073
599.11        35.77983
599.54        36.53814
599.97        36.39306
600.41        36.75666
600.84        36.70253
601.27        37.12566
601.70        37.45907
602.14         37.7883
602.57        38.05486
603.00        38.36214
603.43        38.36157
603.87        39.47965
604.30        39.84564
604.73        39.95134
605.16        40.09597
605.60        40.52638
606.03        40.75555
606.46        40.79438
606.89        41.48146
607.32        42.30608
607.76        42.35809
608.19        43.03572
608.62        43.26574
609.05        43.59203
609.48        43.82541
609.92        44.59716
610.35        44.67038
610.78        44.69388
611.21        45.09098
611.64        45.26688
612.07        45.73217
612.50        46.01248
612.94        46.26535
613.37        46.35298
613.80        46.84975
614.23        46.51878
614.66        46.78867
615.09        47.27849
615.52        47.71323
615.96        48.00379
616.39        48.31972
616.82        48.68311
617.25         48.6367
617.68        48.80737
618.11        49.05472
618.54        49.50732
618.97        49.80981
619.40        49.94049
619.84         50.1223
620.27        50.20972
620.70        50.38036
621.13        50.52811
621.56        50.37582
621.99        50.00421
622.42        49.93601
622.85        49.96483
623.28        50.23866
623.71        50.57384
624.14        50.69616
624.57        50.94374
625.00        50.59122
625.43        50.88112
625.86        50.81567
626.29        50.81453
626.72        50.18445
627.15         50.4112
627.58        50.26278
628.01        50.11333
628.44        49.90849
628.87        49.54733
629.30        49.20312
629.73        48.88506
630.16        48.63722
630.59        48.46455
631.02        48.37546
631.45        48.31854
631.88        48.15348
632.31        47.83971
632.74        47.55839
633.17        47.06387
633.60        46.60216
634.03        46.11811
634.46        45.61196
634.89         45.1043
635.32        44.64431
635.75        44.24724
636.18        43.85588
636.61        43.47677
637.04        43.13878
637.47         42.8325
637.89        42.54094
638.32        42.22335
638.75        41.86049
639.18        41.45376
639.61        41.01715
640.04        40.59377
640.47        40.24691
640.90         39.9919
641.33        39.81643
641.76        39.68911
642.18        39.56144
642.61        39.40641
643.04         39.2397
643.47        39.09098
643.90        39.00785
644.33        38.99723
644.76        39.04307
645.18        39.10044
645.61         39.0883
646.04        39.00045
646.47        38.87189
646.90        38.77166
647.33        38.79918
647.75        38.96628
648.18          39.285
648.61        39.72171
649.04        40.06367
649.47        40.25084
649.89        40.95441
650.32         41.0948
650.75        41.48636
651.18        41.83952
651.61        42.27311
652.03        42.78452
652.46        43.33319
652.89        43.88722
653.32        44.24727
653.74        44.53888
654.17         44.8983
654.60        45.54845
655.03         45.9722
655.46        46.11366
655.88        46.63631
656.31        49.22348
656.74        51.86783
657.16        52.25839
657.59        52.01387
658.02        50.12891
658.45        49.97484
658.87        50.07423
659.30        50.87088
659.73         50.6907
660.15          51.743
660.58        51.42026
661.01        51.70858
661.44        51.97803
661.86        51.95798
662.29        51.71313
662.72         52.2501
663.14        52.56236
663.57        52.90606
664.00        53.02141
664.42        53.37518
664.85        53.97447
665.27        54.56875
665.70        55.03349
666.13        55.33527
666.55        55.45579
666.98        55.34941
667.41        55.11918
667.83        55.29538
668.26        55.34875
668.69        55.69424
669.11        56.10009
669.54        56.44309
669.96        56.68195
670.39        56.90817
670.82        57.12677
671.24        57.18562
671.67        57.15396
672.09        57.31064
672.52        57.64043
672.94        57.84025
673.37        57.90587
673.80        58.00782
674.22        58.16869
674.65        58.30779
675.07        58.43906
675.50        58.57026
675.92        58.70101
676.35          58.821
676.77        58.93224
677.20        59.03333
677.62         59.1389
678.05        59.27136
678.47        59.43256
678.90          59.627
679.32        59.83959
679.75        60.01277
680.17        60.12423
680.60        60.26625
681.02        60.49282
681.45        60.43209
681.87        60.80577
682.30        61.05685
682.72        61.34753
683.15        61.46846
683.57        61.45302
684.00        61.48204
684.42        61.59899
684.85        61.75255
685.27        61.94401
685.70        62.23823
686.12        62.55478
686.54         62.7459
686.97        62.78318
687.39        62.70748
687.82        62.57642
688.24         62.5378
688.66        62.60971
689.09        62.67577
689.51        62.73502
689.94        62.86377
690.36        63.06636
690.78        63.20267
691.21        63.30986
691.63        63.64114
692.06         64.1132
692.48         64.3079
692.90        64.22119
693.33         64.2133
693.75        64.30022
694.17        64.23425
694.60        64.11028
695.02        64.19697
695.44        64.49445
695.87        64.94846
696.29        65.41929
696.71        65.44227
697.14        65.10667
697.56         65.0485
697.98        65.30961
698.41          65.464
698.83        65.47912
699.25        65.71009
699.68        66.04165
700.10        66.19265
700.52        66.10715
700.94        65.88486
701.37        65.66652
701.79        65.68226
702.21        65.97306
702.64        66.44374
703.06        66.96046
703.48        67.28872
703.90        67.36325
704.33        67.26217
704.75        67.07378
705.17        66.93195
705.59        66.89406
706.01        66.91885
706.44        67.01262
706.86        67.20519
707.28        67.47231
707.70        67.80471
708.12        68.15139
708.55        68.42272
708.97        68.59422
709.39        68.65669
709.81        68.64491
710.23        68.66345
710.66        68.73289
711.08        68.82682
711.50        68.90115
711.92        68.91723
712.34        68.87273
712.76        68.79935
713.19        68.71801
713.61        68.69836
714.03         68.7452
714.45        68.84415
714.87         69.0018
715.29        69.23134
715.71        69.51833
716.13        69.84028
716.56        70.12809
716.98        70.35962
717.40        70.47712
717.82        70.49764
718.24        70.42676
718.66        70.27837
719.08        70.08801
719.50        69.88173
719.92        69.72616
720.34        69.71693
720.76        69.86831
721.19        70.12635
721.61        70.48047
722.03        70.84042
722.45        71.15369
722.87        71.44843
723.29        71.66099
723.71        71.57389
724.13        71.38439
724.55        70.98119
724.97        70.55982
725.39        70.33842
725.81         70.3779
726.23         70.6124
726.65         70.9517
727.07        71.30399
727.49        71.51802
727.91        71.70844
728.33        71.86246
728.75        72.01178
729.17        72.16016
729.59        72.27364
730.01        72.34759
730.43        72.38786
730.85        72.39515
731.27        72.37891
731.69        72.33266
732.10        72.23946
732.52         72.1051
732.94        71.95831
733.36        71.86493
733.78        71.78685
734.20        71.72969
734.62        71.96632
735.04        72.53061
735.46        72.13196
735.88         72.8839
736.30        73.02011
736.72        73.22627
737.13         73.5549
737.55        73.91272
737.97        74.38152
738.39        74.76086
738.81        74.33492
739.23        73.36501
739.65        73.28658
740.06        74.01015
740.48        74.27673
740.90        74.02613
741.32        74.02788
741.74        74.32847
742.16        74.56895
742.57        74.72366
742.99        74.91659
743.41        75.08585
743.83        75.00034
744.25        74.70989
744.67        74.49193
745.08        74.42509
745.50        74.38345
745.92        74.39374
746.34        74.56511
746.75        74.81131
747.17        74.90287
747.59        74.81644
748.01        74.62783
748.42          74.417
748.84        74.36171
749.26         74.5088
749.68        74.63985
750.09        74.73265
750.51        75.13065
750.93        75.62518
751.35        75.41449
751.76        74.65416
752.18        74.31071
752.60        74.45318
753.01        74.58863
753.43        74.61714
753.85        74.62811
754.27        74.61102
754.68        74.57764
755.10        74.57917
755.52          74.689
755.93        74.89175
756.35        75.11315
756.77        75.37946
757.18        75.61989
757.60        75.81046
758.02        76.29071
758.43        76.80819
758.85        76.25211
759.26        75.27419
759.68        74.77695
760.10        75.01938
760.51        75.71189
760.93        76.59631
761.34        76.51324
761.76        76.68527
762.18        76.48103
762.59        76.46996
763.01        76.72169
763.42        77.19061
763.84        77.39063
764.26        77.24438
764.67        76.76432
765.09        76.20609
765.50        76.11203
765.92        76.44711
766.33        76.44617
766.75        76.01558
767.16        75.90693
767.58        76.10327
768.00        75.92252
768.41        75.56882
768.83        76.09793
769.24        77.19801
769.66        77.54655
770.07         77.1131
770.49        76.41765
770.90        75.86271
771.32        76.46554
771.73        77.91664
772.15        78.43118
772.56        77.88689
772.97        77.24451
773.39        76.77688
773.80        76.73866
774.22        76.83038
774.63        77.15935
775.05        77.42424
775.46        77.57214
775.88         77.5114
776.29        77.23412
776.70        76.90501
777.12         76.8741
777.53        77.20739
777.95         77.7193
778.36        78.28912
778.77        78.62796
779.19        78.67273
779.60        78.69547
780.02        78.65862
780.43          78.266
780.84         77.7594
781.26        77.50275
781.67        77.64024
782.09        78.59192
782.50        79.87987
782.91        79.79491
783.33        78.52278
783.74        77.97319
784.15        78.23673
784.57         78.3575
784.98         78.3575
785.39        77.83305
785.81        78.09568
786.22        78.66669
786.63        79.65488
787.04         80.0539
787.46        79.81152
787.87        79.47282
788.28        79.26359
788.70         79.1702
789.11        79.20995
789.52         79.7005
789.93        80.36502
790.35        80.09861
790.76        79.09967
791.17        78.85725
791.58        79.39935
792.00        79.46866
792.41         79.0582
792.82        79.12949
793.23        79.56152
793.65        79.38567
794.06        78.85228
794.47        79.01878
794.88        79.64738
795.29        80.78001
795.71        79.93324
796.12        79.93177
796.53        80.09958
796.94        79.80971
797.35        79.24437
797.76        79.41352
798.18        80.32062
798.59        80.74928
799.00        80.61876
799.41        80.53747
799.82        80.57404
800.23        80.56854
800.64        80.53847
801.06        80.48084
801.47        80.43922
801.88        80.39355
802.29        80.33546
802.70        80.25757
803.11        80.15584
803.52        80.02419
803.93        79.89453
804.34        79.79839
804.75        79.73682
805.17        79.81691
805.58        80.10818
805.99         80.1657
806.40        80.09455
806.81        81.00715
807.22          82.457
807.63        82.26771
808.04        80.68697
808.45        80.00479
808.86         80.3996
809.27        80.61982
809.68        80.52219
810.09        80.48123
810.50        80.47059
810.91        80.39051
811.32        80.37075
811.73        80.58449
812.14        81.04178
812.55         81.7804
812.96         82.5621
813.37        82.69289
813.78        82.17307
814.19        81.70655
814.60        81.41124
815.01         80.9983
815.42        80.52134
815.83        80.20449
816.24        80.10623
816.65        80.17727
817.05        80.41921
817.46        80.82491
817.87        81.26057
818.28        81.45371
818.69         81.3504
819.10         80.9884
819.51        80.56593
819.92        80.46307
820.33        80.77271
820.74        81.36967
821.14        82.01813
821.55        82.33163
821.96        82.21952
822.37        81.81219
822.78        81.28922
823.19        80.95297
823.60        80.90688
824.00        81.08026
824.41        81.34187
824.82        81.59897
825.23        81.78523
825.64        81.94446
826.04        82.05267
826.45        82.01434
826.86        81.84487
827.27        81.56821
827.68        81.26613
828.08        81.11993
828.49        81.12029
828.90        81.24117
829.31        81.45602
829.72        81.71288
830.12        82.00352
830.53        82.27628
830.94         82.4554
831.35        82.36211
831.75        81.99634
832.16        81.39228
832.57        80.76032
832.97        80.41145
833.38        80.42274
833.79        80.68494
834.20        81.08333
834.60        81.42468
835.01        81.64217
835.42        81.83779
835.82        81.98612
836.23        81.95024
836.64         81.7641
837.04         81.4212
837.45        81.15612
837.86        81.43019
838.26        82.33894
838.67        83.70004
839.08        85.06282
839.48        85.56346
839.89         84.9737
840.29        83.59473
840.70        82.09218
841.11        81.22217
841.51         81.1861
841.92        81.73637
842.33        82.60477
842.73        83.31184
843.14        83.55536
843.54        83.55231
843.95        83.43099
844.35        83.45483
844.76        83.66859
845.17        83.95479
845.57        84.21306
845.98        84.26822
846.38        84.10377
846.79        83.78593
847.19        83.40912
847.60        83.08473
848.00        82.87098
848.41        82.70538
848.81        82.61543
849.22        82.54614
849.62         82.5324
850.03        82.59264
850.43        82.69907
850.84        82.71607
851.24         82.6752
851.65        82.51257
852.05        82.46393
852.46        82.80035
852.86        83.53611
853.27        84.53384
853.67        85.38219
854.07        85.67046
854.48        85.30747
854.88        84.46247
855.29        83.36765
855.69         82.6216
856.10        82.35293
856.50        82.51136
856.90        82.87522
857.31        83.08281
857.71         83.0747
858.12        82.87901
858.52         82.6671
858.92        82.57848
859.33        82.63565
859.73         82.8277
860.13        82.97341
860.54        82.82132
860.94        82.38097
861.34        81.72601
861.75        81.09638
862.15         80.9274
862.55        81.28595
862.96        81.99573
863.36        82.84178
863.76        83.34468
864.17        83.34484
864.57        83.02086
864.97        82.46815
865.38        81.85229
865.78          81.291
866.18        80.72431
866.58        80.28265
866.99            80.2
867.39        80.53762
867.79        81.22285
868.19         82.0152
868.60        82.50117
869.00        82.60761
869.40        82.38985
869.80        82.01525
870.21        81.82767
870.61        82.01058
871.01        82.40223
871.41        82.76573
871.81        82.77294
872.22        82.35413
872.62        81.59846
873.02        80.80083
873.42         80.4461
873.82        80.65273
874.22        81.28251
874.63        81.92525
875.03        81.95107
875.43        81.22295
875.83        79.95708
876.23        78.63818
876.63         77.9968
877.03        78.20876
877.44        79.05187
877.84        80.11344
878.24        80.66277
878.64        80.46445
879.04        79.65034
879.44        78.72588
879.84        78.51266
880.24        79.13851
880.64        80.31359
881.04        81.46285
881.44        81.66722
881.84        80.73193
882.24        78.99335
882.65        77.13134
883.05        76.18089
883.45        76.40734
883.85        77.51134
884.25        78.95776
884.65         79.8333
885.05        79.86207
885.45        79.33073
885.85        78.63713
886.25        78.38131
886.65        78.71166
887.05        79.39898
887.45        80.16471
887.85        80.57891
888.25        80.50572
888.65        80.09808
889.04        79.55138
889.44        79.18079
889.84        79.06202
890.24        79.10355
890.64         79.1743
891.04        79.07423
891.44        78.76621
891.84        78.34751
892.24        77.96111
892.64        77.79623
893.04        77.90203
893.44        78.23122
893.83        78.68462
894.23        79.04002
894.63        79.25209
895.03        79.34289
895.43        79.43642
895.83        79.74799
896.23         80.2885
896.63        80.94403
897.02        81.47002
897.42          81.517
897.82        81.02745
898.22        80.17458
898.62        79.18851
899.01        78.39285
899.41        77.91879
899.81        77.66628
900.21        77.62322
900.61         77.7578
901.00        78.02661
901.40        78.44167
901.80        78.87324
902.20        79.09806
902.59        79.08196
902.99        78.85408
903.39        78.56926
903.79         78.4995
904.18        78.68616
904.58        79.03062
904.98        79.42389
905.38        79.70842
905.77        79.84668
906.17        79.93874
906.57        79.92989
906.96          79.733
907.36        79.35164
907.76         78.8131
908.15        78.41896
908.55         78.6228
908.95        79.49238
909.34        80.89989
909.74        82.32054
910.14        82.98066
910.53        82.65846
910.93        81.60758
911.33         80.2674
911.72        79.31661
912.12        79.02114
912.52        79.18645
912.91        79.56022
913.31        79.78819
913.70        79.76611
914.10        79.57338
914.49        79.45525
914.89         79.7026
915.29        80.38487
915.68        81.37438
916.08        82.23848
916.47        82.37199
916.87         81.6839
917.26        80.39291
917.66        79.04986
918.05        78.29123
918.45        78.28215
918.84        78.88396
919.24        79.75155
919.64        80.41871
920.03        80.72157
920.42        80.74319
920.82        80.71996
921.21        80.96912
921.61        81.52797
922.00        82.30066
922.40         82.9712
922.79        83.19397
923.19        82.84644
923.58        82.10612
923.98        81.25747
924.37        80.61456
924.77        80.29099
925.16        80.15668
925.55        80.14957
925.95        80.13419
926.34          80.077
926.74        80.01498
927.13        79.88492
927.52        79.50224
927.92        78.92398
928.31        78.20731
928.70        77.58078
929.10        77.36892
929.49        77.61838
929.89        78.15273
930.28        78.93917
930.67        79.77464
931.07        80.50773
931.46        81.26784
931.85        81.74872
932.24        81.52838
932.64        80.64188
933.03        79.19914
933.42        77.85155
933.82        77.55216
934.21        78.47346
934.60        80.39941
934.99        82.62993
935.39         83.8703
935.78        83.77738
936.17        82.59876
936.56        81.00857
936.96        80.08819
937.35        80.12421
937.74        80.79271
938.13         81.5386
938.53        81.51595
938.92        80.56113
939.31        79.05705
939.70        77.54617
940.09        76.76339
940.49        76.84627
940.88        77.58398
941.27        78.66699
941.66        79.53107
942.05        79.96301
942.44        80.14738
942.84        80.21371
943.23        80.35944
943.62        80.65509
944.01          80.949
944.40        81.28041
944.79        81.76225
945.18        82.36307
945.57         83.0587
945.97        83.52735
946.36        83.33775
946.75        82.39256
947.14        80.92342
947.53        79.37109
947.92        78.35323
948.31        78.01852
948.70        78.20454
949.09        78.70503
949.48         79.1449
949.87        79.37744
950.26        79.50475
950.65        79.57717
951.04        79.68127
951.43        79.84262
951.82        79.98889
952.21        80.10445
952.60        80.19294
952.99        80.27295
953.38        80.39467
953.77        80.55638
954.16        80.74913
954.55        80.95999
954.94        81.12825
955.33        81.34872
955.72        81.78282
956.11        82.42397
956.50        83.24139
956.89        83.83685
957.28        83.56039
957.66        82.32589
958.05        80.42947
958.44        78.55417
958.83        77.66785
959.22         77.9456
959.61        79.13139
960.00        80.63215
960.39        81.33301
960.78        80.88999
961.16         79.6424
961.55        78.22001
961.94        77.42848
962.33        77.48125
962.72        78.16451
963.11        79.12024
963.49        79.72009
963.88        79.63524
964.27        79.06976
964.66        78.48804
965.04        78.59302
965.43        79.46799
965.82        80.97582
966.21        82.45064
966.60        82.64379
966.98        81.24475
967.37        78.80809
967.76        76.38999
968.15        75.31285
968.53        75.81551
968.92        77.57067
969.31        79.79834
969.69        80.93237
970.08         80.3567
970.47        78.58458
970.86        76.65334
971.24        76.02261
971.63        76.98329
972.02        79.10938
972.40        81.52553
972.79        82.21163
973.17        80.68991
973.56        77.76466
973.95        74.61646
974.33        72.71249
974.72         72.3651
975.11        73.10223
975.49        74.49183
975.88        75.59746
976.26        76.09523
976.65         76.2378
977.04        76.17702
977.42        76.10117
977.81        76.05815
978.19        75.86581
978.58        75.74078
978.96        76.07427
979.35        76.86637
979.74        78.07517
980.12        79.28847
980.51         79.4787
980.89        78.59788
981.28        77.00429
981.66        75.36983
982.05        74.63559
982.43        75.01599
982.82         76.1712
983.20        77.94193
983.59        79.83729
983.97        81.63546
984.35        83.38815
984.74        84.57936
985.12        84.63667
985.51        83.45968
985.89         81.2871
986.28        78.97862
986.66         77.7698
987.04        78.01632
987.43        79.36568
987.81         81.3218
988.20        82.65981
988.58        82.93105
988.96        82.37357
989.35        81.32509
989.73        80.24035
990.12        79.29188
990.50        78.41135
990.88        77.48468
991.27        76.42688
991.65        75.32411
992.03        74.27293
992.42        73.71895
992.80        74.18165
993.18        75.73455
993.56        78.25813
993.95        80.89069
994.33        82.20296
994.71        81.60645
995.10        79.60765
995.48        77.25478
995.86        76.22504
996.24         76.9014
996.63        78.69024
997.01        81.06996
997.39        82.48653
997.77        82.31567
998.15        81.21189
998.54        79.52506
998.92        77.58867
999.30        75.73563
999.68        73.81824
1000.06        72.49238
1000.45        72.68952
1000.83        74.62047
1001.21        78.24944
1001.59         82.5125
1001.97          84.772
1002.35        84.08936
1002.73        81.23612
1003.12         78.0183
1003.50        76.77321
1003.88        78.09492
1004.26        81.19591
1004.64        85.18351
1005.02        88.07368
1005.40        88.91033
1005.78        88.46921
1006.16        86.79893
1006.54        83.96104
1006.92        80.43188
1007.30        76.31844
1007.69        72.96962
1008.07        72.16554
1008.45        74.37498
1008.83        79.35513
1009.21        85.73277
1009.59        89.87712
1009.97        89.99904
1010.35        86.96328
1010.73        82.35508
1011.11        78.59917
1011.49        76.46201
1011.86        75.27815
1012.24        74.77944
1012.62        74.52412
1013.00         74.3401
1013.38        74.45887
1013.76         74.9599
1014.14        75.78613
1014.52        76.78282
1014.90        77.71577
1015.28        78.32636
1015.66         78.4208
1016.04        78.01302
1016.41         77.2282
1016.79        76.17527
1017.17        75.20259
1017.55        74.49046
1017.93        73.95603
1018.31        73.75922
1018.69        74.09116
1019.06        74.98898
1019.44        76.51486
1019.82        78.13642
1020.20        78.58168
1020.58        77.43269
1020.95        74.99231
1021.33        72.62132
1021.71        71.74989
1022.09        72.62771
1022.46        75.27703
1022.84        78.53364
1023.22        79.64335
1023.60        77.62121
1023.97        73.18501
1024.35         69.2571
1024.73         69.2558
