SpectraSmart Spectrum 2.9.0.0
--------- Device Information -----------
Spectrum Name :  反射率_0
Saving Time :  2024/04/26 23:32:22
Spectro-Module Model Name : SE2030-DUVN
Spectro-Module Serial Number : OS361AC55029948
Wavelength Start : 200
Wavelength End : 1025
Wavelength Unit : Wavelength(nm)
Spectrum Unit : Reflectance(%)
-----------Spectrum Setting ------------
Integration Time : 20ms
Average : 10
Boxcar : 0
Background removal :  enabled
linearity correction :  enabled
SC :  disabled
Intensity correction :  disabled
DWT denoise :  enabled
savitzky-golay :  disabled
FFT :  disabled
Running average :  disabled
Kalman :  disabled
High pass :  disabled
---------------BEGIN--------------------
Wavelength(nm)             Reflectance(%)
200.29               0
200.75        39.93904
201.21        41.80404
201.67        43.57335
202.13        44.20827
202.58        43.60686
203.04        42.23079
203.50        40.82481
203.96        41.40617
204.42        45.11312
204.88        51.37696
205.34        57.89926
205.80        60.73596
206.26        58.97094
206.72        54.20144
207.18        48.96261
207.64         45.0466
208.10        42.35206
208.55         40.4128
209.01        38.50222
209.47        36.84407
209.93        36.34958
210.39         37.1718
210.85        39.01845
211.31        42.50239
211.77        49.07827
212.23        62.82881
212.69        96.83648
213.14        157.4701
213.60        160.9046
214.06        122.8577
214.52        94.29539
214.98        78.41164
215.44         67.7646
215.90          57.644
216.36        49.14408
216.81        45.03904
217.27        46.53909
217.73        54.93937
218.19        68.58943
218.65        74.37228
219.11        67.32026
219.57        55.95654
220.02        48.66591
220.48        50.10173
220.94        59.91705
221.40        78.83356
221.86         106.771
222.32        127.0332
222.77        123.2039
223.23        105.9322
223.69        86.92659
224.15        72.82283
224.61        63.42852
225.06        56.36046
225.52        51.78327
225.98        49.69438
226.44        49.60674
226.90        51.29396
227.36        53.78411
227.81        55.29384
228.27        55.43911
228.73        54.50602
229.19        53.48402
229.65        53.61579
230.10        54.95544
230.56        57.14872
231.02        59.06076
231.48        58.97404
231.93        56.75257
232.39        53.48246
232.85        50.58077
233.31        49.89558
233.77          51.521
234.22        54.76067
234.68        58.38711
235.14        60.55622
235.60         60.6909
236.05        59.29066
236.51        56.91586
236.97         54.9341
237.43        54.03435
237.88         53.9634
238.34        54.41811
238.80        55.07653
239.26        55.88134
239.71        57.51233
240.17         59.9926
240.63         63.4681
241.08        67.98878
241.54        72.73653
242.00        78.30376
242.46        86.76675
242.91        100.5284
243.37        121.5193
243.83        150.2003
244.28        174.0044
244.74        173.8751
245.20        149.7836
245.66        120.1617
246.11        101.1136
246.57        93.33264
247.03        92.25088
247.48        93.76349
247.94        91.57762
248.40        86.01846
248.85        80.40677
249.31        76.57522
249.77        74.74723
250.22        74.22996
250.68        73.90181
251.14        73.39809
251.59        72.36716
252.05        70.97763
252.51        70.28424
252.96        68.36259
253.42        63.52147
253.88        56.59365
254.33        48.78776
254.79        43.62165
255.25        43.83073
255.70        48.71227
256.16        56.66392
256.62        63.90085
257.07        64.78065
257.53        60.52898
257.99        54.64072
258.44        49.74474
258.90        48.11778
259.35        48.76786
259.81        50.68251
260.27        52.60603
260.72        53.08067
261.18        52.21593
261.63        50.51511
262.09        48.86617
262.55        47.73303
263.00        47.06863
263.46        46.75072
263.91        46.35762
264.37        45.64395
264.83        44.57937
265.28        43.29386
265.74         42.2006
266.19        41.53488
266.65        41.36192
267.11        41.48229
267.56        41.63408
268.02        41.40771
268.47        40.71774
268.93         39.7397
269.38        38.65643
269.84        37.79743
270.30        37.22987
270.75        36.82612
271.21        36.54388
271.66        36.27087
272.12        35.95999
272.57        35.62928
273.03        35.20904
273.48         34.5746
273.94        33.77296
274.39         32.8234
274.85        31.91787
275.31        31.19844
275.76         30.6743
276.22        30.33346
276.67        30.06207
277.13        29.77121
277.58        29.38865
278.04        28.96235
278.49        28.49222
278.95        28.08683
279.40        27.71177
279.86        27.39262
280.31         27.0194
280.77        26.53341
281.22        25.91137
281.68        25.25467
282.13        24.64203
282.59        24.24895
283.04        24.06623
283.50        24.04464
283.95         24.0885
284.41        24.05771
284.86        23.90546
285.32        23.69263
285.77        23.44357
286.22         23.2437
286.68        23.11374
287.13        23.00075
287.59        22.90034
288.04        22.77036
288.50         22.6248
288.95        22.45956
289.41        22.30419
289.86        22.14295
290.32        22.00258
290.77        21.86784
291.22        21.75853
291.68        21.69299
292.13        21.66607
292.59        21.68991
293.04        21.74978
293.50        21.84055
293.95        21.95391
294.40        22.09612
294.86        22.28291
295.31        22.53119
295.77        22.84654
296.22        23.21345
296.68         23.6091
297.13        23.98756
297.58        24.34081
298.04        24.67646
298.49        25.01511
298.95        25.40567
299.40         25.8457
299.85        26.31732
300.31        26.77596
300.76        27.14901
301.21        27.42487
301.67        27.63843
302.12         27.8167
302.58        28.05153
303.03         28.3356
303.48        28.65208
303.94        28.97047
304.39        29.21862
304.84        29.39267
305.30        29.53119
305.75        29.63142
306.20        29.73481
306.66        29.86154
307.11        29.98591
307.57        30.12303
308.02        30.25983
308.47        30.39368
308.93        30.52229
309.38        30.62257
309.83        30.70027
310.29        30.75329
310.74        30.78172
311.19        30.75402
311.65         30.6181
312.10        30.37258
312.55        30.03724
313.00        29.70703
313.46        29.52085
313.91         29.4881
314.36        29.57641
314.82        29.66682
315.27        29.57034
315.72        29.24704
316.18        28.77233
316.63        28.26307
317.08        27.91334
317.53        27.76694
317.99        27.75232
318.44        27.79361
318.89        27.75729
319.35        27.59915
319.80        27.36349
320.25        27.07345
320.70        26.76408
321.16        26.45267
321.61        26.13162
322.06        25.81738
322.51        25.54659
322.97        25.32223
323.42        25.14258
323.87        24.98682
324.32        24.81836
324.78        24.61503
325.23        24.39896
325.68        24.15132
326.13        23.85584
326.59        23.52235
327.04        23.17018
327.49        22.84529
327.94        22.62051
328.39        22.50458
328.85        22.46642
329.30        22.47441
329.75        22.42624
330.20        22.29148
330.66        22.09228
331.11         21.8722
331.56         21.6858
332.01        21.55205
332.46        21.45033
332.92        21.35769
333.37         21.2739
333.82        21.18082
334.27        21.08643
334.72        20.99365
335.17        20.90206
335.63        20.81004
336.08         20.7282
336.53        20.64472
336.98        20.55146
337.43        20.44465
337.88         20.3163
338.34        20.19028
338.79        20.12679
339.24        20.12922
339.69        20.19342
340.14         20.2438
340.59        20.15806
341.05        19.92685
341.50        19.58594
341.95        19.26269
342.40        19.15248
342.85        19.28805
343.30        19.60164
343.75        19.94976
344.20        20.09899
344.66        19.98993
345.11        19.69157
345.56        19.31946
346.01        19.05875
346.46        18.96588
346.91        18.98781
347.36        19.05639
347.81        19.06792
348.26        18.99551
348.72        18.88014
349.17        18.76877
349.62        18.73919
350.07        18.80574
350.52        18.93502
350.97        19.06564
351.42        19.10578
351.87        19.03397
352.32        18.88097
352.77        18.70551
353.22        18.59299
353.67         18.5624
354.13        18.58903
354.58        18.62524
355.03        18.59903
355.48        18.49316
355.93        18.33582
356.38        18.17003
356.83        18.05683
357.28        18.00747
357.73        17.99654
358.18        17.98952
358.63        17.93425
359.08        17.81591
359.53        17.65284
359.98        17.46614
360.43        17.28378
360.88        17.11492
361.33        16.95343
361.78        16.79393
362.23        16.62947
362.68        16.46384
363.13        16.30752
363.58        16.17155
364.03        16.06905
364.48        15.99945
364.93        15.95167
365.38        15.91821
365.83        15.88837
366.28        15.85413
366.73        15.81603
367.18        15.75719
367.63        15.65381
368.08         15.5042
368.53        15.31456
368.98        15.11697
369.43        14.96291
369.88        14.86404
370.33        14.80933
370.78        14.76369
371.23        14.66688
371.68        14.50646
372.13        14.30359
372.58        14.09955
373.03        13.95874
373.48        13.89524
373.93        13.88555
374.38        13.89461
374.83        13.86709
375.28        13.78777
375.72        13.67298
376.17        13.55052
376.62        13.44314
377.07        13.36065
377.52        13.29374
377.97        13.24419
378.42        13.21788
378.87        13.21115
379.32        13.21853
379.77        13.22818
380.22         13.2214
380.67        13.19106
381.11          13.143
381.56        13.06746
382.01        12.96691
382.46        12.85049
382.91        12.72609
383.36           12.61
383.81        12.52055
384.26        12.45972
384.71        12.42383
385.15         12.4027
385.60        12.38347
386.05        12.35866
386.50        12.32908
386.95        12.29794
387.40        12.27192
387.85        12.25078
388.29         12.2233
388.74        12.19516
389.19         12.1475
389.64        12.07908
390.09        11.99534
390.54        11.90999
390.98        11.84187
391.43        11.80687
391.88        11.80043
392.33        11.81032
392.78        11.81878
393.23        11.81977
393.67        11.80688
394.12        11.80533
394.57         11.8296
395.02        11.87853
395.47        11.94157
395.91        11.98911
396.36        11.96374
396.81        11.86726
397.26        11.72739
397.71        11.58573
398.15        11.50893
398.60        11.52241
399.05        11.55189
399.50        11.58842
399.95        11.70669
400.39        11.86024
400.84        11.84767
401.29        11.68233
401.74         11.5728
402.18         11.5374
402.63        11.45154
403.08        11.34487
403.53        11.31747
403.97        11.37606
404.42        11.49459
404.87         11.6167
405.32        11.64777
405.76        11.56662
406.21        11.40919
406.66         11.2364
407.11        11.14513
407.55         11.1609
408.00        11.24845
408.45        11.35935
408.90        11.40055
409.34        11.34578
409.79        11.23395
410.24        11.10775
410.68        11.02088
411.13        10.99177
411.58        10.99753
412.03        11.02891
412.47        11.07312
412.92        11.11372
413.37        11.15596
413.81        11.18473
414.26        11.18593
414.71        11.15576
415.15        11.10142
415.60        11.03287
416.05           10.98
416.49        10.95585
416.94        10.95294
417.39        10.97022
417.83        11.00361
418.28        11.04571
418.73        11.09324
419.17         11.1348
419.62        11.15184
420.07        11.13999
420.51         11.1024
420.96         11.0453
421.41        10.97832
421.85        10.90493
422.30        10.82387
422.74         10.7433
423.19         10.7233
423.64        10.74938
424.08        10.75404
424.53        10.72903
424.98        10.74486
425.42        10.80679
425.87        10.84117
426.31        10.85181
426.76        10.92811
427.21          11.037
427.65        11.01895
428.10        10.90269
428.54        10.85027
428.99        10.87677
429.44        10.93392
429.88        10.98342
430.33        10.92426
430.77        10.78837
431.22        10.78213
431.66        10.89559
432.11         10.9211
432.56        10.85668
433.00        10.85574
433.45        10.87648
433.89        10.76964
434.34        10.61857
434.78        10.36764
435.23        10.60751
435.67        10.66155
436.12        10.67475
436.57        10.67409
437.01        10.66045
437.46        10.64042
437.90        10.60933
438.35        10.53677
438.79        10.44491
439.24        10.40179
439.68        10.41551
440.13        10.46464
440.57        10.52484
441.02        10.56524
441.46         10.5731
441.91        10.53226
442.35        10.45957
442.80        10.47956
443.24        10.55215
443.69        10.49334
444.13        10.33118
444.58        10.27667
445.02        10.33814
445.47        10.40722
445.91        10.45833
446.36         10.5018
446.80        10.52526
447.24        10.52478
447.69        10.51085
448.13        10.49515
448.58        10.48569
449.02        10.48066
449.47        10.47517
449.91        10.45724
450.36        10.42875
450.80        10.39128
451.25        10.36532
451.69        10.37621
452.13         10.4255
452.58        10.50082
453.02        10.56953
453.47        10.58107
453.91        10.52678
454.36        10.42832
454.80        10.31434
455.24        10.22974
455.69        10.19252
456.13        10.17958
456.58        10.19739
457.02        10.23813
457.46        10.29826
457.91        10.37772
458.35        10.43954
458.79        10.42556
459.24        10.33945
459.68        10.19382
460.13        10.05159
460.57        9.978947
461.01        9.998363
461.46        10.07983
461.90        10.19035
462.34        10.26187
462.79        10.26949
463.23         10.2376
463.68        10.17919
464.12        10.12382
464.56        10.08153
465.01        10.05334
465.45        10.02608
465.89        10.01243
466.34         10.0116
466.78         10.0209
467.22        10.03833
467.67        10.04817
468.11        10.05233
468.55         10.0501
468.99        10.04536
469.44        10.04416
469.88        10.04849
470.32        10.05519
470.77        10.06601
471.21        10.08601
471.65        10.11363
472.10        10.15029
472.54        10.18351
472.98        10.19881
473.42        10.19364
473.87        10.17398
474.31        10.14917
474.75        10.14465
475.20        10.16646
475.64        10.20286
476.08        10.23878
476.52        10.24461
476.97        10.21615
477.41        10.17017
477.85        10.12821
478.29        10.10995
478.74        10.13193
479.18        10.20856
479.62        10.31588
480.06        10.40076
480.50        10.45112
480.95         10.4701
481.39        10.45951
481.83        10.52628
482.27        10.52287
482.72        10.57242
483.16        10.62104
483.60         10.6496
484.04        10.63908
484.48        10.64589
484.93        10.78078
485.37        10.78709
485.81        10.84881
486.25         11.3269
486.69        10.97585
487.14        10.45288
487.58         11.6314
488.02        11.57187
488.46        11.21253
488.90        11.24775
489.34        11.20904
489.79        11.37557
490.23        11.46532
490.67        11.61772
491.11        11.76732
491.55        11.77268
491.99        11.68551
492.43        11.71036
492.88        11.86565
493.32        12.02246
493.76        12.15606
494.20        12.29609
494.64        12.43689
495.08        12.54457
495.52        12.61503
495.96        12.72671
496.41        12.85564
496.85          12.813
497.29        12.65546
497.73        12.76454
498.17        12.96232
498.61        13.15291
499.05        13.24856
499.49        13.35222
499.93        13.42979
500.37        13.55869
500.82        13.71319
501.26         13.8149
501.70        13.85787
502.14        13.89093
502.58        13.94214
503.02        14.02911
503.46        14.15719
503.90        14.32337
504.34        14.48386
504.78        14.56423
505.22        14.54991
505.66        14.46395
506.10        14.36301
506.54        14.33759
506.98        14.40967
507.42        14.55302
507.86        14.72016
508.30        14.83176
508.74        14.86639
509.18        14.85042
509.62        14.81895
510.06        14.82835
510.50          14.893
510.94        14.98892
511.38        15.09559
511.82         15.1822
512.26         15.2382
512.70        15.27828
513.14        15.30144
513.58        15.30429
514.02        15.29129
514.46        15.26087
514.90        15.23724
515.34        15.26085
515.78        15.33639
516.22         15.4511
516.66        15.56599
517.10         15.6173
517.54        15.59079
517.98        15.50628
518.42        15.40025
518.86        15.33174
519.30         15.3182
519.74          15.343
520.18        15.38337
520.62        15.40343
521.06        15.39259
521.50        15.36219
521.93        15.32863
522.37        15.31098
522.81        15.31604
523.25        15.33415
523.69         15.3478
524.13        15.33204
524.57        15.28219
525.01        15.20697
525.45        15.12564
525.89        15.06901
526.32        15.04266
526.76        15.03932
527.20        15.04049
527.64        15.01875
528.08        14.96782
528.52        14.89819
528.96        14.82186
529.40        14.75673
529.83        14.70828
530.27        14.67087
530.71        14.63964
531.15         14.6092
531.59        14.57657
532.03        14.54226
532.46         14.5037
532.90        14.46669
533.34        14.42936
533.78        14.38386
534.22        14.32836
534.66        14.27764
535.09        14.22393
535.53        14.13826
535.97        14.03874
536.41        13.98932
536.85        13.99759
537.28         14.0332
537.72         14.0875
538.16        14.15594
538.60        14.22886
539.04        14.30269
539.47        14.36714
539.91        14.41704
540.35        14.44949
540.79        14.46943
541.22         14.4811
541.66        14.49784
542.10        14.52404
542.54        14.55869
542.97        14.60981
543.41        14.69411
543.85        14.81008
544.29        14.95413
544.72        15.10337
545.16        15.23329
545.60        15.33604
546.04        15.42135
546.47        15.51048
546.91        15.63559
547.35        15.80014
547.79         15.9899
548.22        16.18279
548.66        16.34364
549.10        16.48331
549.53        16.60462
549.97        16.71642
550.41        16.79349
550.84         16.8589
551.28        16.95871
551.72        17.08045
552.15        17.21778
552.59        17.39058
553.03        17.34656
553.46        17.61047
553.90        17.73233
554.34        17.86382
554.77         18.0011
555.21        18.14704
555.65        18.29107
556.08        18.42081
556.52        18.52657
556.96        18.60316
557.39        18.69524
557.83        18.79032
558.27        18.78263
558.70        18.69881
559.14        18.69345
559.57        18.76642
560.01         18.8248
560.45        18.86457
560.88        18.93684
561.32        19.04885
561.75        19.16297
562.19        19.27889
562.63        19.39298
563.06        19.49644
563.50        19.58968
563.93        19.65228
564.37        19.70452
564.80        19.75608
565.24        19.75921
565.68        19.68693
566.11        19.92346
566.55        19.76138
566.98        19.79668
567.42        19.85503
567.85        19.97299
568.29        20.15472
568.72        20.39568
569.16        20.69013
569.60         20.8985
570.03        21.08511
570.47        21.27025
570.90        21.46921
571.34          21.432
571.77        21.65504
572.21         21.6859
572.64        21.67731
573.08        21.92989
573.51        22.12752
573.95        22.32553
574.38        22.41095
574.82        22.64882
575.25        22.44697
575.69        22.50513
576.12        22.63909
576.56        22.73695
576.99        22.81759
577.42          22.749
577.86        22.77822
578.29        22.95477
578.73        22.75351
579.16        22.72516
579.60        22.55128
580.03        22.57468
580.47        22.46107
580.90        22.50998
581.33        22.44799
581.77        22.45368
582.20        22.12497
582.64         22.0021
583.07        21.91741
583.51         21.7883
583.94        21.68246
584.37        21.64163
584.81         21.6438
585.24         21.5179
585.68        21.34964
586.11        21.04646
586.54        21.11799
586.98        21.04091
587.41        20.98038
587.85        20.87551
588.28        20.70664
588.71        20.85816
589.15        20.70175
589.58        20.65521
590.01        20.69559
590.45        20.67704
590.88        20.64681
591.31        20.61866
591.75        20.65155
592.18        20.63718
592.61        20.53358
593.05        20.92817
593.48         21.1285
593.91         20.7145
594.35        20.85292
594.78         20.8514
595.21        21.08889
595.65        21.33162
596.08        21.60282
596.51        21.70345
596.94        21.73319
597.38        21.86342
597.81        22.13159
598.24        22.38307
598.68        22.62786
599.11        22.80872
599.54        23.23147
599.97         23.1577
600.41        23.76412
600.84        23.93926
601.27        24.37599
601.70         24.6253
602.14        25.05751
602.57        25.52584
603.00         26.1124
603.43        26.23413
603.87        26.91168
604.30        27.25196
604.73        27.63693
605.16        27.94907
605.60        28.48665
606.03        28.83214
606.46        29.11629
606.89        29.26981
607.32        30.32877
607.76        30.60891
608.19          31.027
608.62        31.24809
609.05        31.58046
609.48         32.0235
609.92         32.9327
610.35        33.23777
610.78        33.15337
611.21        33.37372
611.64        33.87169
612.07        34.33116
612.50        34.52359
612.94        34.85162
613.37        35.26112
613.80        35.50027
614.23        35.62407
614.66        35.98163
615.09         36.5406
615.52         36.9223
615.96        37.11605
616.39        37.40685
616.82        37.81017
617.25        38.13034
617.68        38.37103
618.11        38.71727
618.54        39.13319
618.97        39.37487
619.40         39.4559
619.84        39.72859
620.27        39.83231
620.70        40.09016
621.13        40.32538
621.56        40.17472
621.99        39.90353
622.42        39.83927
622.85         40.0725
623.28        40.26444
623.71        40.36703
624.14        40.60135
624.57        40.73584
625.00        40.76205
625.43        40.75412
625.86        40.67292
626.29        40.62786
626.72        40.06046
627.15        40.16729
627.58        39.93708
628.01        39.66849
628.44        39.51472
628.87         39.1767
629.30        38.80826
629.73        38.31978
630.16        38.29379
630.59        37.85384
631.02         37.6942
631.45        37.51732
631.88         37.2163
632.31        36.75004
632.74        36.40084
633.17         35.7677
633.60        35.23358
634.03        34.69342
634.46        34.15335
634.89        33.61762
635.32        33.10791
635.75         32.6339
636.18        32.15599
636.61         31.6896
637.04         31.2704
637.47        30.89382
637.89        30.54277
638.32        30.17812
638.75        29.77148
639.18        29.32326
639.61        28.85093
640.04        28.39959
640.47        28.03456
640.90        27.76983
641.33        27.58924
641.76        27.45806
642.18        27.32121
642.61        27.15517
643.04         26.9794
643.47        26.82329
643.90        26.73304
644.33        26.71976
644.76        26.76949
645.18        26.85172
645.61         26.9129
646.04        26.94518
646.47        26.96737
646.90        27.02425
647.33        27.17842
647.75          27.436
648.18        27.81138
648.61        28.26688
649.04        28.63724
649.47        28.88248
649.89        29.46924
650.32          29.665
650.75        30.17008
651.18        30.74913
651.61        31.37878
652.03        32.05813
652.46        32.67748
652.89        33.19741
653.32        33.84412
653.74        34.75042
654.17        34.73961
654.60        35.36008
655.03        36.30249
655.46        36.60238
655.88        36.92867
656.31        39.09694
656.74         40.5444
657.16        40.78856
657.59        41.24355
658.02        40.60171
658.45        41.45787
658.87        41.67252
659.30        42.37749
659.73        42.92841
660.15        43.96349
660.58        43.72663
661.01        44.10483
661.44        44.66932
661.86        44.91656
662.29        44.90358
662.72        45.71367
663.14        46.39323
663.57        46.81174
664.00        46.78421
664.42        47.09757
664.85         47.7894
665.27        48.44834
665.70        48.94331
666.13        49.28682
666.55        49.45972
666.98        49.43026
667.41        49.28658
667.83        49.48573
668.26        49.55344
668.69        49.86505
669.11        50.25094
669.54        50.63946
669.96        50.99621
670.39        51.45102
670.82        51.93195
671.24        52.03119
671.67        51.85752
672.09        52.01649
672.52        52.49629
672.94        52.76739
673.37         52.8164
673.80        52.92302
674.22         53.1061
674.65        53.24281
675.07        53.33879
675.50         53.4177
675.92        53.49092
676.35        53.56721
676.77         53.5531
677.20        53.77673
677.62        53.77095
678.05        53.94067
678.47        54.14704
678.90        54.39118
679.32        54.63398
679.75        54.83101
680.17         54.9718
680.60        55.06866
681.02        55.14599
681.45        55.24887
681.87        55.40111
682.30         55.5526
682.72        55.71126
683.15        55.91888
683.57        56.14903
684.00        56.25021
684.42        56.25376
684.85        56.34531
685.27        56.53068
685.70        56.71822
686.12        56.86996
686.54        56.98946
686.97        57.06709
687.39        57.08962
687.82        57.07899
688.24        57.13247
688.66        57.27668
689.09        57.32291
689.51        57.54431
689.94        57.64101
690.36        57.70829
690.78        57.62161
691.21         57.4869
691.63        57.75114
692.06        58.29462
692.48        58.42417
692.90        58.15188
693.33        58.06782
693.75        58.18418
694.17        58.16925
694.60        58.08023
695.02        58.03634
695.44        58.09544
695.87        58.56991
696.29         59.2681
696.71        59.27977
697.14         58.7244
697.56        58.60625
697.98         58.9355
698.41        59.25848
698.83        59.06817
699.25        59.23403
699.68        59.53856
700.10        59.71029
700.52        59.69675
700.94          59.592
701.37        59.48923
701.79        59.53176
702.21         59.7452
702.64        60.06284
703.06        60.39359
703.48        60.57904
703.90        60.57844
704.33        60.44426
704.75        60.25635
705.17        60.13448
705.59        60.12141
706.01        60.18285
706.44         60.2937
706.86        60.42048
707.28        60.53503
707.70        60.67409
708.12        60.83607
708.55        60.95145
708.97        61.03944
709.39        61.19943
709.81        61.40566
710.23        61.53072
710.66        61.55627
711.08        61.56389
711.50        61.54638
711.92        61.48346
712.34        61.38918
712.76        61.28299
713.19         61.1857
713.61        61.16555
714.03        61.22492
714.45        61.35263
714.87        61.53514
715.29        61.75219
715.71        61.98378
716.13        62.21325
716.56        62.40287
716.98        62.57852
717.40        62.69963
717.82        62.76505
718.24        62.74744
718.66        62.61434
719.08        62.38423
719.50        62.08447
719.92        61.81362
720.34        61.73056
720.76        61.86385
721.19        62.13802
721.61          62.515
722.03        62.88296
722.45        63.18151
722.87         63.4231
723.29        63.56028
723.71        63.52337
724.13        63.31777
724.55        62.98354
724.97        62.64372
725.39        62.41515
725.81        62.33298
726.23        62.51483
726.65         62.9491
727.07        62.82379
727.49        63.33968
727.91        63.51705
728.33        63.71175
728.75        63.86629
729.17         63.9789
729.59        64.03395
730.01        64.03098
730.43        63.99667
730.85        63.95332
731.27        63.94757
731.69        63.95823
732.10        63.92479
732.52        63.84515
732.94        63.72782
733.36        63.60638
733.78        63.63432
734.20        63.43502
734.62        63.57325
735.04        63.97499
735.46        63.55385
735.88        64.18381
736.30        64.22687
736.72        64.31527
737.13        64.71704
737.55        65.27228
737.97        65.61954
738.39        65.62349
738.81        65.11983
739.23        64.35499
739.65        64.28075
740.06        64.83111
740.48        65.07768
740.90        64.96935
741.32        65.12292
741.74        65.51736
742.16        65.75766
742.57        65.80338
742.99        65.75479
743.41        65.64854
743.83        65.52184
744.25         65.4031
744.67        65.26767
745.08        65.17484
745.50        65.20355
745.92        65.36412
746.34         65.6226
746.75        65.89019
747.17        65.99406
747.59         65.9098
748.01        65.73486
748.42        65.53323
748.84        65.36302
749.26        65.32016
749.68        65.42345
750.09        65.63358
750.51        66.05717
750.93        66.47602
751.35        66.23284
751.76        65.47852
752.18        65.10397
752.60        65.17854
753.01        65.22523
753.43        65.17773
753.85        65.17807
754.27        65.22049
754.68        65.29275
755.10        65.39693
755.52         65.5218
755.93        65.63834
756.35        65.72359
756.77        65.84272
757.18        65.92094
757.60        66.11192
758.02        66.53922
758.43        67.00385
758.85        66.60384
759.26        65.91555
759.68        65.30679
760.10        65.65575
760.51        66.22143
760.93        66.83484
761.34        66.91548
761.76        66.68134
762.18        66.42236
762.59        66.39767
763.01        66.72336
763.42        67.30627
763.84        67.49503
764.26         67.2563
764.67        66.88884
765.09        66.57308
765.50        66.46276
765.92        66.65662
766.33        66.40882
766.75        66.99063
767.16        66.73747
767.58        66.13986
768.00        65.93691
768.41         66.2371
768.83        66.51672
769.24        66.66448
769.66        66.96934
770.07        67.30349
770.49        67.09407
770.90        66.56358
771.32        66.83118
771.73        67.74457
772.15        68.02888
772.56        67.63673
772.97        67.17832
773.39        66.83659
773.80        66.94669
774.22        67.13326
774.63        67.43675
775.05        67.61069
775.46        67.76369
775.88         67.8239
776.29        67.70438
776.70        67.48307
777.12        67.38786
777.53         67.4711
777.95        67.61401
778.36        67.78596
778.77        67.90259
779.19        67.95979
779.60        68.01588
780.02        68.02451
780.43        68.02782
780.84        68.06387
781.26        67.71711
781.67        67.21636
782.09        67.84357
782.50        69.20882
782.91        69.13242
783.33        67.76636
783.74        67.28057
784.15        67.78425
784.57          68.018
784.98        67.96962
785.39        68.15659
785.81        68.57249
786.22        69.13978
786.63        69.67799
787.04        69.81679
787.46        69.53938
787.87        69.04424
788.28        68.57328
788.70        68.33978
789.11         68.3878
789.52        68.82592
789.93        69.42445
790.35         69.4926
790.76        69.07782
791.17        68.89566
791.58        69.03764
792.00        69.08606
792.41        69.04203
792.82        69.19708
793.23        69.44695
793.65          69.314
794.06        68.95422
794.47        68.99469
794.88        69.31508
795.29        69.75144
795.71        69.26403
796.12        68.86481
796.53        69.19571
796.94        68.63543
797.35        68.70526
797.76        69.07334
798.18        69.89256
798.59        70.26898
799.00        70.08031
799.41        69.74042
799.82        69.42073
800.23        69.28503
800.64        69.40087
801.06        69.67616
801.47        70.01966
801.88        70.19007
802.29         70.1098
802.70        69.84433
803.11        69.47957
803.52        69.15635
803.93        68.96194
804.34        68.88224
804.75        68.88805
805.17        69.05781
805.58         69.4391
805.99        69.55911
806.40        69.52145
806.81        70.54559
807.22         72.1272
807.63        71.81823
808.04        69.93259
808.45        69.11573
808.86        69.57787
809.27        69.88026
809.68        69.83293
810.09        69.80699
810.50        69.75804
810.91        69.59911
811.32        69.46152
811.73        69.54453
812.14        69.87909
812.55        70.41181
812.96        70.96696
813.37        71.20602
813.78        71.03579
814.19        70.58289
814.60        70.02821
815.01        69.61346
815.42         69.4023
815.83        69.32687
816.24        69.35059
816.65        69.40304
817.05        69.45931
817.46        69.52853
817.87        69.61614
818.28        69.67286
818.69        69.69333
819.10        69.65988
819.51        69.63977
819.92        69.78476
820.33        70.11539
820.74        70.52215
821.14        70.87079
821.55        71.09142
821.96        71.07583
822.37        70.55528
822.78        69.76441
823.19        69.42008
823.60        69.65157
824.00        70.17342
824.41        70.74206
824.82        71.14493
825.23        71.26537
825.64        71.16818
826.04        70.96102
826.45        70.77924
826.86        70.69489
827.27        70.67218
827.68        70.67126
828.08        70.66051
828.49        70.57456
828.90        70.44736
829.31        70.35951
829.72        70.43037
830.12        70.69662
830.53        71.06522
830.94        71.36405
831.35        71.25869
831.75        70.70912
832.16        69.81532
832.57        68.88846
832.97        68.39502
833.38        68.44894
833.79        68.88776
834.20         69.5146
834.60        70.01032
835.01        70.27225
835.42        70.43684
835.82        70.51984
836.23         70.4708
836.64        70.33909
837.04         70.0767
837.45        69.88731
837.86        70.18061
838.26        71.03389
838.67        72.30369
839.08        73.54257
839.48         73.8947
839.89         73.1646
840.29        71.67061
840.70        70.11208
841.11        69.31369
841.51        69.47829
841.92         70.3353
842.33         71.5651
842.73        72.58279
843.14        73.03733
843.54        73.13673
843.95        73.00754
844.35         72.9161
844.76        72.92849
845.17        72.94581
845.57        72.88927
845.98        72.62634
846.38        72.17255
846.79        71.60654
847.19        71.08807
847.60        70.82187
848.00        70.86607
848.41        71.12681
848.81        71.49649
849.22        71.70923
849.62        71.72543
850.03         71.5973
850.43         71.4087
850.84        71.23166
851.24        71.14945
851.65        71.06839
852.05        71.09727
852.46        71.30858
852.86         71.6935
853.27        72.21577
853.67        72.65694
854.07        72.83444
854.48        72.69032
854.88        72.29774
855.29         71.7446
855.69        71.34222
856.10        71.12434
856.50        71.10225
856.90        71.14146
857.31        71.02893
857.71        70.76917
858.12         70.3737
858.52        70.01357
858.92        69.85004
859.33         69.9051
859.73        70.15249
860.13        70.42867
860.54         70.4896
860.94        70.31602
861.34        69.97638
861.75         69.5826
862.15        69.36363
862.55         69.3653
862.96        69.47684
863.36        69.70315
863.76        69.96666
864.17        70.20263
864.57        70.46013
864.97        70.60487
865.38        70.43217
865.78        69.95776
866.18        69.24485
866.58        68.52272
866.99        68.20538
867.39         68.4305
867.79        69.05716
868.19        69.88496
868.60        70.58268
869.00        71.06879
869.40        71.39706
869.80        71.57648
870.21        71.62707
870.61        71.63183
871.01        71.53026
871.41        71.30588
871.81         70.9475
872.22        70.46233
872.62        69.86324
873.02        69.31229
873.42        69.06283
873.82        69.16693
874.22        69.56159
874.63        69.97756
875.03        69.99702
875.43        69.52867
875.83        68.71381
876.23        67.86499
876.63        67.46726
877.03         67.6368
877.44        68.19962
877.84        68.92517
878.24        69.42135
878.64        69.51134
879.04        69.18753
879.44         68.7081
879.84        68.55869
880.24        68.81337
880.64         69.2907
881.04        69.70507
881.44        69.63023
881.84        68.98588
882.24        67.93964
882.65        66.88259
883.05        66.39668
883.45         66.6298
883.85         67.4352
884.25         68.4501
884.65        69.05479
885.05        69.06966
885.45          68.657
885.85        68.17296
886.25        68.16814
886.65        68.74952
887.05        69.72603
887.45        70.70995
887.85        71.07182
888.25        70.66228
888.65        69.70353
889.04        68.59785
889.44        67.99158
889.84        68.02387
890.24        68.48395
890.64        69.07807
891.04        69.32224
891.44        69.09167
891.84        68.59981
892.24        68.01128
892.64        67.54517
893.04        67.29752
893.44        67.19504
893.83        67.30797
894.23        67.71231
894.63        68.39632
895.03        69.29306
895.43        70.22556
895.83        70.90235
896.23         71.2103
896.63        71.18591
897.02        70.86688
897.42         70.3709
897.82        69.78619
898.22        69.15751
898.62         68.5549
899.01        68.06091
899.41        67.72643
899.81        67.52312
900.21        67.52094
900.61        67.80991
901.00        68.35645
901.40        69.09895
901.80         69.7796
902.20        69.99118
902.59        69.67237
902.99        68.94415
903.39        68.10261
903.79        67.64509
904.18        67.69616
904.58        68.09634
904.98        68.69085
905.38        69.24712
905.77        69.67551
906.17        70.07491
906.57        70.34411
906.96        70.31156
907.36        69.96106
907.76        69.34219
908.15        68.75689
908.55        68.67956
908.95        69.20445
909.34        70.19672
909.74        71.26335
910.14        71.83051
910.53        71.70741
910.93         71.0953
911.33        70.21143
911.72        69.38367
912.12        68.80997
912.52        68.40953
912.91        68.16737
913.31        68.08479
913.70        68.14133
914.10        68.31422
914.49        68.65709
914.89        69.14564
915.29        69.75487
915.68        70.46423
916.08        71.00881
916.47        71.04726
916.87        70.55145
917.26        69.61946
917.66        68.67862
918.05        68.22734
918.45         68.3781
918.84        69.03857
919.24        69.86021
919.64        70.34927
920.03        70.36703
920.42        70.03256
920.82        69.65533
921.21        69.66579
921.61        70.13931
922.00        70.94764
922.40        71.79245
922.79        72.30713
923.19        72.33347
923.58        72.03884
923.98        71.58706
924.37        71.14342
924.77        70.79882
925.16        70.44661
925.55        70.17194
925.95        70.11041
926.34        70.27959
926.74        70.63148
927.13        70.91182
927.52        70.63162
927.92        69.78525
928.31        68.55298
928.70        67.32497
929.10        66.66671
929.49        66.69821
929.89          67.182
930.28        68.02306
930.67        68.92481
931.07         69.6991
931.46        70.50251
931.85        71.04459
932.24        70.91428
932.64        70.13801
933.03        68.79967
933.42        67.52679
933.82         67.2543
934.21        68.15498
934.60        70.02836
934.99        72.18958
935.39        73.37184
935.78        73.23662
936.17        72.02814
936.56        70.44572
936.96        69.60953
937.35        69.80012
937.74        70.67979
938.13         71.6156
938.53        71.63107
938.92        70.54877
939.31        68.80139
939.70        67.02407
940.09        66.09353
940.49        66.18002
940.88         67.0146
941.27        68.24221
941.66        69.21288
942.05        69.67413
942.44        69.84584
942.84        69.83031
943.23        69.77851
943.62        69.77316
944.01        69.67825
944.40        69.63987
944.79        69.95209
945.18        70.61831
945.57        71.55757
945.97        72.33958
946.36         72.3187
946.75        71.34299
947.14        69.72832
947.53        67.96748
947.92        66.74784
948.31        66.26509
948.70        66.34299
949.09        66.85047
949.48        67.54751
949.87        68.28798
950.26        69.09641
950.65        69.89235
951.04        70.54234
951.43        70.97961
951.82        71.17597
952.21        71.08735
952.60        70.69821
952.99        70.08321
953.38        69.33263
953.77        68.64377
954.16        68.30772
954.55        68.38163
954.94        68.75517
955.33        69.34221
955.72        69.95859
956.11        70.48412
956.50        70.96451
956.89        71.15909
957.28        70.69888
957.66        69.57377
958.05        67.96992
958.44        66.40951
958.83         65.6408
959.22        65.79664
959.61        66.69844
960.00        67.89646
960.39        68.52342
960.78         68.3084
961.16        67.50648
961.55        66.58375
961.94        66.14941
962.33        66.36156
962.72        67.03759
963.11        67.91147
963.49         68.5184
963.88        68.58563
964.27        68.26056
964.66        67.83186
965.04        67.74404
965.43        68.03782
965.82        68.62983
966.21        69.13406
966.60        68.85918
966.98        67.66909
967.37        65.93684
967.76        64.30032
968.15        63.52839
968.53        63.76107
968.92        64.81207
969.31        66.22195
969.69        67.06367
970.08        66.93267
970.47        66.10073
970.86        65.19277
971.24        65.11954
971.63        66.05855
972.02        67.74714
972.40        69.57291
972.79        70.07279
973.17        68.94552
973.56        66.79183
973.95        64.51276
974.33        63.23615
974.72        63.20738
975.11        64.05072
975.49        65.47114
975.88        66.79726
976.26        67.72803
976.65        68.37478
977.04        68.67662
977.42        68.51631
977.81         67.9025
978.19        66.83041
978.58        65.67697
978.96        65.05741
979.35        65.10809
979.74        65.73808
980.12        66.70608
980.51        67.28501
980.89        67.38425
981.28        67.18464
981.66        66.94398
982.05        67.02294
982.43        67.51633
982.82        68.22557
983.20        69.17446
983.59        70.29342
983.97        71.55346
984.35        72.93366
984.74        73.95532
985.12        74.08071
985.51        73.16434
985.89        71.41534
986.28          69.568
986.66        68.63686
987.04        68.92369
987.43        70.17965
987.81        71.82558
988.20        72.57187
988.58        72.04781
988.96        70.55383
989.35        68.84779
989.73        68.00964
990.12        68.24864
990.50        69.28239
990.88        70.38837
991.27        70.33459
991.65        68.87389
992.03          66.508
992.42        64.21938
992.80        63.28643
993.18        63.99023
993.56        65.98878
993.95        68.44741
994.33        69.93671
994.71        69.82577
995.10        68.64824
995.48        67.18674
995.86        66.70214
996.24        67.49868
996.63        69.03005
997.01        70.97305
997.39        72.29588
997.77        72.52732
998.15        72.13242
998.54        71.19221
998.92        69.65221
999.30        67.79231
999.68        65.67992
1000.06        64.09267
1000.45        64.13255
1000.83        66.06705
1001.21        69.73026
1001.59        74.23309
1001.97        77.26305
1002.35        77.81906
1002.73        76.49797
1003.12        74.46884
1003.50        73.22331
1003.88        73.26177
1004.26        74.01753
1004.64        75.27367
1005.02        76.54872
1005.40        77.49747
1005.78        78.44485
1006.16        78.87831
1006.54        77.92172
1006.92        75.65466
1007.30        72.42214
1007.69        69.45142
1008.07        68.33981
1008.45        69.55084
1008.83        72.72495
1009.21        76.87316
1009.59        79.46804
1009.97        79.27116
1010.35        77.01663
1010.73        73.68397
1011.11        70.70469
1011.49        68.64309
1011.86        67.15174
1012.24        66.32756
1012.62        66.26524
1013.00        66.92569
1013.38        68.41045
1013.76        70.52576
1014.14        72.49931
1014.52        73.78759
1014.90        74.29925
1015.28        74.20258
1015.66        73.95757
1016.04        73.70285
1016.41        73.32968
1016.79        72.66204
1017.17        71.53684
1017.55        70.04774
1017.93        68.45021
1018.31        67.08947
1018.69        66.32065
1019.06        66.23448
1019.44        66.78033
1019.82        67.80029
1020.20        68.81022
1020.58        69.45611
1020.95        69.62019
1021.33        69.67093
1021.71         70.0107
1022.09        70.79208
1022.46         72.1924
1022.84        73.59275
1023.22        73.68002
1023.60        72.13658
1023.97        69.30825
1024.35        67.20187
1024.73        68.12759
