SpectraSmart Spectrum 2.9.0.0
--------- Device Information -----------
Spectrum Name :  反射率_0
Saving Time :  2024/04/26 23:35:40
Spectro-Module Model Name : SE2030-DUVN
Spectro-Module Serial Number : OS361AC55029948
Wavelength Start : 200
Wavelength End : 1025
Wavelength Unit : Wavelength(nm)
Spectrum Unit : Reflectance(%)
-----------Spectrum Setting ------------
Integration Time : 20ms
Average : 10
Boxcar : 0
Background removal :  enabled
linearity correction :  enabled
SC :  disabled
Intensity correction :  disabled
DWT denoise :  enabled
savitzky-golay :  disabled
FFT :  disabled
Running average :  disabled
Kalman :  disabled
High pass :  disabled
---------------BEGIN--------------------
Wavelength(nm)             Reflectance(%)
200.29               0
200.75        43.34692
201.21         40.8025
201.67        38.75647
202.13        37.85771
202.58         38.0248
203.04        39.28864
203.50        42.02592
203.96        46.34405
204.42        51.73394
204.88        57.85591
205.34        62.58931
205.80        63.00352
206.26        59.06352
206.72        52.29378
207.18        45.78563
207.64        41.77803
208.10         40.1654
208.55        40.80561
209.01         42.9187
209.47        44.06098
209.93        43.10767
210.39        41.50108
210.85        41.06427
211.31        43.42251
211.77        49.85217
212.23        64.69032
212.69        100.6963
213.14        156.5835
213.60        145.2139
214.06        99.07047
214.52        70.56541
214.98        59.19183
215.44        55.86285
215.90         55.6003
216.36        57.12456
216.81        59.10809
217.27        61.48493
217.73        66.28819
218.19        72.77816
218.65        74.64097
219.11        70.48654
219.57        64.13811
220.02        60.96109
220.48        65.07943
220.94        76.74072
221.40        97.67124
221.86        127.6885
222.32        148.1795
222.77        142.1349
223.23        122.0583
223.69        101.1165
224.15        86.69313
224.61        78.15634
225.06        72.32091
225.52        69.51347
225.98        69.89893
226.44        72.88039
226.90        78.30074
227.36        84.12954
227.81        86.60778
228.27         85.2973
228.73        81.42284
229.19         77.7239
229.65        77.49514
230.10        80.82981
230.56        86.53132
231.02        92.22922
231.48        94.18485
231.93        91.76544
232.39        87.05349
232.85         82.1263
233.31        79.61704
233.77        79.85894
234.22        81.85836
234.68        84.57573
235.14        86.51696
235.60        87.14314
236.05        87.01194
236.51        86.17382
236.97        84.95164
237.43        83.59362
237.88        81.97746
238.34        80.33631
238.80        79.41001
239.26        79.44033
239.71        80.98745
240.17        83.45467
240.63        85.67809
241.08        87.05907
241.54        87.05885
242.00        87.37128
242.46        91.67407
242.91        102.9446
243.37        122.9813
243.83         152.573
244.28        178.7904
244.74        181.0951
245.20        158.5436
245.66        128.3631
246.11        105.9926
246.57        92.58414
247.03        84.08327
247.48        77.99276
247.94         72.0029
248.40        66.92682
248.85        63.62804
249.31        62.56237
249.77        63.51248
250.22        66.10294
250.68        70.25262
251.14        75.08449
251.59        77.17842
252.05        75.11096
252.51        71.17724
252.96        66.80544
253.42        63.64868
253.88        61.91115
254.33        60.71378
254.79        61.71656
255.25        66.16536
255.70        73.47354
256.16        82.94891
256.62        90.96961
257.07        91.93118
257.53        87.44908
257.99        81.06435
258.44        75.65118
258.90        73.92457
259.35        74.68436
259.81        76.96062
260.27        79.23826
260.72        79.74563
261.18        78.70429
261.63        76.62408
262.09        74.72418
262.55         73.6239
263.00        73.20237
263.46        73.31678
263.91        73.26779
264.37        72.61957
264.83        71.32972
265.28        69.65719
265.74        68.26231
266.19        67.56458
266.65         67.6789
267.11        68.23989
267.56        68.91392
268.02        69.19314
268.47        68.89937
268.93        68.25952
269.38        67.26968
269.84        66.01379
270.30        64.57233
270.75        62.92752
271.21        61.42645
271.66        60.51301
272.12        60.24794
272.57        60.45327
273.03        60.72158
273.48        60.35036
273.94         59.2647
274.39        57.66208
274.85        55.97313
275.31        54.60076
275.76        53.61556
276.22        52.93008
276.67        52.36765
277.13        51.83723
277.58         51.2108
278.04        50.57248
278.49        49.86576
278.95        49.16048
279.40        48.39784
279.86        47.66219
280.31        46.84178
280.77        45.94717
281.22         44.9463
281.68        43.96003
282.13        43.06327
282.59        42.48817
283.04        42.19141
283.50        42.11624
283.95        42.09626
284.41        41.90297
284.86        41.46968
285.32        40.91105
285.77        40.29177
286.22        39.78654
286.68        39.43327
287.13        39.13196
287.59        38.87396
288.04        38.58757
288.50        38.28544
288.95        37.95958
289.41        37.62523
289.86         37.2069
290.32        36.75119
290.77         36.2579
291.22        35.80708
291.68        35.49903
292.13        35.33797
292.59        35.31393
293.04        35.38404
293.50        35.50612
293.95        35.64923
294.40        35.83023
294.86        36.04766
295.31         36.2867
295.77        36.55408
296.22        36.83339
296.68        37.14193
297.13         37.4898
297.58        37.88467
298.04        38.32247
298.49        38.77937
298.95        39.24015
299.40        39.68243
299.85         40.1044
300.31         40.5123
300.76        40.90087
301.21        41.27111
301.67        41.63588
302.12        41.95015
302.58        42.21661
303.03         42.4096
303.48        42.56133
303.94        42.71888
304.39        42.90691
304.84        43.14407
305.30        43.42289
305.75        43.68827
306.20        43.91931
306.66        44.11581
307.11        44.27055
307.57        44.38974
308.02        44.42337
308.47        44.38631
308.93        44.29499
309.38        44.19177
309.83        44.20145
310.29        44.33858
310.74        44.56137
311.19        44.76309
311.65        44.76139
312.10        44.51782
312.55        44.09793
313.00        43.63927
313.46        43.34604
313.91        43.24825
314.36        43.29195
314.82        43.37046
315.27        43.32349
315.72        43.10225
316.18         42.7734
316.63        42.40084
317.08         42.0993
317.53        41.89882
317.99        41.75432
318.44        41.63105
318.89        41.46403
319.35        41.23465
319.80        40.96783
320.25         40.6904
320.70        40.44088
321.16        40.22795
321.61        40.05153
322.06        39.88252
322.51        39.68152
322.97        39.43245
323.42          39.146
323.87        38.86674
324.32        38.67337
324.78        38.56362
325.23        38.53929
325.68        38.48837
326.13        38.23567
326.59        37.75537
327.04        37.12578
327.49        36.50187
327.94        36.12726
328.39        36.05347
328.85        36.19432
329.30        36.45024
329.75        36.56242
330.20        36.44463
330.66        36.15863
331.11        35.80976
331.56        35.54198
332.01        35.40153
332.46        35.33109
332.92         35.2674
333.37        35.16803
333.82        34.99484
334.27        34.78728
334.72        34.57003
335.17        34.37048
335.63        34.20038
336.08        34.06798
336.53        33.97565
336.98        33.94254
337.43        33.96469
337.88        34.02566
338.34        34.09893
338.79        34.17492
339.24        34.22498
339.69        34.25163
340.14        34.22261
340.59        34.09428
341.05        33.87848
341.50        33.58953
341.95        33.30518
342.40        33.14183
342.85        33.12455
343.30         33.2221
343.75        33.36148
344.20         33.4211
344.66           33.37
345.11        33.23971
345.56        33.08491
346.01        32.99358
346.46        32.99261
346.91        33.05795
347.36        33.14423
347.81        33.18612
348.26        33.16684
348.72         33.1034
349.17         33.0433
349.62        33.07515
350.07        33.20866
350.52        33.41256
350.97        33.58859
351.42        33.58316
351.87        33.37133
352.32        33.01001
352.77        32.62326
353.22          32.391
353.67        32.35178
354.13        32.45424
354.58        32.60037
355.03        32.62508
355.48        32.48506
355.93        32.23605
356.38         31.9665
356.83        31.80697
357.28        31.78104
357.73        31.83241
358.18        31.88756
358.63        31.83459
359.08        31.64302
359.53        31.35714
359.98        31.02193
360.43        30.69654
360.88        30.40483
361.33        30.13526
361.78        29.88705
362.23        29.66239
362.68        29.46287
363.13        29.29142
363.58        29.15144
364.03        29.04226
364.48        28.95402
364.93        28.87695
365.38        28.78466
365.83         28.6391
366.28        28.43633
366.73        28.19306
367.18        27.93573
367.63        27.70701
368.08        27.51938
368.53        27.35862
368.98        27.22507
369.43        27.11586
369.88        27.02459
370.33        26.95628
370.78        26.87843
371.23        26.73803
371.68        26.52702
372.13        26.25574
372.58        25.98527
373.03        25.81455
373.48        25.76145
373.93        25.79704
374.38         25.8416
374.83        25.76747
375.28         25.5476
375.72        25.21737
376.17        24.87603
376.62        24.64067
377.07        24.54033
377.52        24.54093
377.97        24.57351
378.42        24.52983
378.87        24.38452
379.32        24.17052
379.77        23.96123
380.22        23.86158
380.67        23.88612
381.11        24.00421
381.56        24.11255
382.01        24.06561
382.46        23.83617
382.91        23.48753
383.36        23.12685
383.81        22.89759
384.26        22.82578
384.71        22.86496
385.15        22.94782
385.60        22.96481
386.05        22.88246
386.50        22.73673
386.95        22.57046
387.40        22.44819
387.85        22.38617
388.29        22.34479
388.74        22.32202
389.19        22.26541
389.64        22.16496
390.09        22.03316
390.54        21.89412
390.98         21.7811
391.43         21.7174
391.88         21.6897
392.33         21.6712
392.78        21.62286
393.23        21.54064
393.67         21.4303
394.12        21.34228
394.57        21.30808
395.02        21.33125
395.47        21.38744
395.91        21.45365
396.36        21.47976
396.81        21.46204
397.26        21.42028
397.71        21.35294
398.15        21.27081
398.60        21.20909
399.05        21.08022
399.50        20.93534
399.95        21.00286
400.39        21.22071
400.84        21.19856
401.29        20.94869
401.74        20.82235
402.18        20.83739
402.63        20.77716
403.08        20.65942
403.53        20.60629
403.97        20.62392
404.42        20.68299
404.87        20.73971
405.32         20.7217
405.76        20.61426
406.21        20.45196
406.66        20.29461
407.11        20.23765
407.55        20.30497
408.00         20.4559
408.45        20.62816
408.90        20.69965
409.34        20.63336
409.79        20.47429
410.24        20.28144
410.68        20.13147
411.13        20.05058
411.58        20.01167
412.03        19.99498
412.47        19.97148
412.92        19.92513
413.37        19.87851
413.81        19.83432
414.26        19.80944
414.71        19.80012
415.15        19.80423
415.60         19.8134
416.05         19.8358
416.49        19.87068
416.94        19.91006
417.39        19.94696
417.83        19.96847
418.28        19.97128
418.73        19.95807
419.17        19.93402
419.62        19.90981
420.07        19.88932
420.51        19.86296
420.96        19.83851
421.41        19.82272
421.85        19.80781
422.30        19.78768
422.74        19.74051
423.19        19.72152
423.64        19.69925
424.08        19.56099
424.53         19.3485
424.98        19.28497
425.42         19.4056
425.87        19.55406
426.31        19.68249
426.76        19.85969
427.21        20.00352
427.65        19.85659
428.10         19.5189
428.54        19.35172
428.99        19.40065
429.44        19.55678
429.88        19.72752
430.33        19.69388
430.77        19.49943
431.22        19.52793
431.66        19.77335
432.11        19.88303
432.56        19.85381
433.00        19.95861
433.45        20.09256
433.89        19.93322
434.34        19.62136
434.78        19.08023
435.23        19.43564
435.67        19.49888
436.12        19.54942
436.57        19.61817
437.01        19.68595
437.46        19.72762
437.90        19.71862
438.35        19.61481
438.79        19.45566
439.24        19.36825
439.68         19.3716
440.13        19.42625
440.57        19.50295
441.02        19.57346
441.46        19.61917
441.91        19.60122
442.35        19.53244
442.80        19.62365
443.24        19.79489
443.69        19.70512
444.13        19.41181
444.58        19.31581
445.02        19.43621
445.47        19.56544
445.91        19.65402
446.36        19.71958
446.80        19.74131
447.24        19.71846
447.69        19.67354
448.13        19.63402
448.58        19.61456
449.02        19.60383
449.47        19.60031
449.91        19.59136
450.36        19.57958
450.80        19.56678
451.25        19.56001
451.69        19.55469
452.13        19.55252
452.58        19.54875
453.02        19.54175
453.47        19.53287
453.91        19.52221
454.36        19.51468
454.80        19.49873
455.24        19.45549
455.69        19.39007
456.13         19.2947
456.58        19.21577
457.02        19.19182
457.46        19.23567
457.91        19.33368
458.35        19.42199
458.79        19.40538
459.24        19.28738
459.68        19.09217
460.13        18.91378
460.57        18.84431
461.01        18.91655
461.46        19.08037
461.90        19.28971
462.34        19.45086
462.79        19.52337
463.23        19.54005
463.68        19.49969
464.12        19.41562
464.56        19.30148
465.01        19.18044
465.45         19.0572
465.89        18.99234
466.34        18.99106
466.78        19.03473
467.22        19.10897
467.67        19.16543
468.11        19.19823
468.55        19.21163
468.99        19.20706
469.44        19.18576
469.88        19.15479
470.32        19.11218
470.77        19.07624
471.21        19.08152
471.65        19.13044
472.10        19.21317
472.54        19.30298
472.98        19.36326
473.42        19.38316
473.87        19.38055
474.31        19.35196
474.75        19.31152
475.20        19.27254
475.64        19.22629
476.08        19.19355
476.52        19.19574
476.97        19.23641
477.41        19.31996
477.85        19.42993
478.29        19.50862
478.74        19.55856
479.18        19.63401
479.62        19.72801
480.06         19.7977
480.50         19.8455
480.95        19.87439
481.39        19.86275
481.83        19.96981
482.27        19.90279
482.72        19.90811
483.16        19.93452
483.60        19.97804
484.04        20.01521
484.48         20.2108
484.93        20.57429
485.37        20.41425
485.81        20.37454
486.25        20.81464
486.69        20.48447
487.14        20.56575
487.58        21.02353
488.02        21.01279
488.46        20.78288
488.90        20.94749
489.34        21.09329
489.79        21.34331
490.23        21.45872
490.67        21.53791
491.11        21.57505
491.55        21.55218
491.99        21.51929
492.43        21.54998
492.88         21.6669
493.32        21.85245
493.76        22.06684
494.20        22.26188
494.64        22.42389
495.08         22.5162
495.52        22.56831
495.96        22.76032
496.41        23.04995
496.85        23.12411
497.29        22.99287
497.73         23.1099
498.17        23.17992
498.61        23.31053
499.05        23.39836
499.49        23.49086
499.93        23.54389
500.37        23.80028
500.82        24.17472
501.26        24.39586
501.70        24.42978
502.14        24.40779
502.58        24.39401
503.02        24.44177
503.46        24.57262
503.90        24.76587
504.34        24.96605
504.78        25.08224
505.22        25.09322
505.66        25.03305
506.10        24.95109
506.54        24.92451
506.98        24.97554
507.42        25.07702
507.86        25.20933
508.30        25.34094
508.74        25.45638
509.18        25.56685
509.62        25.66065
510.06        25.71789
510.50        25.73846
510.94        25.72503
511.38        25.70582
511.82        25.72928
512.26        25.80573
512.70        25.92238
513.14        26.04906
513.58        26.13485
514.02        26.16587
514.46        26.15647
514.90        26.12997
515.34        26.12465
515.78        26.15047
516.22        26.19403
516.66        26.23842
517.10        26.25712
517.54        26.24503
517.98         26.2161
518.42        26.18224
518.86        26.16069
519.30        26.15691
519.74        26.16161
520.18        26.17689
520.62         26.2067
521.06         26.2478
521.50        26.30007
521.93        26.34342
522.37        26.33553
522.81        26.27443
523.25        26.17135
523.69         26.0614
524.13        26.00018
524.57        25.99727
525.01        26.03298
525.45        26.07438
525.89        26.06718
526.32        25.99562
526.76        25.88797
527.20         25.7622
527.64        25.64774
528.08         25.5575
528.52        25.48209
528.96        25.42938
529.40        25.41254
529.83        25.42721
530.27        25.46856
530.71        25.50919
531.15        25.50708
531.59        25.45188
532.03        25.35352
532.46        25.22837
532.90        25.12201
533.34        25.04421
533.78        24.97392
534.22         24.9052
534.66        24.85807
535.09        24.81281
535.53         24.7173
535.97        24.59408
536.41        24.54082
536.85        24.56564
537.28        24.61697
537.72         24.6791
538.16        24.74591
538.60        24.80688
539.04        24.86212
539.47        24.90522
539.91        24.94311
540.35         24.9747
540.79         25.0033
541.22        25.03459
541.66        25.08699
542.10        25.16121
542.54        25.25171
542.97        25.35625
543.41        25.48064
543.85        25.61905
544.29        25.77393
544.72        25.92218
545.16        26.04673
545.60        26.14122
546.04        26.21356
546.47        26.29963
546.91        26.45302
547.35        26.67846
547.79        26.95786
548.22        27.23863
548.66        27.43539
549.10         27.5647
549.53        27.63871
549.97        27.70411
550.41        27.77406
550.84        27.89566
551.28        28.12354
551.72        28.39607
552.15        28.63795
552.59        28.86468
553.03        28.67785
553.46        28.97413
553.90        29.05318
554.34        29.17962
554.77        29.33673
555.21        29.51789
555.65        29.68861
556.08        29.82735
556.52        29.92971
556.96        30.00061
557.39        30.12838
557.83        30.29404
558.27        30.31653
558.70        30.22405
559.14        30.24637
559.57        30.37378
560.01        30.45717
560.45        30.49242
560.88        30.56477
561.32        30.68817
561.75        30.81112
562.19        30.93285
562.63        31.02945
563.06        31.10016
563.50        31.19025
563.93        31.26915
564.37        31.33669
564.80        31.40667
565.24        31.42126
565.68        31.33193
566.11        31.73347
566.55        31.49184
566.98        31.55317
567.42        31.63495
567.85        31.78934
568.29        32.02357
568.72        32.33885
569.16        32.72622
569.60         32.9484
570.03        33.10437
570.47        33.26974
570.90        33.51682
571.34        33.31053
571.77        33.63583
572.21        33.82462
572.64        33.94669
573.08        34.11132
573.51        34.27841
573.95        34.47525
574.38        34.74592
574.82        34.77211
575.25        34.61004
575.69        34.69535
576.12        34.78442
576.56        34.62262
576.99        34.76747
577.42        34.57505
577.86        34.67348
578.29        35.14305
578.73        34.80715
579.16        34.76426
579.60        34.63292
580.03        34.69263
580.47        34.42603
580.90        34.90208
581.33        34.84596
581.77        34.60896
582.20        34.41828
582.64        34.15646
583.07        34.06396
583.51        33.87466
583.94        33.72208
584.37        33.71534
584.81        33.76871
585.24        33.66957
585.68        33.41809
586.11        33.34338
586.54        33.13397
586.98        32.96417
587.41         32.7438
587.85          32.859
588.28        32.77194
588.71        32.66407
589.15         32.5741
589.58          32.633
590.01        32.42502
590.45        32.51135
590.88        32.69726
591.31        32.66803
591.75        32.49236
592.18        32.42361
592.61         32.4688
593.05        33.06489
593.48        33.18975
593.91        33.13051
594.35        33.06235
594.78        32.90199
595.21        32.85338
595.65        33.17485
596.08        33.85429
596.51         33.9599
596.94        33.76764
597.38        33.83294
597.81        34.25198
598.24        34.65583
598.68        34.98124
599.11        35.01297
599.54          35.701
599.97        35.52898
600.41         36.1084
600.84        36.16814
601.27         36.6496
601.70        36.93896
602.14        37.45099
602.57        37.71695
603.00        37.95607
603.43        37.81441
603.87        38.77501
604.30        39.26048
604.73        39.72062
605.16        39.85743
605.60        40.29846
606.03        40.49823
606.46        40.69999
606.89         41.1244
607.32        42.03088
607.76        42.56516
608.19        42.79141
608.62        42.92488
609.05        43.08351
609.48        43.44873
609.92        44.59095
610.35        44.33269
610.78         44.2153
611.21        44.62878
611.64        44.98644
612.07         45.6243
612.50        45.92677
612.94        46.27602
613.37        46.54604
613.80        46.65485
614.23        46.41415
614.66        46.65479
615.09        47.28166
615.52        47.72489
615.96        47.89073
616.39        48.23309
616.82        48.79478
617.25        48.49329
617.68        48.83324
618.11        49.05273
618.54        49.53577
618.97        49.79502
619.40        49.81385
619.84        50.03233
620.27        49.99616
620.70        50.19138
621.13        50.41935
621.56        50.22121
621.99         49.7168
622.42        49.78444
622.85        50.40989
623.28        50.38326
623.71        50.35618
624.14        50.37776
624.57        50.75468
625.00        50.35923
625.43        50.63457
625.86        50.53835
626.29        50.51845
626.72        50.26213
627.15        50.31365
627.58         50.2212
628.01        50.09308
628.44        49.87894
628.87        49.57724
629.30        49.20521
629.73        48.82517
630.16        48.54638
630.59        48.38645
631.02        48.30628
631.45        48.24163
631.88        48.08787
632.31        47.80935
632.74        47.43222
633.17        46.98356
633.60        46.51181
634.03        46.04149
634.46        45.56034
634.89        45.07501
635.32        44.60708
635.75        44.16567
636.18        43.70835
636.61        43.25878
637.04        42.87198
637.47        42.54771
637.89        42.26255
638.32        41.97152
638.75        41.64687
639.18        41.28345
639.61         40.8945
640.04        40.51655
640.47        40.20361
640.90         39.9674
641.33         39.7948
641.76        39.65616
642.18        39.50776
642.61        39.32746
643.04        39.13557
643.47        38.96501
643.90        38.86665
644.33        38.85119
644.76        38.90364
645.18        38.98829
645.61        39.03759
646.04        39.04338
646.47        39.03165
646.90        39.04997
647.33        39.16397
647.75         39.3766
648.18        39.70892
648.61        40.13996
649.04        40.48283
649.47        40.68439
649.89        41.40128
650.32        41.54754
650.75        41.97705
651.18        42.38533
651.61        42.85208
652.03        43.36031
652.46        43.89235
652.89        44.43185
653.32        44.77287
653.74        45.02696
654.17         45.5872
654.60        46.19268
655.03        46.83863
655.46        46.59637
655.88        47.15786
656.31        49.07463
656.74        50.83825
657.16        50.75348
657.59        50.95403
658.02        49.91336
658.45         50.6056
658.87        50.65529
659.30        51.02408
659.73        51.06931
660.15        52.03612
660.58        51.73001
661.01        52.09879
661.44        52.51944
661.86        52.51326
662.29        52.17134
662.72        52.81853
663.14        53.37711
663.57        53.68192
664.00        53.51519
664.42        53.75457
664.85        54.42947
665.27        55.08315
665.70        55.54951
666.13        55.81189
666.55        55.84077
666.98        55.59871
667.41        55.21591
667.83        55.25949
668.26        55.21709
668.69        55.49853
669.11        55.87076
669.54        56.22051
669.96        56.50799
670.39        56.77682
670.82        57.02551
671.24        57.21898
671.67        57.36773
672.09        57.44053
672.52        57.48702
672.94        57.65316
673.37         57.8918
673.80        57.90933
674.22        57.75274
674.65        57.73061
675.07        57.88261
675.50        58.01614
675.92        58.12521
676.35        58.27272
676.77        58.45415
677.20         58.6468
677.62        58.83841
678.05        59.00978
678.47        59.14785
678.90        59.26027
679.32        59.35596
679.75        59.43369
680.17        59.49151
680.60        59.61242
681.02        59.78399
681.45        59.76855
681.87        59.73174
682.30        59.96604
682.72        60.44741
683.15        60.73243
683.57        60.79151
684.00        60.82308
684.42        60.87615
684.85        60.97361
685.27        61.14569
685.70        61.30986
686.12        61.39513
686.54        61.56178
686.97        61.84715
687.39        61.28928
687.82        61.59217
688.24        61.53537
688.66        61.52005
689.09         61.5797
689.51        61.69566
689.94        61.83466
690.36        61.97605
690.78        62.12151
691.21        62.27187
691.63        62.43649
692.06        62.60549
692.48        62.74849
692.90         62.8375
693.33        62.86115
693.75        62.81231
694.17        62.68605
694.60        62.58319
695.02        62.58176
695.44        62.71541
695.87         63.2036
696.29         63.8547
696.71        63.81205
697.14        63.21141
697.56        63.12335
697.98        63.57425
698.41        63.79356
698.83        63.76993
699.25        64.00372
699.68        64.39487
700.10        64.59033
700.52        64.52831
700.94        64.32223
701.37         64.0984
701.79        64.06722
702.21        64.27007
702.64        64.61997
703.06        65.00548
703.48        65.23089
703.90        65.24373
704.33        65.11356
704.75        64.92039
705.17        64.78167
705.59        64.74502
706.01        64.77308
706.44        64.86569
706.86        65.03132
707.28        65.24109
707.70        65.52008
708.12        65.82434
708.55        65.99679
708.97        66.05418
709.39        66.17075
709.81         66.3293
710.23        66.37416
710.66        66.30069
711.08        66.21607
711.50        66.14755
711.92        66.11325
712.34        66.13062
712.76        66.21073
713.19        66.30862
713.61        66.38174
714.03        66.40539
714.45        66.39902
714.87        66.42262
715.29         66.5736
715.71        66.85948
716.13        67.22857
716.56        67.58299
716.98        67.84918
717.40        67.95314
717.82        67.93269
718.24        67.80476
718.66         67.5983
719.08        67.35753
719.50        67.10165
719.92        66.90515
720.34        66.87849
720.76        67.03584
721.19        67.31831
721.61        67.69424
722.03        68.05112
722.45        68.33062
722.87        68.54521
723.29        68.63909
723.71        68.53326
724.13        68.23935
724.55        67.79893
724.97        67.34824
725.39        67.10059
725.81        67.11264
726.23        67.33672
726.65        67.68656
727.07        68.00877
727.49        68.24884
727.91        68.44076
728.33        68.60303
728.75         68.7696
729.17        68.94482
729.59        69.09288
730.01        69.19904
730.43        69.25544
730.85        69.26073
731.27        69.22913
731.69        69.16721
732.10        69.07726
732.52        68.96532
732.94        68.85268
733.36        68.78934
733.78        68.69565
734.20        68.56336
734.62        68.72927
735.04         69.2333
735.46        68.68588
735.88        69.18599
736.30        69.44724
736.72        70.02106
737.13         70.4135
737.55        70.50871
737.97        70.67521
738.39        70.83434
738.81        70.46497
739.23        69.75623
739.65        69.67179
740.06        70.12904
740.48        70.28304
740.90        70.07979
741.32        70.03098
741.74        70.18533
742.16        70.35204
742.57        70.52566
742.99        70.73243
743.41        70.91541
743.83        70.97137
744.25        70.89097
744.67        70.69274
745.08        70.48607
745.50        70.43645
745.92        70.57962
746.34        70.83734
746.75        71.12091
747.17        71.25536
747.59        71.20138
748.01        71.10779
748.42        71.00582
748.84        70.75034
749.26        70.48528
749.68        70.60275
750.09         71.0279
750.51        71.39434
750.93         71.5564
751.35        71.40615
751.76        71.03696
752.18        70.84166
752.60         70.8582
753.01        70.86519
753.43        70.81338
753.85        70.77161
754.27        70.74552
754.68        70.73901
755.10        70.77266
755.52        70.87657
755.93        71.03098
756.35        71.18274
756.77        71.36137
757.18        71.54115
757.60        71.72551
758.02        72.09808
758.43        72.42597
758.85        72.03783
759.26        71.62127
759.68        70.74728
760.10        70.60175
760.51        71.59402
760.93        72.11181
761.34        71.94807
761.76        72.01077
762.18        71.91833
762.59        72.17316
763.01        72.39957
763.42        72.59626
763.84        72.68264
764.26        72.63101
764.67        72.35099
765.09        72.01774
765.50        71.93171
765.92        72.09801
766.33        72.17777
766.75        72.04582
767.16        71.90057
767.58        71.77002
768.00         71.5793
768.41        71.48817
768.83        72.01248
769.24        72.85632
769.66        73.01951
770.07        72.51795
770.49        71.90041
770.90        71.48817
771.32          71.956
771.73        73.07326
772.15        73.50353
772.56        73.15208
772.97        72.78725
773.39         72.5858
773.80        72.50395
774.22        72.55898
774.63        72.74767
775.05        72.94466
775.46          73.093
775.88        73.12362
776.29         73.0573
776.70         72.9587
777.12        72.97768
777.53        73.15443
777.95        73.39429
778.36        73.64177
778.77        73.76556
779.19        73.74628
779.60        73.64625
780.02        73.49016
780.43        73.36044
780.84          73.304
781.26        73.11205
781.67        72.90076
782.09        73.23287
782.50        73.92634
782.91        74.01605
783.33        73.52938
783.74        73.33911
784.15        73.46192
784.57        73.48902
784.98        73.45252
785.39        73.33317
785.81        73.28588
786.22        73.94255
786.63        75.03444
787.04        75.46332
787.46         75.1596
787.87        74.72083
788.28         74.3888
788.70         74.2014
789.11        74.20413
789.52        74.55415
789.93        75.05705
790.35        75.07259
790.76        74.65768
791.17          74.535
791.58        74.76407
792.00        74.76976
792.41        74.56551
792.82         74.7235
793.23        75.08204
793.65        74.74908
794.06        74.00156
794.47        74.01423
794.88        74.61038
795.29        75.58473
795.71        74.91243
796.12        75.05741
796.53        75.44989
796.94        75.39191
797.35         75.0043
797.76        75.27987
798.18        76.08253
798.59        76.37145
799.00        76.04857
799.41        75.67092
799.82        75.39327
800.23        75.23035
800.64        75.23398
801.06        75.36402
801.47        75.56271
801.88        75.62836
802.29        75.50762
802.70        75.25909
803.11          74.959
803.52        74.73536
803.93         74.6528
804.34        74.67855
804.75        74.79929
805.17        75.06765
805.58        75.51246
805.99        75.82101
806.40        75.99203
806.81        76.67487
807.22        77.53535
807.63        77.09152
808.04        75.62135
808.45        74.89217
808.86        75.08546
809.27        75.30421
809.68         75.3805
810.09        75.45771
810.50        75.48089
810.91        75.37186
811.32        75.30089
811.73        75.62116
812.14        76.32913
812.55        77.14655
812.96        77.80234
813.37        77.99004
813.78        77.60414
814.19        76.72538
814.60        75.68448
815.01        74.97797
815.42        74.71041
815.83        74.74538
816.24        74.97178
816.65        75.16673
817.05        75.24407
817.46        75.26421
817.87        75.25906
818.28        75.21024
818.69        75.13254
819.10         74.9918
819.51        74.89161
819.92        75.04732
820.33        75.48569
820.74        76.10424
821.14        76.71057
821.55        77.05495
821.96        77.03633
822.37        76.59542
822.78        75.92998
823.19        75.52943
823.60         75.5152
824.00        75.72681
824.41        76.00993
824.82        76.26207
825.23        76.40588
825.64        76.48254
826.04        76.50563
826.45        76.44408
826.86        76.32468
827.27        76.15829
827.68        75.96786
828.08        75.83225
828.49        75.72572
828.90        75.65328
829.31        75.66933
829.72        75.85675
830.12        76.23312
830.53        76.70033
830.94        77.10372
831.35        77.12949
831.75        76.73318
832.16        76.00483
832.57        75.17911
832.97        74.60725
833.38         74.4007
833.79         74.4437
834.20        74.69101
834.60        75.05721
835.01        75.48888
835.42        76.06182
835.82        76.63808
836.23        76.88468
836.64        76.76715
837.04        76.30989
837.45        75.85094
837.86        76.02929
838.26        76.98357
838.67        78.48507
839.08        79.97592
839.48        80.41045
839.89        79.53333
840.29        77.74069
840.70         75.8241
841.11        74.70747
841.51         74.6245
841.92        75.27773
842.33        76.33432
842.73         77.1938
843.14         77.5108
843.54        77.52929
843.95        77.40241
844.35        77.43047
844.76        77.67326
845.17        77.99088
845.57        78.27652
845.98        78.35683
846.38         78.2123
846.79        77.91508
847.19        77.55994
847.60        77.25616
848.00        77.05903
848.41        76.90611
848.81        76.81615
849.22        76.72861
849.62        76.67127
850.03        76.66103
850.43        76.67469
850.84        76.59095
851.24        76.44019
851.65         76.1666
852.05        75.98978
852.46        76.16707
852.86        76.72735
853.27        77.55975
853.67        78.29516
854.07        78.55853
854.48        78.26927
854.88        77.58129
855.29        76.71626
855.69        76.23466
856.10        76.23886
856.50        76.65251
856.90         77.2383
857.31        77.61704
857.71        77.71449
858.12         77.5659
858.52        77.30834
858.92        77.04081
859.33        76.80349
859.73        76.61664
860.13        76.41415
860.54        76.12704
860.94        75.80126
861.34        75.45554
861.75        75.21725
862.15        75.32483
862.55        75.77946
862.96        76.45556
863.36        77.16296
863.76        77.48584
864.17        77.30149
864.57        76.76645
864.97        76.02389
865.38        75.31491
865.78        74.77033
866.18        74.33076
866.58        74.06021
866.99        74.06115
867.39        74.35737
867.79        74.90977
868.19        75.56599
868.60        76.05463
869.00        76.33271
869.40        76.41866
869.80        76.37991
870.21        76.37197
870.61        76.50757
871.01         76.6773
871.41         76.7772
871.81        76.66319
872.22        76.31218
872.62        75.78613
873.02         75.2449
873.42         74.9422
873.82        74.94908
874.22        75.19101
874.63        75.49744
875.03        75.61268
875.43        75.45587
875.83        75.10939
876.23        74.71372
876.63        74.48465
877.03        74.47922
877.44        74.60294
877.84        74.77711
878.24        74.86586
878.64        74.78998
879.04        74.49115
879.44        74.12064
879.84        73.98515
880.24         74.1096
880.64        74.36902
881.04        74.55466
881.44        74.34966
881.84        73.71451
882.24        72.80542
882.65        71.89783
883.05         71.4015
883.45        71.43206
883.85        71.86237
884.25        72.55683
884.65        73.27222
885.05        73.87251
885.45        74.38578
885.85        74.76225
886.25        74.93955
886.65        74.92791
887.05        74.74189
887.45        74.44026
887.85        74.15096
888.25        73.92522
888.65        73.73695
889.04        73.62766
889.44        73.67277
889.84        73.85245
890.24        74.16238
890.64        74.44107
891.04        74.42171
891.44        74.06493
891.84        73.45641
892.24        72.83657
892.64        72.56613
893.04        72.72712
893.44        73.23608
893.83        73.88995
894.23        74.28646
894.63        74.33818
895.03        74.12808
895.43        73.89309
895.83        74.03065
896.23        74.60179
896.63        75.43613
897.02        76.19601
897.42        76.38254
897.82         75.8969
898.22        74.96438
898.62        73.88317
899.01        73.07497
899.41        72.69892
899.81        72.62872
900.21        72.80396
900.61        73.12245
901.00        73.51118
901.40        73.97904
901.80        74.45176
902.20        74.79883
902.59        74.98777
902.99        75.01599
903.39        74.90054
903.79        74.68999
904.18        74.41908
904.58        74.11157
904.98         73.8607
905.38        73.81068
905.77         73.9851
906.17        74.35661
906.57        74.79191
906.96        75.06162
907.36        75.07999
907.76        74.91874
908.15        74.72067
908.55        74.69072
908.95        74.88759
909.34        75.25145
909.74        75.61054
910.14        75.79842
910.53        75.74057
910.93         75.5127
911.33        75.18443
911.72        74.83824
912.12        74.58054
912.52        74.40202
912.91        74.27297
913.31        74.17332
913.70        74.10158
914.10        74.02922
914.49         74.1059
914.89        74.48277
915.29        75.18036
915.68        76.13284
916.08        76.97899
916.47        77.20543
916.87        76.72713
917.26        75.69532
917.66        74.57246
918.05        73.89572
918.45        73.80157
918.84         74.1807
919.24        74.72855
919.64        75.04596
920.03        75.02278
920.42        74.76824
920.82        74.51892
921.21        74.57931
921.61        74.99072
922.00        75.65051
922.40         76.3342
922.79        76.82203
923.19        76.98175
923.58        76.92066
923.98        76.69592
924.37        76.31488
924.77        75.84581
925.16        75.24258
925.55         74.6815
925.95        74.45264
926.34        74.62889
926.74        75.11176
927.13        75.60819
927.52        75.56155
927.92         74.9369
928.31        73.93663
928.70        72.92096
929.10        72.41096
929.49        72.51714
929.89        72.98103
930.28        73.77724
930.67        74.73111
931.07        75.67236
931.46         76.7366
931.85        77.47973
932.24        77.24246
932.64        76.02366
933.03        74.00269
933.42        72.04005
933.82        71.41074
934.21        72.35681
934.60        74.58477
934.99        77.21249
935.39        78.60774
935.78        78.33136
936.17        76.75179
936.56        74.73947
936.96        73.68779
937.35        73.95242
937.74        75.07641
938.13        76.36375
938.53        76.74677
938.92        75.97923
939.31        74.51923
939.70        72.91715
940.09        71.91354
940.49        71.67526
940.88        71.97904
941.27        72.62053
941.66         73.2394
942.05        73.67722
942.44        74.07605
942.84        74.43047
943.23         74.7022
943.62         74.9053
944.01        74.96399
944.40        75.00636
944.79        75.29977
945.18        75.85715
945.57        76.58103
945.97        77.14654
946.36        77.10835
946.75        76.34991
947.14        75.13468
947.53         73.7906
947.92        72.75885
948.31        72.18746
948.70        71.96188
949.09        72.10824
949.48        72.65814
949.87        73.54095
950.26        74.71014
950.65        75.90302
951.04        76.68151
951.43        76.90778
951.82        76.65438
952.21        76.08771
952.60        75.52682
952.99        75.11978
953.38        74.83398
953.77        74.67052
954.16        74.62273
954.55        74.65955
954.94        74.75174
955.33        74.93459
955.72        75.23434
956.11        75.61852
956.50        76.09618
956.89        76.34641
957.28        75.86388
957.66        74.61265
958.05        72.83584
958.44        71.18681
958.83        70.59864
959.22        71.22134
959.61         72.8022
960.00        74.69386
960.39        75.66786
960.78         75.3373
961.16        74.06386
961.55        72.53494
961.94        71.65809
962.33        71.68188
962.72        72.38069
963.11         73.3868
963.49        74.04182
963.88        74.01198
964.27        73.50386
964.66         72.9952
965.04        73.21083
965.43        74.22762
965.82        75.87981
966.21        77.44334
966.60        77.56786
966.98        75.93481
967.37        73.17181
967.76        70.38622
968.15        68.94139
968.53        69.08688
968.92        70.47388
969.31        72.42121
969.69        73.55299
970.08        73.29473
970.47        72.08993
970.86        70.74817
971.24        70.41646
971.63        71.33282
972.02        73.13983
972.40        75.14761
972.79        75.75055
973.17        74.57432
973.56        72.24519
973.95         69.7291
974.33        68.22131
974.72        67.98386
975.11        68.65964
975.49        69.84796
975.88        70.68697
976.26        70.91053
976.65        70.73766
977.04        70.45617
977.42        70.46987
977.81        70.84245
978.19        71.34513
978.58        71.92377
978.96        72.51382
979.35        73.01035
979.74        73.47145
980.12        73.79495
980.51          73.546
980.89        72.83485
981.28        71.83078
981.66        70.88302
982.05        70.44904
982.43        70.65628
982.82        71.36151
983.20        72.60688
983.59        74.28227
983.97        76.30553
984.35        78.57188
984.74        80.53656
985.12        81.58141
985.51        81.47649
985.89         80.4058
986.28        78.94504
986.66        77.91618
987.04        77.62405
987.43        77.84148
987.81         78.3581
988.20        78.57311
988.58        78.31872
988.96        77.70027
989.35        76.94842
989.73        76.33174
990.12        75.89741
990.50        75.61063
990.88        75.16791
991.27        74.12139
991.65        72.50726
992.03        70.58216
992.42        69.00726
992.80        68.61445
993.18        69.55759
993.56        71.60527
993.95        74.04781
994.33         75.6926
994.71        75.93277
995.10        75.16501
995.48        73.95016
995.86         73.2587
996.24        73.34612
996.63        73.76384
997.01        74.43052
997.39        74.81864
997.77        74.70015
998.15        74.39725
998.54          73.864
998.92        72.83066
999.30        71.43374
999.68        69.76066
1000.06        68.42994
1000.45        68.28642
1000.83        69.57186
1001.21        72.18414
1001.59        75.40746
1001.97        77.43465
1002.35        77.55582
1002.73        76.25627
1003.12        74.68147
1003.50        74.27577
1003.88        75.45612
1004.26        77.67047
1004.64        80.31757
1005.02        82.09509
1005.40        82.38444
1005.78        81.74976
1006.16        80.20935
1006.54        77.75041
1006.92        74.75593
1007.30        71.41087
1007.69        68.76865
1008.07        68.15075
1008.45        69.91756
1008.83         73.7814
1009.21        78.81011
1009.59        82.45602
1009.97        83.31483
1010.35        81.97153
1010.73        79.03578
1011.11        75.54653
1011.49        72.18633
1011.86        68.88378
1012.24        66.31547
1012.62        65.30595
1013.00        65.91235
1013.38        68.02178
1013.76        71.11691
1014.14        73.61146
1014.52        74.57567
1014.90        74.22484
1015.28        72.94128
1015.66        71.41316
1016.04        69.94341
1016.41        68.40868
1016.79        66.96495
1017.17        66.06944
1017.55        65.86614
1017.93         66.2407
1018.31        67.15901
1018.69        68.54093
1019.06        70.34206
1019.44        72.64965
1019.82        74.80405
1020.20        75.29811
1020.58        73.68999
1020.95        70.45674
1021.33        67.21603
1021.71        65.67098
1022.09        66.09893
1022.46         68.3999
1022.84         71.5934
1023.22        73.19836
1023.60        72.22459
1023.97         69.2894
1024.35        66.69493
1024.73        67.15865
