SpectraSmart Spectrum 2.9.0.0
--------- Device Information -----------
Spectrum Name :  反射率_0
Saving Time :  2024/04/26 23:30:37
Spectro-Module Model Name : SE2030-DUVN
Spectro-Module Serial Number : OS361AC55029948
Wavelength Start : 200
Wavelength End : 1025
Wavelength Unit : Wavelength(nm)
Spectrum Unit : Reflectance(%)
-----------Spectrum Setting ------------
Integration Time : 20ms
Average : 10
Boxcar : 0
Background removal :  enabled
linearity correction :  enabled
SC :  disabled
Intensity correction :  disabled
DWT denoise :  enabled
savitzky-golay :  disabled
FFT :  disabled
Running average :  disabled
Kalman :  disabled
High pass :  disabled
---------------BEGIN--------------------
Wavelength(nm)             Reflectance(%)
200.29               0
200.75         45.2822
201.21        43.86882
201.67        42.76178
202.13        42.02959
202.58        41.56046
203.04        41.76049
203.50        42.80518
203.96        44.63038
204.42        47.11544
204.88        49.96178
205.34        53.06241
205.80         56.4729
206.26        59.54082
206.72        61.39714
207.18        61.93148
207.64         61.2221
208.10        59.34024
208.55        56.60579
209.01        51.89688
209.47        46.36716
209.93        43.14795
210.39        42.56264
210.85        43.85702
211.31        46.95967
211.77        52.99493
212.23        66.15297
212.69        99.37211
213.14        159.4323
213.60        164.1871
214.06        127.5814
214.52        100.0444
214.98        85.51078
215.44        76.66315
215.90        68.55359
216.36        62.28394
216.81        60.58326
217.27         64.7709
217.73        77.19366
218.19        95.52518
218.65        102.1885
219.11        91.34615
219.57        74.74051
220.02        64.40688
220.48        67.00638
220.94        82.21419
221.40        111.8527
221.86         155.786
222.32        187.4991
222.77         181.535
223.23        154.4213
223.69        125.8709
224.15        107.4262
224.61        97.94044
225.06        92.59113
225.52        90.23756
225.98        89.44121
226.44         89.6846
226.90        91.42326
227.36        94.28618
227.81        97.19582
228.27        99.73305
228.73        101.4829
229.19        102.8607
229.65        104.6884
230.10        106.9463
230.56        109.4777
231.02        111.2191
231.48        110.6001
231.93        107.6119
232.39        103.6202
232.85        99.91708
233.31        98.21486
233.77        98.62178
234.22        100.4169
234.68        102.8983
235.14        105.0373
235.60        106.3858
236.05        107.3689
236.51        107.4005
236.97        105.6919
237.43        102.1914
237.88        97.17648
238.34        91.91147
238.80        88.79714
239.26        88.63726
239.71        91.92053
240.17        97.71446
240.63        103.2892
241.08        106.7948
241.54        107.5839
242.00        107.4599
242.46         110.802
242.91        120.8817
243.37        138.3461
243.83        163.2087
244.28        182.9389
244.74        179.1537
245.20        153.6234
245.66        122.9938
246.11        99.99719
246.57        85.11039
247.03        74.61073
247.48        67.25575
247.94        62.73248
248.40        60.98297
248.85        61.12935
249.31        62.33614
249.77         63.6504
250.22        64.76608
250.68        65.55854
251.14        65.74849
251.59        64.75352
252.05        63.14191
252.51        62.38228
252.96        61.54346
253.42        59.91513
253.88        57.91371
254.33        55.59348
254.79        56.04881
255.25        62.04581
255.70        72.81361
256.16         86.8652
256.62        98.80408
257.07        100.3434
257.53        93.72535
257.99        84.47123
258.44        76.85123
258.90         74.4693
259.35        75.85755
259.81        79.44823
260.27        83.33455
260.72        85.22168
261.18          85.166
261.63         83.8121
262.09        82.44074
262.55        81.68439
263.00        81.46297
263.46        81.66103
263.91        81.61571
264.37        81.01302
264.83        79.80265
265.28        78.19576
265.74        76.85696
266.19        76.15532
266.65        76.21807
267.11        76.71622
267.56        77.28279
268.02        77.35786
268.47        76.78373
268.93        75.82374
269.38        74.61157
269.84        73.44842
270.30        72.42487
270.75        71.42186
271.21        70.60506
271.66        70.13736
272.12        70.01132
272.57        70.12533
273.03        70.16443
273.48         69.5741
273.94        68.35036
274.39        66.64411
274.85        64.89713
275.31        63.50507
275.76        62.52335
276.22        61.88076
276.67        61.37296
277.13         60.8882
277.58        60.27387
278.04        59.62291
278.49        58.85957
278.95        58.05392
279.40        57.14476
279.86        56.24037
280.31        55.23501
280.77        54.18017
281.22        53.03341
281.68        51.90907
282.13        50.87758
282.59         50.1864
283.04        49.77977
283.50        49.62072
283.95        49.48359
284.41        49.05833
284.86        48.28297
285.32        47.31199
285.77         46.3349
286.22        45.71512
286.68         45.4954
287.13        45.48772
287.59        45.51992
288.04        45.25953
288.50        44.67651
288.95        43.85862
289.41        42.95413
289.86        42.06907
290.32        41.31018
290.77        40.61531
291.22        40.03298
291.68        39.61587
292.13        39.33751
292.59        39.19969
293.04        39.14099
293.50        39.08765
293.95        38.99999
294.40        38.89963
294.86        38.78759
295.31        38.65941
295.77        38.53688
296.22        38.41032
296.68        38.33266
297.13        38.36264
297.58        38.51649
298.04         38.7785
298.49        39.08704
298.95        39.36379
299.40        39.57132
299.85        39.72589
300.31        39.86145
300.76        40.01784
301.21        40.20401
301.67        40.41051
302.12        40.57362
302.58        40.66925
303.03        40.66364
303.48        40.59793
303.94        40.51897
304.39        40.45264
304.84        40.42028
305.30        40.41569
305.75        40.40076
306.20        40.37625
306.66        40.35197
307.11        40.32876
307.57        40.29965
308.02        40.19715
308.47        40.03273
308.93        39.82403
309.38        39.64304
309.83        39.65421
310.29        39.87101
310.74        40.23316
311.19        40.57764
311.65        40.63387
312.10        40.34586
312.55        39.80695
313.00         39.2132
313.46        38.85943
313.91        38.79717
314.36        38.94202
314.82        39.14718
315.27        39.18309
315.72        38.98167
316.18        38.63539
316.63         38.2299
317.08           37.91
317.53        37.71659
317.99        37.59035
318.44        37.49971
318.89        37.38854
319.35         37.2347
319.80        37.06154
320.25        36.87151
320.70        36.66254
321.16        36.43703
321.61        36.20615
322.06        35.97434
322.51        35.75713
322.97        35.55722
323.42        35.37609
323.87        35.23149
324.32        35.15624
324.78        35.13717
325.23        35.18283
325.68        35.21376
326.13        35.10776
326.59        34.84036
327.04        34.45856
327.49        34.05953
327.94        33.80444
328.39         33.7279
328.85        33.77066
329.30        33.87645
329.75        33.87266
330.20        33.70851
330.66        33.42841
331.11        33.11947
331.56         32.8932
332.01        32.78397
332.46        32.75115
332.92        32.73199
333.37         32.6756
333.82        32.54441
334.27        32.37332
334.72        32.19788
335.17        32.06763
335.63         32.0004
336.08        32.00055
336.53         32.0527
336.98        32.14633
337.43        32.26816
337.88        32.40266
338.34        32.54901
338.79        32.73993
339.24        32.95288
339.69        33.17676
340.14         33.3252
340.59         33.2692
341.05         33.0082
341.50        32.58839
341.95         32.1647
342.40        31.97047
342.85        32.05773
343.30        32.36329
343.75        32.74658
344.20        32.97149
344.66        32.97408
345.11        32.81739
345.56        32.61018
346.01        32.52871
346.46        32.61581
346.91        32.80717
347.36        33.01123
347.81        33.09373
348.26        33.02613
348.72        32.86599
349.17        32.68414
349.62        32.60094
350.07        32.64727
350.52        32.78161
350.97         32.9444
351.42        33.04365
351.87        33.04792
352.32        32.98157
352.77        32.88254
353.22        32.80293
353.67        32.75747
354.13        32.73499
354.58        32.69829
355.03        32.59158
355.48        32.40893
355.93        32.17081
356.38          31.953
356.83        31.86455
357.28        31.91613
357.73        32.06791
358.18        32.21055
358.63        32.16798
359.08        31.90282
359.53        31.47409
359.98        30.99588
360.43        30.63761
360.88         30.4383
361.33        30.34748
361.78        30.28758
362.23         30.1354
362.68        29.86444
363.13        29.52605
363.58         29.1833
364.03        28.92569
364.48        28.77553
364.93        28.69867
365.38        28.65724
365.83         28.5949
366.28        28.49135
366.73        28.36201
367.18        28.21964
367.63        28.08409
368.08        27.95753
368.53        27.82534
368.98        27.67749
369.43        27.50052
369.88        27.29354
370.33        27.07037
370.78        26.83387
371.23        26.58912
371.68        26.34457
372.13        26.09822
372.58        25.88136
373.03        25.74003
373.48        25.67553
373.93        25.67371
374.38        25.66885
374.83        25.55597
375.28        25.31789
375.72        24.98404
376.17         24.6495
376.62        24.42784
377.07        24.34589
377.52        24.36807
377.97        24.43327
378.42        24.44409
378.87        24.37091
379.32        24.23833
379.77        24.09351
380.22        24.00438
380.67        23.98152
381.11        24.00789
381.56        24.01279
382.01        23.90822
382.46        23.68711
382.91        23.39925
383.36        23.12613
383.81        22.97482
384.26        22.96081
384.71        23.04333
385.15           23.17
385.60        23.25434
386.05        23.26244
386.50        23.21801
386.95        23.12885
387.40        23.00979
387.85          22.876
388.29        22.71269
388.74        22.56779
389.19        22.45521
389.64        22.37532
390.09         22.3181
390.54        22.27282
390.98        22.21308
391.43        22.14618
391.88        22.08139
392.33        22.01003
392.78        21.91912
393.23        21.81145
393.67        21.67821
394.12        21.57326
394.57        21.53493
395.02        21.56393
395.47        21.63699
395.91        21.70879
396.36        21.69004
396.81        21.57638
397.26        21.40758
397.71        21.22172
398.15        21.08684
398.60        21.04543
399.05        20.98563
399.50        20.93008
399.95        21.06865
400.39        21.32768
400.84        21.32632
401.29        21.07407
401.74        20.92119
402.18        20.89033
402.63        20.76558
403.08        20.58545
403.53        20.50547
403.97        20.53835
404.42         20.6452
404.87        20.76585
405.32         20.7992
405.76        20.71935
406.21        20.56739
406.66        20.40456
407.11        20.32851
407.55        20.36766
408.00        20.48325
408.45        20.61988
408.90        20.66982
409.34        20.60165
409.79        20.45567
410.24        20.29452
410.68        20.19943
411.13         20.1941
411.58        20.25078
412.03        20.32395
412.47        20.33821
412.92        20.26724
413.37        20.14698
413.81        20.02041
414.26        19.96434
414.71        19.98594
415.15        20.06649
415.60        20.16287
416.05         20.2196
416.49        20.21885
416.94        20.17658
417.39        20.11772
417.83        20.07835
418.28        20.06792
418.73         20.0695
419.17        20.07899
419.62        20.09132
420.07         20.1037
420.51        20.11933
420.96        20.12832
421.41         20.1085
421.85        20.05302
422.30        19.96077
422.74         19.8569
423.19        19.87016
423.64        19.97542
424.08        20.03281
424.53        20.01428
424.98        20.02732
425.42        20.07846
425.87        20.04926
426.31        19.95744
426.76        19.97655
427.21        20.05805
427.65        19.91544
428.10        19.63739
428.54        19.56496
428.99        19.72488
429.44        20.01013
429.88        20.29682
430.33        20.31143
430.77        20.09358
431.22        20.05388
431.66        20.21154
432.11        20.25267
432.56        20.19094
433.00        20.29062
433.45         20.4446
433.89        20.32052
434.34        20.04988
434.78        19.55162
435.23        19.95702
435.67        20.01268
436.12        20.00314
436.57        19.97538
437.01        19.93372
437.46        19.89658
437.90        19.85476
438.35        19.74881
438.79        19.62044
439.24        19.59878
439.68         19.6965
440.13        19.87613
440.57        20.06776
441.02        20.17443
441.46        20.16667
441.91        20.02515
442.35        19.82843
442.80        19.88095
443.24        20.11414
443.69        20.15497
444.13        19.99629
444.58        19.94564
445.02         20.0017
445.47        19.98674
445.91        19.91223
446.36        19.89147
446.80        19.92584
447.24        19.98104
447.69        20.03817
448.13        20.06005
448.58        20.04322
449.02         20.0018
449.47        19.95048
449.91        19.90007
450.36        19.86339
450.80         19.8301
451.25        19.81588
451.69        19.83212
452.13        19.87894
452.58        19.94787
453.02        20.01011
453.47        20.02189
453.91         19.9746
454.36        19.88638
454.80        19.77858
455.24        19.68554
455.69         19.6273
456.13        19.58281
456.58        19.57044
457.02        19.58647
457.46        19.63351
457.91        19.70795
458.35        19.77267
458.79        19.77345
459.24        19.71865
459.68          19.616
460.13        19.52056
460.57        19.46845
461.01        19.48551
461.46        19.53982
461.90        19.63215
462.34        19.74701
462.79        19.86391
463.23        19.99154
463.68        20.07959
464.12        20.05935
464.56        19.92328
465.01        19.72463
465.45        19.50607
465.89        19.37859
466.34        19.35793
466.78        19.40901
467.22        19.49979
467.67        19.55314
468.11        19.55636
468.55        19.52681
468.99         19.4827
469.44        19.44967
469.88        19.43931
470.32        19.43717
470.77        19.44827
471.21         19.4872
471.65        19.54934
472.10        19.63273
472.54        19.70924
472.98        19.74042
473.42        19.71951
473.87        19.66512
474.31        19.59146
474.75        19.54069
475.20        19.52837
475.64        19.53568
476.08        19.55831
476.52        19.57768
476.97        19.58876
477.41        19.60922
477.85        19.64248
478.29        19.66405
478.74        19.68814
479.18        19.75958
479.62        19.86287
480.06        19.94189
480.50        19.99254
480.95        20.01979
481.39        20.00229
481.83        20.10028
482.27        20.01835
482.72        20.00378
483.16        19.99958
483.60        19.99837
484.04        19.99029
484.48        20.12343
484.93        20.40691
485.37        20.26673
485.81        20.38322
486.25        20.68355
486.69        20.46881
487.14        20.71029
487.58        21.22669
488.02        21.12706
488.46        20.72679
488.90        21.06147
489.34        20.93022
489.79        21.09231
490.23         21.0953
490.67        21.19202
491.11        21.32845
491.55        21.28955
491.99        21.13677
492.43        21.11452
492.88        21.24855
493.32        21.40262
493.76        21.53956
494.20        21.66967
494.64         21.7856
495.08        21.85031
495.52         21.8703
495.96        21.98414
496.41        22.15815
496.85        22.08989
497.29        21.84653
497.73        22.01056
498.17        22.26332
498.61        22.47299
499.05        22.50912
499.49        22.57279
499.93        22.61715
500.37        22.75972
500.82        22.96437
501.26        23.11298
501.70        23.19109
502.14        23.27873
502.58         23.3818
503.02        23.46243
503.46        23.52101
503.90        23.57411
504.34        23.61173
504.78        23.61617
505.22         23.5907
505.66        23.54257
506.10          23.508
506.54        23.54403
506.98        23.65844
507.42        23.83119
507.86        24.01624
508.30        24.13722
508.74        24.17361
509.18        24.14858
509.62        24.09418
510.06         24.0645
510.50        24.07787
510.94        24.11713
511.38        24.17575
511.82        24.24266
512.26        24.31164
512.70        24.39043
513.14         24.4675
513.58        24.52159
514.02        24.54853
514.46         24.5486
514.90        24.54209
515.34        24.56516
515.78        24.62284
516.22        24.70271
516.66        24.77474
517.10         24.7905
517.54        24.74133
517.98        24.64677
518.42        24.53718
518.86        24.46028
519.30        24.43074
519.74        24.43428
520.18        24.45815
520.62         24.4812
521.06        24.49542
521.50        24.50943
521.93        24.52191
522.37        24.52051
522.81        24.50833
523.25        24.48448
523.69        24.46061
524.13        24.45787
524.57         24.4774
525.01        24.50888
525.45        24.53721
525.89        24.53737
526.32        24.50071
526.76        24.44449
527.20        24.37125
527.64        24.28731
528.08        24.20013
528.52        24.10894
528.96        24.03395
529.40        24.00618
529.83          24.027
530.27         24.0875
530.71        24.15199
531.15        24.16484
531.59        24.11331
532.03        24.01254
532.46        23.89001
532.90        23.80744
533.34        23.77575
533.78        23.76506
534.22        23.75578
534.66        23.74686
535.09        23.71433
535.53        23.61582
535.97        23.47874
536.41        23.40528
536.85         23.4086
537.28        23.43869
537.72         23.4858
538.16        23.55227
538.60         23.6284
539.04        23.71055
539.47        23.78535
539.91        23.84816
540.35        23.89254
540.79        23.92185
541.22         23.9403
541.66        23.96452
542.10        23.99763
542.54        24.03823
542.97        24.08705
543.41         24.1544
543.85        24.23794
544.29         24.3388
544.72        24.44456
545.16        24.55187
545.60        24.65438
546.04        24.75617
546.47         24.8681
546.91        25.00368
547.35        25.16084
547.79        25.33294
548.22        25.50204
548.66         25.6364
549.10        25.76021
549.53           25.87
549.97        25.97717
550.41        26.04137
550.84        26.09511
551.28        26.20792
551.72         26.3538
552.15        26.51161
552.59        26.70898
553.03        26.56251
553.46        26.87718
553.90        26.96636
554.34        27.06431
554.77        27.16396
555.21        27.28023
555.65        27.41444
556.08        27.55209
556.52        27.67746
556.96        27.76471
557.39        27.84987
557.83         27.9103
558.27        27.79946
558.70         27.5843
559.14        27.53658
559.57        27.66029
560.01        27.79673
560.45        27.91216
560.88        28.03843
561.32        28.17377
561.75        28.28666
562.19        28.38086
562.63         28.4376
563.06        28.46414
563.50        28.50752
563.93        28.54872
564.37        28.59572
564.80        28.66396
565.24        28.70159
565.68        28.65069
566.11        29.03736
566.55        28.82037
566.98        28.85109
567.42        28.88157
567.85        29.02655
568.29        29.27533
568.72         29.5091
569.16        29.73436
569.60        29.91336
570.03         30.1371
570.47        30.30411
570.90        30.44633
571.34        30.51227
571.77        30.47529
572.21        30.85526
572.64        30.78802
573.08        30.86243
573.51        30.71222
573.95        30.85464
574.38        31.23249
574.82        31.47804
575.25        31.19464
575.69        31.37363
576.12        31.58232
576.56        31.55694
576.99        31.40531
577.42        31.42766
577.86        31.51401
578.29        32.01015
578.73        31.78016
579.16        31.62043
579.60        31.20628
580.03        31.20492
580.47        31.25105
580.90        31.36944
581.33        31.41676
581.77        31.74309
582.20        31.06683
582.64        31.32285
583.07        31.04915
583.51        31.00214
583.94        30.93638
584.37        30.85479
584.81        30.75751
585.24        30.62264
585.68         30.5448
586.11        30.22275
586.54        30.38004
586.98        30.19245
587.41        29.93341
587.85        29.89587
588.28        29.81828
588.71        29.87909
589.15        29.88216
589.58        29.67218
590.01        29.79119
590.45        29.91026
590.88        30.12626
591.31        30.02906
591.75        29.74826
592.18        29.63799
592.61        29.66073
593.05         30.2648
593.48        30.43559
593.91        29.95411
594.35        30.18217
594.78        30.05445
595.21        30.08757
595.65        30.33469
596.08        30.81296
596.51         30.9469
596.94        30.75603
597.38        30.81093
597.81        31.14693
598.24        31.41628
598.68        31.48848
599.11        31.76656
599.54        32.27394
599.97        32.02725
600.41        32.51063
600.84        32.47915
601.27        32.83965
601.70         33.1478
602.14        33.48282
602.57        33.72688
603.00        33.97249
603.43         33.9712
603.87        34.98011
604.30         35.2942
604.73        35.36083
605.16        35.45471
605.60        35.76131
606.03        35.94046
606.46        36.04493
606.89        36.31565
607.32         37.1111
607.76        37.26349
608.19        37.68673
608.62        37.86463
609.05        38.15852
609.48        38.42851
609.92           39.12
610.35        39.43757
610.78        39.22861
611.21        39.23107
611.64         39.7661
612.07        40.16945
612.50        40.30692
612.94        40.55277
613.37        40.84011
613.80        40.94276
614.23        40.92326
614.66        41.08283
615.09        41.44134
615.52        41.78253
615.96        42.04965
616.39        42.33612
616.82        42.64898
617.25        42.62248
617.68        42.91372
618.11        42.97232
618.54        43.04119
618.97        43.22686
619.40        43.50482
619.84        43.80541
620.27        43.78271
620.70        43.93533
621.13        44.14151
621.56        43.98572
621.99        43.52855
622.42        43.69541
622.85         43.9778
623.28        43.96859
623.71        43.91397
624.14        44.25784
624.57        44.58448
625.00        44.29875
625.43        44.54758
625.86        44.44028
626.29        44.43061
626.72        43.99313
627.15        44.15865
627.58        44.04832
628.01        43.89571
628.44        43.77587
628.87        43.71975
629.30        43.10592
629.73        43.06243
630.16         42.7816
630.59         42.5996
631.02        42.46011
631.45        42.34253
631.88        42.19343
632.31        41.98132
632.74        41.72807
633.17        41.42375
633.60          41.056
634.03        40.63443
634.46        40.16748
634.89        39.68848
635.32        39.26056
635.75        38.90352
636.18        38.56218
636.61        38.24361
637.04        37.97613
637.47        37.75023
637.89        37.55205
638.32        37.33343
638.75        37.05551
639.18        36.71291
639.61        36.31943
640.04        35.92867
640.47        35.62331
640.90        35.42215
641.33        35.30768
641.76        35.23031
642.18        35.11059
642.61        34.91894
643.04        34.68388
643.47        34.46292
643.90        34.34677
644.33         34.3536
644.76        34.45428
645.18        34.58231
645.61        34.62275
646.04        34.55565
646.47        34.42238
646.90        34.30027
647.33        34.30397
647.75        34.45306
648.18        34.75002
648.61        35.14838
649.04        35.44312
649.47        35.57553
649.89        36.12017
650.32          36.151
650.75        36.47103
651.18        36.80006
651.61        37.15783
652.03        37.54224
652.46        37.87659
652.89        38.20512
653.32        38.63119
653.74        39.18018
654.17        39.47498
654.60        40.15387
655.03        40.21249
655.46        40.19399
655.88        40.80396
656.31        42.86609
656.74        44.21385
657.16        44.61456
657.59        45.52322
658.02        43.94021
658.45         43.7296
658.87        43.54159
659.30        44.14556
659.73         43.7886
660.15        44.90379
660.58        44.54113
661.01        44.89608
661.44        45.23543
661.86        45.25247
662.29         45.0155
662.72        45.53089
663.14        45.89371
663.57        46.10964
664.00        45.98518
664.42        46.15297
664.85        46.63789
665.27        47.11227
665.70        47.46576
666.13        47.71025
666.55         47.8246
666.98        47.75851
667.41        47.58248
667.83         47.7224
668.26        47.71909
668.69        47.94463
669.11        48.21465
669.54        48.46489
669.96        48.67354
670.39        48.86079
670.82         49.0412
671.24        49.21206
671.67        49.37232
672.09        49.50434
672.52        49.62561
672.94        49.73804
673.37        49.85117
673.80        49.96355
674.22        50.08324
674.65        50.19071
675.07        50.29849
675.50         50.4049
675.92        50.51408
676.35         50.6229
676.77        50.73347
677.20        50.83992
677.62        50.95683
678.05        51.10749
678.47        51.28924
678.90        51.49662
679.32        51.69034
679.75        51.81898
680.17        51.87204
680.60        51.87038
681.02        51.86056
681.45        51.92181
681.87        52.08431
682.30         52.2911
682.72        52.51589
683.15          52.748
683.57        52.94421
684.00        52.95892
684.42        52.86579
684.85        52.91957
685.27        53.13857
685.70        53.41681
686.12         53.6518
686.54        53.77906
686.97        53.81578
687.39        53.74231
687.82        53.53417
688.24        53.97305
688.66        53.61226
689.09        53.68795
689.51         53.7801
689.94        53.88662
690.36        53.99995
690.78         54.1325
691.21        54.30235
691.63        54.48721
692.06        54.68362
692.48        54.89625
692.90        55.07972
693.33        55.16534
693.75        55.14487
694.17        55.03266
694.60        54.92731
695.02        54.96165
695.44        55.16514
695.87        55.57191
696.29        56.04916
696.71        56.16533
697.14        55.95263
697.56        55.84563
697.98        55.92336
698.41        56.02671
698.83        56.08998
699.25        56.36433
699.68        56.69754
700.10        56.82848
700.52        56.69889
700.94        56.40505
701.37        56.11402
701.79        56.09674
702.21        56.40165
702.64        56.91977
703.06         57.4945
703.48        57.85452
703.90        57.92418
704.33        57.79878
704.75        57.56504
705.17        57.35389
705.59        57.22412
706.01        57.13279
706.44        57.12255
706.86         57.2528
707.28        57.50298
707.70        57.93683
708.12        58.43444
708.55        58.60466
708.97        58.49654
709.39           58.58
709.81        58.85773
710.23        58.95755
710.66        58.87338
711.08        58.85363
711.50        58.89651
711.92        58.89876
712.34        58.86704
712.76          58.849
713.19        58.84393
713.61        58.87705
714.03        58.94288
714.45         59.0352
714.87        59.17038
715.29        59.38092
715.71        59.65915
716.13          59.975
716.56        60.26484
716.98        60.50389
717.40        60.63808
717.82        60.68471
718.24        60.64134
718.66        60.50834
719.08        60.31614
719.50        60.09031
719.92         59.9051
720.34        59.86963
720.76        60.00182
721.19        60.24866
721.61        60.57954
722.03        60.89043
722.45        61.13102
722.87         61.3168
723.29        61.40995
723.71        61.35722
724.13        61.16908
724.55        60.87462
724.97        60.58107
725.39        60.43872
725.81        60.48719
726.23        60.72746
726.65        61.09895
727.07        61.30916
727.49         61.6067
727.91        61.77935
728.33         61.9342
728.75        62.10062
729.17         62.2831
729.59        62.44625
730.01        62.55737
730.43        62.58577
730.85        62.52797
731.27        62.40767
731.69        62.25674
732.10        62.12603
732.52        62.05027
732.94        61.99207
733.36        61.94053
733.78        61.98855
734.20        62.16184
734.62        61.98413
735.04        62.33661
735.46        62.41952
735.88        62.65057
736.30        62.88669
736.72        63.14737
737.13        63.36813
737.55        63.46525
737.97        63.51485
738.39        63.50801
738.81        63.34396
739.23        63.09622
739.65        63.04896
740.06        63.17365
740.48         63.2502
740.90         63.2461
741.32        63.31476
741.74        63.46187
742.16        63.60682
742.57        63.74084
742.99        63.86957
743.41        63.96259
743.83        63.95909
744.25         63.8581
744.67        63.66874
745.08        63.49708
745.50        63.49324
745.92        63.69271
746.34        64.04389
746.75        64.41565
747.17        64.58144
747.59         64.5022
748.01        64.25182
748.42        63.95078
748.84        63.82712
749.26        63.93745
749.68        64.10284
750.09        64.26437
750.51        64.56164
750.93        64.84319
751.35        64.65159
751.76        64.08057
752.18        63.71858
752.60        63.61649
753.01        63.49236
753.43         63.3486
753.85        63.30617
754.27        63.36458
754.68        63.70488
755.10        63.91169
755.52        64.18466
755.93         64.3699
756.35        64.47379
756.77        64.56979
757.18         64.6653
757.60        64.78382
758.02        65.14419
758.43        65.60769
758.85        65.04618
759.26        65.09008
759.68        64.25642
760.10        64.50388
760.51          64.743
760.93        65.23602
761.34        65.38654
761.76        65.37688
762.18        65.31245
762.59        65.37377
763.01         65.6713
763.42        66.16162
763.84        66.36496
764.26        66.26227
764.67         66.0407
765.09        65.79342
765.50          65.668
765.92        65.78605
766.33        65.37621
766.75        65.41791
767.16        65.70584
767.58        64.87392
768.00        64.71103
768.41        64.81948
768.83        65.33204
769.24        65.96789
769.66        66.08263
770.07        65.72826
770.49        65.34357
770.90        65.17924
771.32        65.71064
771.73        66.71288
772.15         67.1036
772.56        66.79888
772.97         66.4042
773.39        66.11402
773.80        65.97623
774.22        66.03754
774.63        66.33167
775.05        66.68735
775.46         66.8909
775.88        66.85086
776.29        66.65915
776.70        66.41985
777.12        66.32536
777.53        66.43051
777.95        66.62263
778.36        66.84051
778.77           66.95
779.19        66.93873
779.60        66.88751
780.02        66.78229
780.43        66.70636
780.84        66.71468
781.26        66.40582
781.67        66.00111
782.09        66.71205
782.50        68.15253
782.91        68.25907
783.33        67.14656
783.74        66.76415
784.15        67.17486
784.57        67.36147
784.98        67.30698
785.39        67.12997
785.81        66.87461
786.22        67.66102
786.63        67.91594
787.04        68.24281
787.46        68.16662
787.87        67.98872
788.28        67.82413
788.70        67.73212
789.11        67.73986
789.52        67.89019
789.93        68.08132
790.35         68.0325
790.76        67.76421
791.17        67.54833
791.58        67.48109
792.00        67.43318
792.41        67.43655
792.82        67.75871
793.23        68.23326
793.65        68.13812
794.06         67.6281
794.47        67.65903
794.88        68.15842
795.29        68.55716
795.71        68.16893
796.12        68.22235
796.53        68.51652
796.94        68.30601
797.35        67.76103
797.76         68.0455
798.18        68.98041
798.59        69.30337
799.00        68.89744
799.41        68.44669
799.82        68.14789
800.23        68.02792
800.64        68.14887
801.06         68.4594
801.47        68.85906
801.88         69.0852
802.29        69.05685
802.70        68.83973
803.11        68.51826
803.52         68.2396
803.93        68.08155
804.34        68.01328
804.75        68.02502
805.17        68.17973
805.58        68.51255
805.99        68.70995
806.40        68.80174
806.81        69.49779
807.22        70.46135
807.63        70.16087
808.04        68.82207
808.45        68.16419
808.86        68.34729
809.27        68.46429
809.68        68.41008
810.09        68.44289
810.50        68.53136
810.91        68.59699
811.32        68.71926
811.73        69.00908
812.14        69.46116
812.55        70.07541
812.96        70.64266
813.37        70.66502
813.78        70.12149
814.19        69.43332
814.60        68.80047
815.01        68.26736
815.42        67.90374
815.83        67.77819
816.24        67.87429
816.65        68.06911
817.05        68.32067
817.46        68.63817
817.87        68.97087
818.28        69.19378
818.69        69.28058
819.10        69.21873
819.51        69.10852
819.92        69.15648
820.33        69.40383
820.74        69.78475
821.14        70.14259
821.55        70.22647
821.96        69.98609
822.37        69.49523
822.78        68.93394
823.19        68.62384
823.60         68.6604
824.00        68.96671
824.41        69.37852
824.82        69.72293
825.23        69.91028
825.64        69.98677
826.04        69.98367
826.45        69.91395
826.86        69.81251
827.27        69.67378
827.68        69.50321
828.08        69.34988
828.49        69.18179
828.90        69.01478
829.31         68.9114
829.72        68.96162
830.12         69.1943
830.53        69.53112
830.94         69.8267
831.35        69.78629
831.75        69.37079
832.16        68.65629
832.57        67.90127
832.97        67.49529
833.38        67.53494
833.79        67.88248
834.20         68.3834
834.60        68.78657
835.01        69.01158
835.42        69.17765
835.82        69.28811
836.23        69.26987
836.64        69.16267
837.04        68.93098
837.45        68.77525
837.86        69.09628
838.26         69.9698
838.67         71.2483
839.08        72.49504
839.48         72.8772
839.89        72.19973
840.29        70.76907
840.70        69.26012
841.11          68.466
841.51        68.58323
841.92         69.3503
842.33        70.46622
842.73        71.38194
843.14        71.76623
843.54        71.82568
843.95        71.67578
844.35        71.55872
844.76        71.53808
845.17        71.52556
845.57        71.46342
845.98        71.25372
846.38        70.90976
846.79        70.48214
847.19        70.09827
847.60        69.91675
848.00        69.97776
848.41        70.20335
848.81        70.48172
849.22        70.54095
849.62        70.36215
850.03        70.02312
850.43        69.66099
850.84        69.42976
851.24        69.43403
851.65        69.55545
852.05        69.88008
852.46        70.42885
852.86        71.13386
853.27        71.93508
853.67        72.55918
854.07        72.76011
854.48        72.48193
854.88        71.82597
855.29        70.93063
855.69        70.20698
856.10        69.74935
856.50        69.56785
856.90        69.55498
857.31        69.52586
857.71        69.47225
858.12        69.38508
858.52        69.37778
858.92        69.51004
859.33         69.7634
859.73        70.13326
860.13        70.42885
860.54        70.38007
860.94        69.98298
861.34        69.30688
861.75        68.59949
862.15        68.31078
862.55        68.52837
862.96        69.09538
863.36        69.81303
863.76        70.24319
864.17        70.23602
864.57          69.952
864.97        69.48677
865.38        69.00015
865.78        68.59577
866.18        68.21896
866.58        67.93574
866.99        67.87095
867.39        68.06461
867.79        68.48109
868.19        69.00771
868.60        69.43253
869.00        69.72279
869.40        69.89056
869.80        69.96703
870.21        70.02863
870.61        70.15215
871.01         70.2491
871.41         70.2497
871.81        70.05974
872.22        69.67008
872.62        69.13227
873.02        68.57861
873.42        68.21851
873.82        68.12328
874.22        68.24417
874.63         68.4664
875.03        68.61981
875.43        68.63257
875.83        68.54189
876.23        68.43009
876.63        68.42803
877.03        68.56687
877.44        68.78096
877.84         68.9789
878.24        69.02414
878.64        68.84765
879.04        68.36922
879.44        67.82938
879.84        67.68987
880.24        67.99204
880.64        68.56501
881.04        69.06944
881.44        68.97018
881.84        68.17278
882.24        66.89286
882.65        65.56004
883.05        64.82675
883.45        64.87257
883.85        65.51723
884.25        66.47838
884.65        67.26525
885.05        67.68618
885.45        67.84692
885.85        67.88457
886.25        68.01788
886.65        68.30054
887.05        68.64524
887.45        68.89643
887.85        68.82529
888.25        68.40376
888.65        67.74281
889.04        67.08147
889.44         66.8021
889.84        66.96413
890.24        67.43871
890.64        68.00059
891.04        68.27431
891.44        68.15772
891.84        67.79453
892.24        67.31132
892.64         66.8858
893.04        66.60597
893.44        66.44003
893.83        66.45026
894.23        66.69028
894.63        67.16492
895.03        67.81638
895.43        68.56204
895.83        69.26546
896.23        69.82622
896.63        70.21296
897.02        70.31184
897.42        69.99728
897.82        69.29554
898.22        68.33402
898.62        67.28196
899.01        66.37075
899.41        65.71638
899.81        65.26927
900.21        65.11093
900.61        65.34976
901.00        65.94574
901.40        66.82403
901.80        67.71249
902.20        68.17317
902.59        68.10867
902.99        67.62214
903.39        66.92448
903.79        66.38995
904.18        66.13837
904.58        66.07063
904.98        66.16043
905.38        66.36657
905.77        66.65539
906.17        67.08418
906.57        67.50433
906.96        67.65302
907.36        67.46938
907.76        67.01722
908.15        66.59078
908.55        66.65198
908.95        67.29415
909.34        68.38119
909.74         69.5034
910.14        70.07189
910.53        69.90149
910.93        69.19394
911.33        68.24439
911.72        67.49979
912.12        67.16141
912.52        67.10411
912.91        67.17796
913.31        67.17608
913.70        67.04111
914.10        66.81623
914.49        66.69028
914.89        66.87669
915.29        67.42887
915.68        68.26593
916.08        69.03214
916.47        69.22356
916.87        68.75459
917.26          67.772
917.66        66.75613
918.05        66.27823
918.45        66.47299
918.84        67.23032
919.24        68.14941
919.64        68.65585
920.03        68.58873
920.42        68.07529
920.82        67.53526
921.21        67.56789
921.61        68.27317
922.00        69.48582
922.40        70.70396
922.79         71.1995
923.19        70.75628
923.58        69.68678
923.98        68.46426
924.37        67.69968
924.77        67.56873
925.16        67.82845
925.55        68.33124
925.95        68.79965
926.34        69.11372
926.74        69.35093
927.13        69.39226
927.52         68.9727
927.92        68.14843
928.31         66.9918
928.70        65.85899
929.10        65.28056
929.49        65.35299
929.89        65.88322
930.28        66.69939
930.67        67.36119
931.07        67.67367
931.46        67.83613
931.85        67.76369
932.24        67.38052
932.64        66.78055
933.03        65.94966
933.42        65.26886
933.82        65.29902
934.21        66.11953
934.60        67.61518
934.99        69.29646
935.39        70.25494
935.78        70.25746
936.17        69.44589
936.56        68.29816
936.96        67.58636
937.35        67.51859
937.74        67.88314
938.13        68.28196
938.53          68.109
938.92        67.26221
939.31        66.02105
939.70         64.8121
940.09         64.2123
940.49        64.31931
940.88        64.97347
941.27        65.90352
941.66         66.6092
942.05        66.91444
942.44        66.98605
942.84        66.97098
943.23        67.09541
943.62        67.43375
944.01        67.83716
944.40        68.31466
944.79        68.92204
945.18        69.60704
945.57        70.34466
945.97        70.83765
946.36        70.69054
946.75        69.81302
947.14        68.41486
947.53        66.89604
947.92        65.81158
948.31        65.31416
948.70        65.29122
949.09        65.58505
949.48        65.90028
949.87        66.12409
950.26        66.32345
950.65        66.57726
951.04        67.01725
951.43        67.63299
951.82        68.30183
952.21        68.83838
952.60        68.98689
952.99        68.71503
953.38        68.15453
953.77        67.46815
954.16        66.90808
954.55        66.54661
954.94        66.27572
955.33        66.14147
955.72        66.20533
956.11        66.44588
956.50        66.90639
956.89        67.24713
957.28        66.88868
957.66        65.76398
958.05        64.10803
958.44        62.55663
958.83        62.03693
959.22        62.69367
959.61        64.25585
960.00        66.09235
960.39        67.01198
960.78        66.64363
961.16        65.36279
961.55        63.80683
961.94        62.81437
962.33        62.62159
962.72        63.00677
963.11        63.70738
963.49        64.26363
963.88         64.4007
964.27        64.25789
964.66         64.1111
965.04        64.37976
965.43        65.09185
965.82         66.1724
966.21         67.1086
966.60        66.97511
966.98        65.59116
967.37         63.4052
967.76        61.32274
968.15        60.47514
968.53        61.04817
968.92        62.76117
969.31         64.9165
969.69        66.08481
970.08        65.70512
970.47        64.24909
970.86        62.59571
971.24        61.98969
971.63        62.70452
972.02         64.3781
972.40        66.39613
972.79        67.28945
973.17        66.66684
973.56        65.07738
973.95        63.28788
974.33        62.25892
974.72        62.21342
975.11        62.81589
975.49        63.79375
975.88         64.5686
976.26        64.93377
976.65        65.02441
977.04        64.91738
977.42        64.68154
977.81        64.34271
978.19        63.84409
978.58        63.38364
978.96        63.26932
979.35        63.53734
979.74        64.14658
980.12        64.92862
980.51        65.32554
980.89        65.30492
981.28        64.98598
981.66        64.61404
982.05        64.52038
982.43        64.80616
982.82        65.34799
983.20        66.15311
983.59        67.11547
983.97        68.21617
984.35        69.42181
984.74        70.44335
985.12        71.04996
985.51        71.10661
985.89        70.69137
986.28         70.1128
986.66        69.77512
987.04        69.85535
987.43        70.22693
987.81        70.73085
988.20        70.91533
988.58        70.67158
988.96        70.05112
989.35        69.31013
989.73        68.78831
990.12        68.54295
990.50        68.54253
990.88        68.43935
991.27        67.67501
991.65        66.22654
992.03        64.35651
992.42        62.74954
992.80        62.29318
993.18        63.14771
993.56        65.07325
993.95        67.32896
994.33        68.65207
994.71        68.47826
995.10        67.27924
995.48        65.72269
995.86        64.90414
996.24        65.09483
996.63        65.80447
997.01        66.91502
997.39        67.82401
997.77        68.21542
998.15        68.42056
998.54        68.22228
998.92        67.13175
999.30        65.31224
999.68        62.94025
1000.06        60.95961
1000.45        60.71868
1000.83         62.5456
1001.21        66.20361
1001.59        70.67442
1001.97        73.42024
1002.35        73.40277
1002.73        71.34595
1003.12        68.65209
1003.50        67.08344
1003.88        67.17645
1004.26        68.32103
1004.64        70.10019
1005.02        71.61395
1005.40         72.3811
1005.78        72.84653
1006.16        72.81052
1006.54        71.88892
1006.92        70.24721
1007.30        68.04012
1007.69        66.20259
1008.07         65.9405
1008.45        67.63652
1008.83        71.05244
1009.21        75.34319
1009.59        78.26522
1009.97        78.62559
1010.35        76.94473
1010.73         74.0357
1011.11        71.15546
1011.49        68.85414
1011.86        66.91952
1012.24        65.44721
1012.62        64.46751
1013.00         63.9068
1013.38        63.77594
1013.76        64.11085
1014.14        64.81835
1014.52        65.75269
1014.90        66.84751
1015.28        67.66846
1015.66        67.72643
1016.04        66.98592
1016.41         65.5005
1016.79        63.87623
1017.17        63.33359
1017.55        64.13541
1017.93        65.89036
1018.31        67.70509
1018.69        68.27913
1019.06        67.34465
1019.44        65.17869
1019.82        62.42496
1020.20        60.73296
1020.58        60.79113
1020.95        61.90546
1021.33        63.45816
1021.71        64.60844
1022.09        65.26054
1022.46        66.00653
1022.84        66.52646
1023.22        66.16521
1023.60        64.87427
1023.97         62.5256
1024.35        60.96704
1024.73         62.4647
