SpectraSmart Spectrum 2.9.0.0
--------- Device Information -----------
Spectrum Name :  反射率_0
Saving Time :  2024/04/26 23:30:10
Spectro-Module Model Name : SE2030-DUVN
Spectro-Module Serial Number : OS361AC55029948
Wavelength Start : 200
Wavelength End : 1025
Wavelength Unit : Wavelength(nm)
Spectrum Unit : Reflectance(%)
-----------Spectrum Setting ------------
Integration Time : 20ms
Average : 10
Boxcar : 0
Background removal :  enabled
linearity correction :  enabled
SC :  disabled
Intensity correction :  disabled
DWT denoise :  enabled
savitzky-golay :  disabled
FFT :  disabled
Running average :  disabled
Kalman :  disabled
High pass :  disabled
---------------BEGIN--------------------
Wavelength(nm)             Reflectance(%)
200.29               0
200.75        36.07206
201.21        37.63964
201.67        38.55393
202.13        38.84889
202.58        38.55963
203.04        37.83847
203.50        37.05009
203.96        37.13018
204.42        38.64753
204.88        41.59775
205.34        44.47786
205.80        44.67823
206.26        41.83242
206.72        37.07706
207.18        32.64639
207.64        30.18127
208.10        29.54373
208.55        30.63844
209.01        32.04848
209.47         30.1491
209.93        25.19297
210.39        20.60388
210.85         18.2406
211.31        18.81462
211.77        22.84414
212.23        33.21798
212.69        61.91512
213.14        120.5685
213.60        136.8358
214.06        110.2536
214.52         86.7582
214.98        73.62714
215.44        65.29825
215.90        56.96461
216.36        50.17921
216.81        48.40736
217.27         53.1646
217.73        66.79414
218.19        86.54198
218.65        92.86073
219.11        79.62704
219.57        60.39324
220.02        47.95404
220.48        48.45064
220.94        61.08847
221.40         87.1764
221.86        126.6234
222.32        155.7089
222.77        151.4597
223.23        128.3431
223.69        103.9771
224.15        88.92075
224.61        81.97498
225.06        78.47762
225.52        77.24059
225.98        76.89143
226.44        76.97889
226.90        78.07622
227.36        79.70707
227.81        80.73536
228.27        81.04671
228.73        80.60094
229.19        80.24365
229.65        81.14909
230.10        83.29482
230.56        86.35349
231.02        89.09714
231.48        89.62457
231.93        87.69995
232.39        84.56512
232.85        81.54428
233.31        80.40506
233.77        81.29638
234.22         83.5546
234.68         86.2902
235.14        88.19043
235.60        88.79873
236.05        88.55804
236.51        87.52233
236.97        86.10389
237.43        84.59373
237.88         82.9191
238.34        81.28132
238.80        80.31694
239.26        80.20051
239.71        81.41255
240.17        83.35202
240.63        84.98497
241.08        85.75529
241.54        85.14411
242.00        84.36761
242.46        85.94463
242.91        91.85262
243.37        102.7654
243.83        119.0427
244.28        132.9327
244.74         132.513
245.20        117.9102
245.66        99.55882
246.11        86.22655
246.57        78.46961
247.03        73.54016
247.48        69.64908
247.94        65.00935
248.40        60.57069
248.85        57.37389
249.31         55.6328
249.77         54.7818
250.22        54.29496
250.68        53.72844
251.14        53.32971
251.59        53.90895
252.05         55.8582
252.51        59.10538
252.96        61.07722
253.42        59.81846
253.88        56.20876
254.33          51.406
254.79        48.95943
255.25        51.85098
255.70        59.52733
256.16         70.4453
256.62        80.38073
257.07        82.75459
257.53        78.82414
257.99        72.57192
258.44        67.18371
258.90        65.50325
259.35        66.42482
259.81        68.91065
260.27        71.39608
260.72        72.03655
261.18        71.05602
261.63        69.06068
262.09        67.35401
262.55         66.7136
263.00        66.98127
263.46        67.86594
263.91        68.54232
264.37        68.37543
264.83        67.29105
265.28        65.62622
265.74        64.09681
266.19        63.20023
266.65         63.0918
267.11        63.43499
267.56        63.90091
268.02        63.99106
268.47        63.55376
268.93        62.80878
269.38        61.86717
269.84        60.97014
270.30        60.17926
270.75        59.39216
271.21        58.68925
271.66        58.12495
272.12        57.69653
272.57         57.3588
273.03        56.97271
273.48        56.27519
273.94        55.29961
274.39        54.10067
274.85        52.91838
275.31        51.90199
275.76        51.05777
276.22        50.37718
276.67        49.76593
277.13        49.23228
277.58        48.67642
278.04        48.14469
278.49        47.51916
278.95        46.78215
279.40        45.88136
279.86        44.94737
280.31         43.9751
280.77        43.11147
281.22        42.33051
281.68        41.67369
282.13        41.11263
282.59         40.7342
283.04        40.47026
283.50        40.31419
283.95        40.14489
284.41        39.80698
284.86        39.26768
285.32        38.61839
285.77        37.93357
286.22        37.39944
286.68        37.04416
287.13        36.76303
287.59        36.51889
288.04        36.19373
288.50        35.79281
288.95        35.33479
289.41        34.84316
289.86        34.26178
290.32        33.64704
290.77        32.99342
291.22        32.41372
291.68        32.06008
292.13        31.93266
292.59        31.99333
293.04        32.12692
293.50        32.17464
293.95        32.08403
294.40         31.9132
294.86        31.72552
295.31        31.61164
295.77        31.61292
296.22        31.68893
296.68        31.83838
297.13        32.04306
297.58        32.29432
298.04        32.59728
298.49        32.92421
298.95        33.24478
299.40        33.53961
299.85        33.81496
300.31        34.07409
300.76        34.31723
301.21        34.54796
301.67        34.76957
302.12        34.97653
302.58        35.22152
303.03        35.48053
303.48        35.76304
303.94        36.03332
304.39        36.19979
304.84        36.26872
305.30        36.28189
305.75        36.28543
306.20        36.40565
306.66        36.66962
307.11        37.01633
307.57        37.38198
308.02         37.6212
308.47        37.71209
308.93        37.69978
309.38        37.63372
309.83        37.64109
310.29        37.74747
310.74        37.90879
311.19        38.04993
311.65        38.04551
312.10        37.86937
312.55        37.57318
313.00        37.25923
313.46        37.07452
313.91         37.0376
314.36        37.11027
314.82        37.20604
315.27        37.19585
315.72        37.04016
316.18        36.79002
316.63         36.5014
317.08        36.27676
317.53        36.14166
317.99        36.05736
318.44        35.98611
318.89        35.85807
319.35        35.65442
319.80        35.39904
320.25        35.12752
320.70         34.8935
321.16        34.70864
321.61        34.56771
322.06        34.43075
322.51        34.23821
322.97        33.97234
323.42        33.65433
323.87         33.3413
324.32        33.12975
324.78        33.02723
325.23        33.02688
325.68        33.02327
326.13        32.84914
326.59        32.47162
327.04        31.95751
327.49        31.43822
327.94        31.12255
328.39        31.05252
328.85        31.15087
329.30        31.32549
329.75        31.34594
330.20        31.14416
330.66        30.78813
331.11        30.38317
331.56         30.0731
332.01        29.90407
332.46         29.8174
332.92        29.77042
333.37        29.74379
333.82        29.69734
334.27        29.65495
334.72        29.58156
335.17        29.40967
335.63        29.13493
336.08        28.79517
336.53        28.46437
336.98         28.2816
337.43        28.27984
337.88        28.40992
338.34        28.61195
338.79         28.8066
339.24        28.93852
339.69         29.0334
340.14         29.0486
340.59        28.92157
341.05        28.66989
341.50        28.31272
341.95          27.968
342.40        27.82147
342.85        27.90668
343.30        28.16382
343.75        28.48267
344.20        28.67568
344.66        28.68787
345.11        28.57434
345.56        28.38185
346.01        28.18868
346.46        28.03434
346.91        27.89853
347.36        27.80067
347.81        27.77668
348.26        27.82415
348.72        27.93222
349.17        28.06201
349.62        28.15821
350.07        28.19996
350.52        28.20148
350.97        28.14882
351.42        28.02727
351.87        27.84802
352.32        27.61973
352.77        27.40416
353.22        27.29104
353.67        27.29314
354.13        27.38805
354.58         27.5041
355.03        27.51921
355.48        27.40359
355.93        27.19575
356.38        26.96598
356.83        26.82129
357.28        26.78261
357.73        26.80795
358.18        26.84362
358.63        26.80598
359.08        26.67078
359.53        26.46889
359.98        26.22802
360.43        25.98518
360.88        25.75228
361.33        25.51573
361.78        25.27761
362.23        25.04455
362.68        24.82279
363.13        24.62477
363.58        24.44041
364.03         24.2468
364.48        24.04083
364.93        23.82448
365.38        23.63087
365.83        23.51656
366.28        23.48565
366.73        23.51265
367.18        23.53646
367.63        23.46301
368.08        23.27226
368.53        22.99526
368.98        22.68353
369.43        22.42026
369.88        22.23137
370.33        22.09342
370.78        21.98611
371.23        21.87521
371.68        21.74878
372.13        21.62315
372.58        21.50076
373.03        21.38013
373.48        21.26267
373.93        21.14423
374.38        21.03099
374.83        20.93786
375.28        20.86498
375.72        20.79844
376.17        20.74092
376.62        20.67057
377.07          20.583
377.52        20.48557
377.97        20.37729
378.42        20.25999
378.87        20.13795
379.32        20.00884
379.77        19.89126
380.22        19.81005
380.67        19.76571
381.11        19.75963
381.56        19.74425
382.01        19.66095
382.46        19.50435
382.91        19.30005
383.36        19.10625
383.81        19.00331
384.26         18.9991
384.71        19.06292
385.15        19.14161
385.60        19.14928
386.05        19.06286
386.50          18.916
386.95         18.7434
387.40        18.59838
387.85        18.50165
388.29        18.42539
388.74         18.3893
389.19        18.38065
389.64        18.38773
390.09        18.40182
390.54         18.4073
390.98        18.37187
391.43        18.30068
391.88        18.20866
392.33        18.09206
392.78        17.94457
393.23        17.77964
393.67        17.59951
394.12        17.46979
394.57        17.45159
395.02        17.54912
395.47        17.73044
395.91        17.93898
396.36        18.06428
396.81        18.08092
397.26        18.02142
397.71        17.90885
398.15        17.79257
398.60        17.71442
399.05        17.58894
399.50        17.45414
399.95        17.49346
400.39        17.65348
400.84        17.61756
401.29        17.39695
401.74        17.28063
402.18        17.28462
402.63        17.22959
403.08        17.13791
403.53        17.12429
403.97        17.19296
404.42        17.30986
404.87        17.42331
405.32        17.44982
405.76        17.36947
406.21        17.21794
406.66        17.05221
407.11        16.96208
407.55        16.97569
408.00        17.06328
408.45        17.17876
408.90         17.2297
409.34        17.18941
409.79        17.09067
410.24        16.98991
410.68        16.96247
411.13        17.02762
411.58        17.15711
412.03         17.2974
412.47        17.35757
412.92        17.30676
413.37         17.1835
413.81        17.04027
414.26        16.96572
414.71        16.97309
415.15        17.04133
415.60        17.12995
416.05        17.18271
416.49        17.18227
416.94        17.14817
417.39        17.10398
417.83        17.08285
418.28        17.09306
418.73        17.11644
419.17        17.14961
419.62         17.1899
420.07         17.2321
420.51        17.27598
420.96        17.30552
421.41        17.29043
421.85        17.22512
422.30        17.11704
422.74        16.99607
423.19        16.98386
423.64        17.06405
424.08        17.11589
424.53        17.11944
424.98        17.17353
425.42        17.28053
425.87         17.3301
426.31        17.32444
426.76         17.3958
427.21        17.49592
427.65        17.38081
428.10        17.12184
428.54         17.0105
428.99        17.07668
429.44        17.23244
429.88         17.4008
430.33        17.39272
430.77        17.24555
431.22        17.29428
431.66        17.52201
432.11        17.59821
432.56        17.51745
433.00        17.52634
433.45        17.55726
433.89        17.37053
434.34         17.1042
434.78        16.69879
435.23        17.07404
435.67        17.16778
436.12        17.20526
436.57         17.2266
437.01        17.24739
437.46        17.30084
437.90        17.37395
438.35        17.40281
438.79        17.37846
439.24        17.35087
439.68        17.32615
440.13        17.29372
440.57        17.25875
441.02        17.25023
441.46        17.27044
441.91        17.26476
442.35        17.23772
442.80        17.36716
443.24        17.57588
443.69        17.56579
444.13        17.36255
444.58        17.28378
445.02        17.34237
445.47        17.36574
445.91        17.34777
446.36        17.36473
446.80        17.41165
447.24        17.46899
447.69        17.52751
448.13        17.56393
448.58        17.57664
449.02        17.57017
449.47        17.55477
449.91        17.53731
450.36        17.52721
450.80        17.51934
451.25        17.51908
451.69        17.52351
452.13        17.53313
452.58        17.54404
453.02        17.55418
453.47        17.56218
453.91        17.56628
454.36        17.57112
454.80        17.56176
455.24        17.51397
455.69        17.43389
456.13        17.31994
456.58        17.22348
457.02        17.19343
457.46        17.24352
457.91        17.35383
458.35        17.46342
458.79        17.48009
459.24        17.40172
459.68        17.25099
460.13        17.10258
460.57        17.02379
461.01        17.04511
461.46        17.12779
461.90        17.24976
462.34        17.35974
462.79        17.43061
463.23        17.48184
463.68        17.49825
464.12        17.46653
464.56        17.38767
465.01        17.28844
465.45         17.1738
465.89        17.09894
466.34        17.07228
466.78        17.07933
467.22        17.11285
467.67        17.14133
468.11        17.16418
468.55        17.18094
468.99        17.19726
469.44        17.22011
469.88        17.25109
470.32        17.28332
470.77        17.30943
471.21        17.32308
471.65        17.32141
472.10        17.31078
472.54        17.29415
472.98        17.28273
473.42        17.27944
473.87        17.28587
474.31        17.29081
474.75         17.2932
475.20        17.29649
475.64        17.29732
476.08        17.29956
476.52        17.29889
476.97        17.29648
477.41        17.30156
477.85        17.32515
478.29        17.36003
478.74        17.41858
479.18        17.53736
479.62        17.68566
480.06        17.77757
480.50        17.80324
480.95        17.79285
481.39        17.75167
481.83        17.78623
482.27        17.76406
482.72        17.79241
483.16        17.83624
483.60        17.89717
484.04        17.96767
484.48        18.08913
484.93        18.26034
485.37        18.31759
485.81        18.32331
486.25        18.49372
486.69        18.15177
487.14        18.21417
487.58        18.74564
488.02        18.86205
488.46        18.49093
488.90        18.70604
489.34        18.57334
489.79        18.78396
490.23        18.97268
490.67        19.12511
491.11        19.20617
491.55         19.2024
491.99        19.16519
492.43        19.19565
492.88        19.31302
493.32        19.45198
493.76        19.59019
494.20        19.73767
494.64        19.89146
495.08        20.00797
495.52        20.08982
495.96        20.26741
496.41        20.49695
496.85        20.48786
497.29        20.29641
497.73        20.43539
498.17        20.63303
498.61        20.86513
499.05        20.99099
499.49        21.06911
499.93         21.0498
500.37        21.12121
500.82        21.26815
501.26        21.37708
501.70        21.44425
502.14        21.54536
502.58        21.68669
503.02        21.83436
503.46        21.98202
503.90        22.13688
504.34        22.27274
504.78        22.34604
505.22        22.35147
505.66        22.30424
506.10        22.24176
506.54        22.22571
506.98        22.27284
507.42        22.36534
507.86        22.48565
508.30        22.60196
508.74        22.70062
509.18        22.79179
509.62        22.86752
510.06        22.91565
510.50        22.93649
510.94        22.92938
511.38        22.91817
511.82        22.94336
512.26        23.01387
512.70        23.12243
513.14        23.23778
513.58        23.30707
514.02        23.31886
514.46        23.28738
514.90         23.2502
515.34        23.26878
515.78         23.3535
516.22        23.47972
516.66        23.60385
517.10        23.65755
517.54        23.62478
517.98        23.53139
518.42        23.40938
518.86        23.30893
519.30        23.24905
519.74        23.21662
520.18        23.20732
520.62         23.2132
521.06        23.22914
521.50        23.26028
521.93        23.29855
522.37        23.32014
522.81        23.32131
523.25         23.3003
523.69        23.26854
524.13         23.2473
524.57        23.23953
525.01        23.23896
525.45        23.22711
525.89        23.17442
526.32          23.076
526.76        22.95134
527.20        22.82601
527.64        22.74051
528.08        22.70372
528.52        22.70131
528.96        22.71516
529.40        22.71628
529.83        22.69462
530.27        22.66131
530.71        22.61629
531.15        22.56227
531.59        22.50345
532.03        22.43644
532.46        22.36938
532.90        22.33266
533.34        22.32475
533.78        22.32442
534.22        22.31417
534.66        22.29315
535.09        22.24071
535.53        22.11736
535.97        21.94867
536.41         21.8321
536.85        21.78262
537.28         21.7544
537.72        21.75184
538.16        21.79667
538.60        21.88281
539.04        22.00291
539.47        22.12111
539.91        22.19621
540.35        22.21614
540.79        22.19454
541.22        22.16476
541.66        22.18958
542.10        22.28091
542.54        22.42106
542.97        22.57832
543.41        22.71207
543.85        22.80793
544.29        22.88225
544.72        22.95043
545.16        23.05122
545.60        23.18894
546.04        23.35373
546.47        23.53228
546.91        23.70544
547.35        23.86372
547.79        24.00292
548.22        24.12526
548.66        24.28428
549.10         24.4213
549.53        24.59451
549.97        24.77119
550.41        24.88726
550.84        24.96573
551.28        25.08315
551.72        25.22995
552.15        25.40762
552.59        25.64684
553.03        25.56806
553.46        25.93331
553.90        26.06409
554.34        26.18229
554.77        26.29039
555.21        26.40643
555.65        26.53652
556.08        26.67082
556.52        26.79165
556.96        26.88464
557.39        27.00193
557.83        27.12141
558.27        27.09334
558.70        26.96012
559.14        26.95152
559.57        27.06549
560.01        27.15991
560.45        27.22103
560.88        27.31243
561.32        27.44192
561.75        27.56075
562.19        27.66926
562.63        27.76365
563.06        27.83597
563.50        27.88918
563.93        27.90901
564.37        27.94662
564.80        28.02049
565.24        28.05651
565.68        27.99465
566.11        28.35864
566.55        28.13257
566.98        28.13694
567.42        28.14465
567.85        28.30562
568.29        28.59988
568.72         28.8751
569.16        29.13382
569.60         29.2941
570.03        29.44513
570.47        29.59332
570.90        29.81603
571.34         29.5849
571.77        29.97685
572.21        30.17689
572.64        30.32225
573.08        30.50704
573.51        30.70577
573.95        30.69881
574.38        30.59471
574.82        30.88315
575.25        30.76857
575.69         30.9278
576.12        31.08755
576.56        31.06893
576.99        30.99882
577.42        30.99729
577.86        31.31647
578.29        31.58555
578.73        31.25046
579.16         31.1003
579.60          30.934
580.03        30.95491
580.47        30.73374
580.90         31.0559
581.33         30.9435
581.77        31.07188
582.20        30.55594
582.64        30.56818
583.07        30.37172
583.51        30.30623
583.94        30.28784
584.37        30.29177
584.81        30.21175
585.24        30.06942
585.68        29.93414
586.11        29.61971
586.54        29.74163
586.98        29.46456
587.41        29.47349
587.85        29.31266
588.28        29.15471
588.71        29.30628
589.15         29.2467
589.58         29.1438
590.01        29.45315
590.45        29.26853
590.88        29.38394
591.31        29.21304
591.75         29.0704
592.18        28.97895
592.61        28.91887
593.05        29.55033
593.48        29.82843
593.91        29.47309
594.35         29.4734
594.78        29.31544
595.21         29.4145
595.65        29.67996
596.08        30.13075
596.51        30.37865
596.94        30.30714
597.38        30.46154
597.81        30.80966
598.24        31.04333
598.68        31.21733
599.11        31.45584
599.54        31.79703
599.97        32.01374
600.41        32.43414
600.84        32.60044
601.27         33.0872
601.70        33.50679
602.14        33.92542
602.57        34.30002
603.00        34.70158
603.43        34.59893
603.87        35.36442
604.30        35.75949
604.73        36.16396
605.16        36.33506
605.60        36.86373
606.03        37.07526
606.46        37.18336
606.89        37.77735
607.32        38.73718
607.76        39.16755
608.19        39.56792
608.62        39.79709
609.05        40.15384
609.48        40.46463
609.92        41.24773
610.35        41.68317
610.78        41.49999
611.21        41.93478
611.64        41.93541
612.07        42.42992
612.50        42.83907
612.94        43.22859
613.37        43.50561
613.80        43.60395
614.23         43.6195
614.66        43.92496
615.09        44.49418
615.52        44.81145
615.96        44.83735
616.39        45.24886
616.82        45.46774
617.25        45.72288
617.68        45.86966
618.11         46.1828
618.54        46.60357
618.97        46.90502
619.40        46.90871
619.84        47.07891
620.27        47.24232
620.70        47.39482
621.13        47.46832
621.56        47.42764
621.99         47.3081
622.42        47.26845
622.85        47.34855
623.28        47.41315
623.71        47.42157
624.14        47.67849
624.57        47.75741
625.00        47.62625
625.43        47.70279
625.86        47.61996
626.29        47.58919
626.72        47.13134
627.15        47.19868
627.58        47.00912
628.01        46.79787
628.44        46.57185
628.87        46.34988
629.30        45.98598
629.73        45.46507
630.16        45.57562
630.59        45.05822
631.02        44.91027
631.45        44.72842
631.88        44.49703
632.31         44.1888
632.74        43.84781
633.17         43.4484
633.60        43.02293
634.03        42.56957
634.46        42.08996
634.89        41.58714
635.32        41.07736
635.75        40.57285
636.18        40.03474
636.61        39.50154
637.04        39.05114
637.47        38.68943
637.89        38.38966
638.32        38.09636
638.75        37.75782
639.18         37.3629
639.61        36.93295
640.04        36.51319
640.47        36.17039
640.90        35.92068
641.33        35.74723
641.76        35.61618
642.18         35.4773
642.61        35.30692
643.04        35.12436
643.47        34.96655
643.90        34.89162
644.33        34.90864
644.76        34.99674
645.18        35.10798
645.61        35.15721
646.04        35.13541
646.47        35.07825
646.90        35.04346
647.33        35.12394
647.75        35.33215
648.18        35.64722
648.61        36.05705
649.04        36.46728
649.47        36.79228
649.89        37.48908
650.32        37.58372
650.75        37.96001
651.18        38.36987
651.61        38.89484
652.03        39.52944
652.46        40.15006
652.89        40.72883
653.32         41.2744
653.74        41.88135
654.17        42.20163
654.60        43.10174
655.03        43.60489
655.46        43.70488
655.88        44.32445
656.31        46.32125
656.74        47.17701
657.16        47.49632
657.59        48.32249
658.02        47.19741
658.45        48.44268
658.87        48.33248
659.30        48.62914
659.73        49.16681
660.15        50.07359
660.58        50.04844
661.01         50.4136
661.44        50.79787
661.86        50.87875
662.29        50.71474
662.72        51.27745
663.14        51.58116
663.57        51.92905
664.00        52.07188
664.42        52.43514
664.85        53.02959
665.27         53.6434
665.70        54.13821
666.13        54.42677
666.55        54.48446
666.98        54.29264
667.41        53.96393
667.83        54.02982
668.26        53.98665
668.69        54.24041
669.11        54.57719
669.54        54.91391
669.96        55.21474
670.39        55.50284
670.82        55.76854
671.24        55.96871
671.67        56.09794
672.09        56.14262
672.52        56.15823
672.94        56.22358
673.37        56.35456
673.80        56.48821
674.22        56.62949
674.65        56.78857
675.07        56.97039
675.50        57.14684
675.92          57.304
676.35        57.42052
676.77        57.49518
677.20          57.529
677.62        57.55633
678.05        57.63429
678.47        57.77203
678.90        57.95906
679.32        58.15798
679.75        58.30455
680.17        58.37806
680.60        58.42704
681.02        58.49145
681.45        58.48977
681.87        58.66706
682.30          58.826
682.72        59.01776
683.15        59.16977
683.57         59.2849
684.00        59.37611
684.42        59.47395
684.85        59.62591
685.27         59.8283
685.70        60.08325
686.12        60.32951
686.54        60.45828
686.97        60.46639
687.39        60.45468
687.82        60.45053
688.24        60.46273
688.66        60.50842
689.09         60.5831
689.51        60.68521
689.94        60.82682
690.36        60.96598
690.78        60.98041
691.21        60.84826
691.63        60.91192
692.06        61.16027
692.48        61.44286
692.90        61.66371
693.33        61.75502
693.75        61.69409
694.17        61.46946
694.60        61.22804
695.02        61.23383
695.44         61.5119
695.87        61.96505
696.29        62.44341
696.71        62.57201
697.14        62.37597
697.56        62.25662
697.98        62.30678
698.41        62.36469
698.83        62.44456
699.25        62.72337
699.68        63.06799
700.10        63.21795
700.52        63.10942
700.94        62.83942
701.37        62.56318
701.79         62.5327
702.21        62.79602
702.64        63.25367
703.06        63.76527
703.48         64.0863
703.90        64.14628
704.33        64.02367
704.75        63.80868
705.17        63.63741
705.59        63.56689
706.01        63.55658
706.44        63.60154
706.86        63.71342
707.28        63.87003
707.70        64.07354
708.12         64.3003
708.55        64.49355
708.97        64.63749
709.39        64.72771
709.81        64.76534
710.23        64.78013
710.66        64.77856
711.08        64.76469
711.50        64.72709
711.92        64.67385
712.34        64.61968
712.76        64.56533
713.19         64.5174
713.61        64.56494
714.03        64.71193
714.45        64.76517
714.87        65.03268
715.29        65.24995
715.71        65.49323
716.13        65.73284
716.56        65.93142
716.98        66.11348
717.40        66.23161
717.82         66.2923
718.24         66.2618
718.66          66.089
719.08        65.79747
719.50        65.43941
719.92        65.11906
720.34        64.98849
720.76        65.07893
721.19        65.31975
721.61        65.68035
722.03        66.05326
722.45        66.37726
722.87        66.66416
723.29        66.84484
723.71        66.81429
724.13        66.57108
724.55        66.16392
724.97        65.74832
725.39        65.49071
725.81        65.43662
726.23         65.6945
726.65        66.21876
727.07        66.11916
727.49        66.61897
727.91        66.72506
728.33        66.84082
728.75        66.96762
729.17        67.11944
729.59        67.26455
730.01        67.35921
730.43        67.36402
730.85        67.29181
731.27        67.21066
731.69        67.12821
732.10        67.11119
732.52        66.98589
732.94        66.92741
733.36        66.84851
733.78        66.81947
734.20        66.88028
734.62        66.54572
735.04        66.68672
735.46        66.88435
735.88        67.03591
736.30        67.39245
736.72        67.80513
737.13        68.10996
737.55        68.18452
737.97        68.36118
738.39        68.55426
738.81         68.0404
739.23        67.09415
739.65        67.10752
740.06        67.93343
740.48        68.26476
740.90        68.02376
741.32        67.96661
741.74        68.16642
742.16         68.3567
742.57        68.53362
742.99        68.73591
743.41        68.90086
743.83        68.91717
744.25        68.77676
744.67        68.51305
745.08        68.22738
745.50        68.06499
745.92         68.0704
746.34        68.18942
746.75        68.37791
747.17        68.50362
747.59        68.52982
748.01        68.62816
748.42         68.7594
748.84        68.55875
749.26        68.18139
749.68        68.28838
750.09        68.80207
750.51        69.09492
750.93         69.0645
751.35        68.89065
751.76        68.63494
752.18        68.43861
752.60        68.32986
753.01        68.21265
753.43        68.08584
753.85        68.04678
754.27        68.10973
754.68        68.25636
755.10        68.45071
755.52        68.63483
755.93        68.76642
756.35        68.82958
756.77        68.89463
757.18        68.93736
757.60        68.96195
758.02        69.28181
758.43        69.73586
758.85        69.02563
759.26        68.69672
759.68        68.10724
760.10        68.28938
760.51        68.81954
760.93        69.39215
761.34        69.17344
761.76        69.72191
762.18        69.68785
762.59        69.73801
763.01        69.65834
763.42        70.26111
763.84        70.31664
764.26        70.06097
764.67        69.68515
765.09        69.36281
765.50        69.35175
765.92        69.59906
766.33        69.43922
766.75        69.04165
767.16        68.90364
767.58        69.07948
768.00        69.13429
768.41        69.10062
768.83        69.31937
769.24        69.67781
769.66        69.79478
770.07        69.67426
770.49        69.42596
770.90        69.23787
771.32        69.67648
771.73         70.5557
772.15        70.89767
772.56        70.63844
772.97        70.23925
773.39        69.90245
773.80        69.86926
774.22         70.1312
774.63        70.42933
775.05        70.61428
775.46        70.76476
775.88        70.80572
776.29        70.66496
776.70        70.42196
777.12        70.30652
777.53         70.3703
777.95        70.49312
778.36        70.63411
778.77        70.68905
779.19        70.65639
779.60        70.61009
780.02        70.52304
780.43        70.46815
780.84         70.5018
781.26        70.17812
781.67        69.71848
782.09        70.46976
782.50        72.01741
782.91         71.8895
783.33        70.61866
783.74        70.11494
784.15        70.59032
784.57        70.88805
784.98        70.91881
785.39         70.7781
785.81        70.60281
786.22        71.04281
786.63        71.91702
787.04        72.25801
787.46        71.99942
787.87        71.63169
788.28        71.33915
788.70        71.14295
789.11         71.0785
789.52        71.28183
789.93        71.60616
790.35        71.56623
790.76         71.2329
791.17        71.15178
791.58        71.39604
792.00        71.62357
792.41        71.76439
792.82        72.02729
793.23        72.26411
793.65        71.83573
794.06        71.04463
794.47        71.07642
794.88        71.76892
795.29        72.39531
795.71        71.71444
796.12        71.71327
796.53        72.09838
796.94        71.64048
797.35        71.31895
797.76        71.50445
798.18        72.32401
798.59        72.70396
799.00        72.54291
799.41        72.40101
799.82        72.35632
800.23        72.31242
800.64        72.29422
801.06        72.28927
801.47        72.30663
801.88        72.27273
802.29         72.1662
802.70        71.99757
803.11        71.79561
803.52        71.60879
803.93         71.4815
804.34        71.42458
804.75        71.41571
805.17        71.51737
805.58        71.78068
805.99        71.80492
806.40        71.69592
806.81        72.50175
807.22        73.81509
807.63        73.60653
808.04          72.112
808.45        71.47485
808.86        71.86052
809.27        72.09653
809.68        72.04652
810.09        72.05264
810.50        72.08835
810.91        72.06351
811.32        72.07734
811.73        72.28588
812.14        72.70342
812.55        73.28104
812.96        73.84576
813.37        74.06769
813.78        73.85999
814.19        73.35032
814.60         72.7195
815.01        72.20705
815.42        71.87785
815.83        71.66618
816.24         71.5621
816.65        71.54469
817.05        71.60566
817.46        71.74522
817.87        71.92416
818.28        72.01849
818.69        72.00793
819.10        71.89555
819.51        71.79728
819.92        71.94908
820.33        72.38715
820.74        72.97475
821.14         73.5272
821.55        73.85624
821.96        73.84593
822.37        73.34927
822.78        72.56992
823.19        72.08332
823.60        72.02031
824.00        72.17398
824.41        72.39468
824.82        72.60636
825.23        72.73627
825.64        72.81766
826.04        72.87105
826.45        72.87807
826.86        72.86154
827.27        72.82475
827.68        72.76349
828.08         72.7113
828.49        72.63024
828.90         72.5321
829.31        72.49577
829.72        72.64752
830.12        73.01753
830.53        73.50124
830.94        73.92481
831.35        73.94118
831.75        73.49909
832.16        72.70577
832.57        71.81824
832.97        71.22144
833.38        71.03289
833.79        71.12083
834.20        71.42127
834.60        71.82193
835.01         72.2579
835.42        72.80914
835.82        73.33694
836.23        73.51241
836.64        73.30688
837.04        72.75202
837.45         72.1945
837.86        72.28126
838.26        73.15861
838.67        74.60627
839.08        76.08767
839.48        76.58965
839.89        75.85403
840.29        74.25111
840.70        72.53029
841.11        71.56969
841.51        71.59317
841.92        72.31862
842.33        73.40909
842.73        74.26191
843.14        74.53532
843.54        74.45798
843.95        74.22604
844.35        74.20587
844.76        74.46983
845.17        74.87719
845.57        75.23267
845.98        75.21361
846.38        74.78258
846.79        74.06465
847.19        73.31257
847.60        72.88845
848.00        72.89936
848.41        73.20757
848.81        73.65652
849.22        73.89414
849.62        73.85928
850.03        73.64432
850.43        73.36662
850.84        73.14251
851.24        73.06828
851.65        73.02017
852.05        73.10086
852.46         73.3721
852.86        73.81139
853.27        74.38963
853.67        74.85207
854.07        74.96527
854.48         74.6734
854.88        74.07053
855.29        73.31297
855.69        72.84229
856.10        72.72729
856.50        72.94014
856.90        73.27629
857.31        73.40334
857.71        73.27747
858.12        72.92795
858.52        72.53734
858.92        72.28873
859.33        72.22384
859.73         72.3205
860.13        72.42622
860.54        72.32196
860.94        72.00384
861.34        71.53674
861.75        71.07206
862.15        70.89354
862.55         71.0447
862.96        71.39848
863.36        71.85356
863.76        72.14852
864.17        72.18521
864.57        72.07528
864.97         71.8289
865.38        71.46968
865.78         71.0724
866.18        70.63506
866.58        70.29175
866.99        70.28028
867.39        70.66479
867.79        71.34294
868.19        72.15317
868.60        72.82531
869.00        73.30025
869.40        73.60852
869.80        73.73351
870.21        73.66621
870.61        73.49679
871.01        73.19204
871.41        72.79842
871.81        72.37612
872.22        71.94437
872.62        71.50862
873.02         71.1579
873.42        71.01493
873.82        71.09924
874.22        71.37444
874.63        71.68024
875.03        71.77971
875.43         71.6014
875.83        71.20526
876.23        70.75405
876.63        70.50829
877.03        70.53378
877.44        70.73641
877.84        70.99377
878.24        71.09811
878.64        70.95783
879.04        70.53011
879.44        70.04211
879.84        69.92761
880.24        70.22828
880.64        70.76707
881.04        71.25475
881.44         71.2445
881.84        70.64949
882.24        69.65398
882.65        68.58801
883.05        67.94933
883.45        67.88531
883.85        68.25993
884.25        68.90138
884.65        69.50374
885.05        69.93671
885.45        70.27055
885.85        70.54124
886.25        70.81142
886.65         71.0979
887.05        71.34496
887.45         71.5139
887.85         71.5691
888.25         71.5008
888.65        71.33367
889.04        71.10947
889.44        70.91303
889.84        70.75642
890.24         70.6322
890.64        70.51234
891.04        70.34839
891.44         70.1404
891.84        69.92366
892.24        69.74323
892.64        69.65122
893.04        69.67259
893.44        69.81306
893.83        70.06224
894.23         70.3464
894.63        70.65328
895.03        70.94476
895.43        71.26943
895.83         71.7244
896.23        72.27355
896.63        72.83525
897.02         73.1815
897.42        72.98747
897.82        72.23096
898.22        71.10883
898.62        69.88063
899.01        68.91201
899.41        68.34666
899.81        68.07291
900.21          68.111
900.61        68.47818
901.00        69.10408
901.40        69.95135
901.80          70.766
902.20        71.13216
902.59         70.9778
902.99        70.41039
903.39         69.6741
903.79        69.19798
904.18        69.10408
904.58         69.2598
904.98        69.60947
905.38        70.07101
905.77        70.58093
906.17        71.19302
906.57         71.7034
906.96        71.76398
907.36         71.3094
907.76        70.44501
908.15        69.55655
908.55        69.25047
908.95        69.66652
909.34        70.63947
909.74        71.73963
910.14        72.33016
910.53        72.20325
910.93        71.58687
911.33         70.7336
911.72        70.01931
912.12        69.64237
912.52        69.48712
912.91        69.48865
913.31        69.58409
913.70        69.73381
914.10        69.92793
914.49        70.24703
914.89        70.71168
915.29         71.3149
915.68        72.03012
916.08        72.56934
916.47        72.55522
916.87        71.95832
917.26         70.8948
917.66        69.83891
918.05        69.34961
918.45        69.54389
918.84        70.30597
919.24        71.22783
919.64        71.71571
920.03        71.60585
920.42        71.05273
920.82        70.42635
921.21        70.24554
921.61        70.61636
922.00        71.39728
922.40        72.27031
922.79        72.83177
923.19        72.90669
923.58        72.66539
923.98        72.29401
924.37        71.99206
924.77        71.84977
925.16        71.74437
925.55        71.69659
925.95        71.73241
926.34        71.85203
926.74        72.05058
927.13        72.16276
927.52        71.84351
927.92          71.116
928.31         70.0975
928.70        69.12621
929.10        68.68845
929.49        68.87194
929.89        69.46982
930.28        70.34303
930.67        71.11703
931.07        71.60349
931.46        71.97987
931.85        72.08944
932.24        71.74696
932.64        71.02364
933.03        69.93483
933.42        68.95178
933.82        68.76607
934.21        69.48665
934.60        70.97626
934.99        72.66064
935.39         73.4752
935.78         73.1741
936.17         71.9817
936.56        70.51517
936.96        69.75488
937.35        69.95339
937.74        70.80643
938.13        71.82269
938.53        72.24785
938.92        71.88804
939.31        71.02972
939.70        70.04979
940.09        69.46244
940.49        69.36756
940.88        69.62463
941.27        70.03975
941.66        70.27353
942.05        70.22594
942.44        70.05322
942.84         69.8896
943.23        69.91263
943.62        70.17189
944.01        70.53708
944.40        70.99084
944.79        71.53954
945.18        72.11595
945.57        72.69345
945.97        73.00253
946.36        72.71067
946.75        71.75581
947.14        70.34941
947.53          68.868
947.92        67.82756
948.31        67.37426
948.70        67.39796
949.09        67.78907
949.48        68.33453
949.87        68.91483
950.26        69.54315
950.65        70.18062
951.04        70.77125
951.43        71.26393
951.82        71.61537
952.21        71.73819
952.60        71.53171
952.99        71.04946
953.38        70.41457
953.77        69.82874
954.16         69.5994
954.55        69.78728
954.94        70.24229
955.33        70.93212
955.72        71.77218
956.11        72.63911
956.50        73.55209
956.89        74.07309
957.28        73.50455
957.66        71.80241
958.05        69.30069
958.44        66.82535
958.83        65.54606
959.22        65.68462
959.61        66.94752
960.00        68.70551
960.39        69.74151
960.78        69.64657
961.16        68.77178
961.55        67.68964
961.94        67.16238
962.33        67.39621
962.72        68.15474
963.11        69.12184
963.49        69.76031
963.88        69.77125
964.27        69.33048
964.66        68.80872
965.04        68.76026
965.43        69.24436
965.82        70.15825
966.21        70.98386
966.60        70.77209
966.98        69.33524
967.37        67.15833
967.76        65.08963
968.15        64.16966
968.53        64.57977
968.92        66.04639
969.31        67.98823
969.69          69.216
970.08        69.20248
970.47        68.29938
970.86        67.19684
971.24        66.89188
971.63        67.60532
972.02        69.05141
972.40        70.66248
972.79         71.0798
973.17        70.02867
973.56          68.063
973.95        66.03636
974.33        65.01564
974.72        65.21249
975.11        66.25463
975.49        67.75197
975.88        68.86256
976.26        69.27155
976.65        69.17004
977.04        68.68218
977.42        67.96312
977.81        67.10845
978.19        66.07416
978.58        65.15523
978.96        64.81444
979.35        65.12165
979.74        65.99476
980.12        67.22251
980.51        68.12415
980.89        68.58439
981.28        68.73428
981.66        68.70493
982.05        68.69379
982.43        68.79658
982.82        68.88506
983.20        69.18419
983.59        70.00677
983.97        71.44244
984.35        73.34628
984.74        75.08598
985.12        75.82253
985.51        75.29807
985.89        73.85231
986.28        72.13103
986.66        71.02701
987.04          70.856
987.43        71.30651
987.81        72.21555
988.20        73.09458
988.58        73.69949
988.96        74.05084
989.35        74.05537
989.73        73.54913
990.12        72.54272
990.50        71.13705
990.88        69.41927
991.27        67.68161
991.65        66.17685
992.03        64.92085
992.42        64.22803
992.80        64.44391
993.18        65.58086
993.56        67.56184
993.95        69.72697
994.33        70.96722
994.71        70.78575
995.10        69.56961
995.48        67.98469
995.86        67.16025
996.24        67.37404
996.63        68.15487
997.01        69.38593
997.39        70.42099
997.77        70.91458
998.15        71.18885
998.54        71.02835
998.92        69.94868
999.30         68.1238
999.68         65.7477
1000.06        63.74705
1000.45         63.4393
1000.83        65.16269
1001.21        68.69373
1001.59        73.12261
1001.97        76.10924
1002.35        76.64989
1002.73        75.37169
1003.12        73.46823
1003.50        72.46628
1003.88        72.84744
1004.26        73.98426
1004.64        75.55978
1005.02        76.90343
1005.40        77.59268
1005.78        78.04167
1006.16        77.76729
1006.54          75.928
1006.92        72.71895
1007.30        68.57803
1007.69        64.92159
1008.07        63.60954
1008.45        65.13956
1008.83        69.05088
1009.21        74.28194
1009.59        78.01575
1009.97        78.72224
1010.35         77.1307
1010.73        73.91186
1011.11        70.13956
1011.49        66.55024
1011.86        63.08649
1012.24        60.43678
1012.62        59.49488
1013.00        60.31806
1013.38         62.7412
1013.76        66.33076
1014.14        69.57042
1014.52         71.4764
1014.90        72.24895
1015.28        71.82813
1015.66        70.37247
1016.04        68.12625
1016.41        64.94859
1016.79        61.79554
1017.17        60.58547
1017.55        61.72674
1017.93        64.68013
1018.31        67.96671
1018.69        69.38325
1019.06         68.4668
1019.44        65.69421
1019.82        61.99832
1020.20        59.78488
1020.58        60.05947
1020.95        61.77439
1021.33        64.07943
1021.71        65.96337
1022.09        67.23206
1022.46        68.50897
1022.84        69.24245
1023.22        68.24683
1023.60        65.42453
1023.97        61.09192
1024.35        57.33082
1024.73        56.35744
