SpectraSmart Spectrum 2.9.0.0
--------- Device Information -----------
Spectrum Name :  反射率_0
Saving Time :  2024/04/26 23:40:25
Spectro-Module Model Name : SE2030-DUVN
Spectro-Module Serial Number : OS361AC55029948
Wavelength Start : 200
Wavelength End : 1025
Wavelength Unit : Wavelength(nm)
Spectrum Unit : Reflectance(%)
-----------Spectrum Setting ------------
Integration Time : 20ms
Average : 10
Boxcar : 0
Background removal :  enabled
linearity correction :  enabled
SC :  disabled
Intensity correction :  disabled
DWT denoise :  enabled
savitzky-golay :  disabled
FFT :  disabled
Running average :  disabled
Kalman :  disabled
High pass :  disabled
---------------BEGIN--------------------
Wavelength(nm)             Reflectance(%)
200.29               0
200.75        14.22187
201.21         16.9291
201.67        20.69752
202.13        24.06292
202.58        26.92664
203.04        30.59357
203.50        35.31032
203.96        40.11371
204.42        43.79894
204.88        45.31582
205.34        44.79878
205.80         43.9715
206.26        43.37086
206.72        42.64022
207.18        41.27863
207.64        38.23851
208.10        33.10212
208.55        25.57605
209.01        15.82744
209.47        10.66525
209.93        14.06923
210.39        21.35948
210.85        28.34354
211.31        34.30123
211.77        41.27652
212.23         53.8678
212.69        82.91676
213.14        131.7376
213.60        129.9491
214.06        94.79338
214.52        70.94894
214.98        60.51932
215.44        56.30201
215.90         54.1596
216.36        53.00204
216.81         51.5121
217.27        49.49296
217.73        47.97332
218.19         46.5467
218.65        44.37363
219.11        42.72887
219.57        41.88991
220.02          43.273
220.48        49.16724
220.94        60.50122
221.40        79.58974
221.86        106.5154
222.32        125.2827
222.77        120.8726
223.23        103.6329
223.69        85.78569
224.15        74.50299
224.61        68.97292
225.06        66.06271
225.52        65.31473
225.98        66.11417
226.44        68.02216
226.90        71.19283
227.36         74.6281
227.81        76.32863
228.27        76.03583
228.73        74.22919
229.19        72.24212
229.65        71.71662
230.10        72.72005
230.56        74.74635
231.02        76.67384
231.48        76.79424
231.93        74.86929
232.39        72.04062
232.85        69.33874
233.31        68.10906
233.77         68.4704
234.22        69.90436
234.68        71.75805
235.14        73.13908
235.60         73.7121
236.05        73.76735
236.51        73.29078
236.97         72.4528
237.43        71.39101
237.88        70.08153
238.34        68.64836
238.80        67.55875
239.26        66.96238
239.71        67.25789
240.17        68.06562
240.63        68.97537
241.08        69.88216
241.54        70.38916
242.00         71.5951
242.46        75.77533
242.91        84.98925
243.37        100.6656
243.83        123.1288
244.28        141.8683
244.74        141.1691
245.20        120.9866
245.66        95.88918
246.11        78.37092
246.57        69.03465
247.03        64.33091
247.48        61.83654
247.94        58.46307
248.40        54.63082
248.85        51.74204
249.31         50.3758
249.77        50.41478
250.22         51.5152
250.68        53.41154
251.14        55.92256
251.59        57.99258
252.05        58.95802
252.51        59.51007
252.96        58.87282
253.42        56.80064
253.88        53.83961
254.33        50.20306
254.79        48.44348
255.25        50.55241
255.70        56.03284
256.16         63.9334
256.62        70.79581
257.07        71.38287
257.53        67.12173
257.99         61.3178
258.44        56.64121
258.90        55.51916
259.35        56.84762
259.81        59.57199
260.27         62.2229
260.72        63.03223
261.18        62.16591
261.63        60.27208
262.09        58.44334
262.55        57.28323
263.00        56.74833
263.46        56.67511
263.91        56.59679
264.37        56.27657
264.83        55.63562
265.28        54.77996
265.74        54.09856
266.19        53.74117
266.65        53.78641
267.11        54.03439
267.56        54.26353
268.02        54.13964
268.47          53.581
268.93        52.74697
269.38        51.74973
269.84         50.8302
270.30        50.04452
270.75        49.30369
271.21        48.66854
271.66        48.15967
272.12        47.76508
272.57        47.46315
273.03        47.10424
273.48        46.42102
273.94        45.45068
274.39        44.26201
274.85        43.14303
275.31        42.33753
275.76        41.85469
276.22        41.63179
276.67        41.49096
277.13        41.29315
277.58        40.92646
278.04        40.47434
278.49         39.9019
278.95        39.29628
279.40        38.62847
279.86        37.96565
280.31        37.25924
280.77        36.57409
281.22        35.88182
281.68        35.25362
282.13        34.68948
282.59        34.28809
283.04        34.00479
283.50        33.82496
283.95        33.66335
284.41         33.4125
284.86         33.0448
285.32         32.6287
285.77        32.19279
286.22         31.8458
286.68        31.60616
287.13        31.39943
287.59        31.22391
288.04        31.02665
288.50        30.81694
288.95        30.58366
289.41        30.32347
289.86         29.9546
290.32        29.51669
290.77        29.02113
291.22        28.56395
291.68        28.27178
292.13        28.15606
292.59        28.19484
293.04        28.32128
293.50        28.45004
293.95        28.54376
294.40        28.63269
294.86         28.7431
295.31         28.9069
295.77        29.14039
296.22        29.41671
296.68        29.72969
297.13        30.05704
297.58        30.39876
298.04        30.76582
298.49        31.15439
298.95        31.57458
299.40        32.01367
299.85        32.45814
300.31        32.90247
300.76        33.33191
301.21        33.73657
301.67        34.12403
302.12        34.45063
302.58        34.71139
303.03        34.88393
303.48        35.00094
303.94        35.10138
304.39        35.20662
304.84        35.34101
305.30         35.5098
305.75        35.68481
306.20        35.87663
306.66        36.08479
307.11        36.28341
307.57        36.46773
308.02        36.58241
308.47        36.62772
308.93        36.62352
309.38        36.57005
309.83        36.51931
310.29        36.48536
310.74         36.4533
311.19        36.41195
311.65         36.3359
312.10        36.21831
312.55        36.07275
313.00        35.92772
313.46        35.82171
313.91        35.74725
314.36        35.69637
314.82        35.63761
315.27        35.53273
315.72        35.36935
316.18         35.1719
316.63        34.95118
317.08        34.74016
317.53        34.54902
317.99        34.36264
318.44        34.19005
318.89        34.03475
319.35        33.89331
319.80        33.76339
320.25        33.62599
320.70        33.44979
321.16        33.22751
321.61        32.98214
322.06        32.72507
322.51        32.48069
322.97        32.25585
323.42        32.04572
323.87        31.87054
324.32        31.76756
324.78        31.72561
325.23        31.75395
325.68        31.76608
326.13         31.6256
326.59        31.30674
327.04        30.85936
327.49        30.39932
327.94         30.1154
328.39        30.04549
328.85        30.12336
329.30        30.26384
329.75        30.25012
330.20        30.02125
330.66        29.64071
331.11        29.21997
331.56        28.91261
332.01        28.76482
332.46        28.71928
332.92        28.71375
333.37        28.69143
333.82        28.60679
334.27        28.49562
334.72        28.35725
335.17        28.18205
335.63        27.97958
336.08        27.76858
336.53        27.59208
336.98        27.53613
337.43        27.61643
337.88        27.79897
338.34        28.03275
338.79        28.25601
339.24        28.41789
339.69        28.52608
340.14        28.54671
340.59        28.43575
341.05        28.20913
341.50        27.88643
341.95        27.54748
342.40        27.31413
342.85        27.21994
343.30        27.23764
343.75        27.32579
344.20        27.40905
344.66         27.4615
345.11        27.49982
345.56        27.52343
346.01        27.53313
346.46        27.53447
346.91         27.5222
347.36        27.50444
347.81        27.50356
348.26        27.52052
348.72        27.54358
349.17        27.56787
349.62        27.59677
350.07        27.62578
350.52        27.66248
350.97        27.66345
351.42        27.55959
351.87        27.35209
352.32        27.06999
352.77        26.80874
353.22         26.7082
353.67        26.78841
354.13         27.0036
354.58        27.24899
355.03        27.34972
355.48        27.25635
355.93         27.0212
356.38        26.73002
356.83        26.51328
357.28        26.40321
357.73        26.35577
358.18        26.31957
358.63        26.21579
359.08        26.02553
359.53        25.78457
359.98        25.53094
360.43        25.31203
360.88        25.14003
361.33        24.99874
361.78         24.8682
362.23        24.72054
362.68        24.55168
363.13        24.37555
363.58        24.21033
364.03         24.0807
364.48        23.98965
364.93        23.92376
365.38        23.86794
365.83        23.80081
366.28        23.71344
366.73        23.61011
367.18        23.49129
367.63        23.35807
368.08        23.21341
368.53         23.0591
368.98        22.90033
369.43        22.74531
369.88        22.59753
370.33        22.45631
370.78        22.32582
371.23        22.21212
371.68        22.11553
372.13        22.03479
372.58          21.959
373.03        21.86913
373.48        21.76084
373.93        21.63884
374.38        21.51296
374.83        21.40226
375.28        21.30903
375.72        21.21588
376.17        21.13077
376.62        21.03928
377.07        20.93892
377.52        20.84018
377.97        20.73079
378.42        20.59288
378.87        20.43106
379.32        20.25047
379.77        20.09484
380.22        20.02769
380.67        20.05205
381.11        20.15132
381.56        20.24632
382.01        20.22208
382.46        20.05697
382.91        19.80069
383.36        19.52757
383.81        19.33899
384.26        19.25586
384.71        19.24334
385.15        19.27375
385.60        19.30398
386.05        19.31209
386.50        19.31079
386.95        19.28875
387.40        19.22859
387.85         19.1322
388.29        18.99237
388.74        18.85568
389.19        18.74351
389.64        18.66067
390.09        18.59941
390.54        18.54414
390.98        18.46497
391.43        18.36833
391.88        18.26133
392.33        18.16094
392.78        18.08959
393.23        18.04847
393.67        18.01931
394.12        17.99989
394.57        17.95135
395.02        17.86673
395.47        17.75142
395.91        17.63165
396.36        17.54234
396.81        17.50579
397.26         17.5142
397.71        17.53696
398.15        17.53965
398.60        17.53378
399.05        17.45428
399.50        17.34758
399.95        17.40862
400.39         17.5881
400.84        17.56085
401.29        17.32784
401.74        17.16729
402.18        17.09761
402.63        16.95216
403.08        16.77889
403.53        16.72611
403.97        16.80457
404.42        16.96868
404.87        17.14776
405.32         17.2257
405.76        17.17128
406.21        17.02968
406.66        16.85658
407.11        16.74188
407.55        16.71476
408.00        16.73804
408.45        16.78525
408.90        16.80181
409.34        16.76934
409.79        16.71538
410.24        16.65331
410.68        16.59227
411.13        16.54193
411.58         16.4918
412.03        16.45051
412.47        16.43875
412.92        16.45394
413.37        16.49731
413.81        16.54208
414.26          16.564
414.71        16.55221
415.15        16.51414
415.60        16.47047
416.05        16.47412
416.49          16.537
416.94        16.64116
417.39        16.74132
417.83        16.76642
418.28        16.70272
418.73        16.57093
419.17        16.42893
419.62        16.37018
420.07        16.41578
420.51        16.53162
420.96        16.66109
421.41        16.71291
421.85        16.66256
422.30        16.53837
422.74        16.38419
423.19        16.33748
423.64        16.38818
424.08         16.4097
424.53        16.38194
424.98        16.40072
425.42        16.47044
425.87        16.49417
426.31        16.46971
426.76        16.51287
427.21         16.5755
427.65        16.42336
428.10        16.14683
428.54        16.05574
428.99        16.17834
429.44        16.41999
429.88        16.66029
430.33        16.64584
430.77        16.40907
431.22        16.30029
431.66        16.35802
432.11        16.36483
432.56        16.34153
433.00        16.48709
433.45        16.70039
433.89          16.676
434.34        16.50447
434.78        16.12837
435.23         16.4751
435.67        16.50323
436.12        16.45097
436.57        16.35479
437.01        16.25212
437.46        16.21593
437.90        16.24873
438.35        16.28685
438.79         16.3064
439.24        16.32584
439.68        16.34044
440.13        16.34304
440.57          16.342
441.02        16.37005
441.46        16.42755
441.91        16.45782
442.35        16.45173
442.80         16.5634
443.24        16.72011
443.69        16.64475
444.13        16.39065
444.58        16.30212
445.02        16.39859
445.47        16.50327
445.91        16.57622
446.36        16.63618
446.80        16.66619
447.24        16.66455
447.69         16.6492
448.13        16.64084
448.58        16.64956
449.02        16.66495
449.47        16.68188
449.91        16.68416
450.36        16.67373
450.80        16.65537
451.25        16.63909
451.69        16.62803
452.13         16.6258
452.58        16.62584
453.02        16.62835
453.47        16.63675
453.91        16.64935
454.36        16.66881
454.80        16.67658
455.24        16.64193
455.69        16.56831
456.13         16.4561
456.58        16.35515
457.02        16.31401
457.46        16.34688
457.91        16.43388
458.35        16.52062
458.79        16.52452
459.24        16.44528
459.68         16.3051
460.13        16.16873
460.57        16.09055
461.01        16.09765
461.46        16.15319
461.90        16.24737
462.34        16.35074
462.79        16.43988
463.23        16.52711
463.68        16.57598
464.12        16.53765
464.56        16.41074
465.01        16.24002
465.45        16.05735
465.89        15.94978
466.34        15.93073
466.78        15.97246
467.22        16.05907
467.67        16.14422
468.11        16.21671
468.55         16.2802
468.99        16.32809
469.44        16.34853
469.88        16.34274
470.32        16.30951
470.77        16.26601
471.21        16.24705
471.65         16.2595
472.10        16.29787
472.54        16.34493
472.98        16.37763
473.42        16.38901
473.87         16.3917
474.31        16.38285
474.75        16.37365
475.20        16.37175
475.64        16.36757
476.08         16.3674
476.52        16.37279
476.97        16.38437
477.41        16.41097
477.85        16.45373
478.29        16.48851
478.74        16.52655
479.18        16.61086
479.62        16.72352
480.06        16.80942
480.50         16.8639
480.95        16.88863
481.39        16.88295
481.83        17.01122
482.27        17.02786
482.72        17.13278
483.16        17.24077
483.60        17.30136
484.04        17.29365
484.48        17.32928
484.93        17.48103
485.37        17.37823
485.81        17.52693
486.25        17.87968
486.69        17.55343
487.14        17.58248
487.58        18.23809
488.02        18.34749
488.46        17.96256
488.90        17.96813
489.34        18.03773
489.79        18.26149
490.23        18.43481
490.67         18.5634
491.11        18.63173
491.55           18.67
491.99        18.71656
492.43        18.80479
492.88        18.94469
493.32        19.11621
493.76        19.29125
494.20         19.4474
494.64        19.58133
495.08        19.66024
495.52        19.69925
495.96        19.85327
496.41         20.0876
496.85        20.09091
497.29        19.91203
497.73        20.09336
498.17        20.34243
498.61        20.52641
499.05        20.53756
499.49        20.58705
499.93        20.63936
500.37        20.79742
500.82        21.01952
501.26        21.18201
501.70        21.26899
502.14        21.35961
502.58        21.47324
503.02        21.59701
503.46        21.73277
503.90        21.88432
504.34        22.02271
504.78        22.09669
505.22        22.09379
505.66        22.04735
506.10        22.00638
506.54        21.99372
506.98        22.01453
507.42        22.27252
507.86        22.34463
508.30        22.47897
508.74        22.54182
509.18        22.56063
509.62        22.55677
510.06        22.57314
510.50        22.62456
510.94        22.69183
511.38        22.76072
511.82        22.80931
512.26        22.83248
512.70        22.84257
513.14        22.84933
513.58        22.86606
514.02        22.89799
514.46        22.93893
514.90        22.99005
515.34        23.05424
515.78        23.12759
516.22        23.20639
516.66        23.27643
517.10        23.31522
517.54        23.31831
517.98        23.29284
518.42        23.25111
518.86        23.21433
519.30         23.1898
519.74        23.17166
520.18        23.15933
520.62        23.15036
521.06        23.14294
521.50        23.14075
521.93        23.13688
522.37         23.1108
522.81        23.06341
523.25        22.99779
523.69        22.93155
524.13        22.89296
524.57        22.88513
525.01        22.89729
525.45        22.90701
525.89        22.87776
526.32        22.80042
526.76        22.69583
527.20         22.5814
527.64        22.48616
528.08        22.41949
528.52        22.37061
528.96        22.33943
529.40        22.32605
529.83        22.32436
530.27        22.33486
530.71        22.33742
531.15        22.30122
531.59        22.22317
532.03         22.1145
532.46        21.99592
532.90        21.91688
533.34        21.88527
533.78        21.87509
534.22         21.8763
534.66        21.89919
535.09         21.9209
535.53        21.89618
535.97        21.82958
536.41        21.78586
536.85        21.77126
537.28        21.74642
537.72        21.72763
538.16        21.75848
538.60        21.84013
539.04        21.95924
539.47        22.07544
539.91        22.14037
540.35        22.14073
540.79        22.09504
541.22        22.04039
541.66        22.04402
542.10        22.11873
542.54        22.24438
542.97        22.38826
543.41        22.50746
543.85        22.58889
544.29        22.65437
544.72        22.71646
545.16        22.80923
545.60        22.93669
546.04         23.0862
546.47        23.26259
546.91        23.47018
547.35        23.69811
547.79         23.9426
548.22        24.16821
548.66        24.31629
549.10        24.40933
549.53        24.45457
549.97        24.49465
550.41        24.54382
550.84        24.64597
551.28        24.85253
551.72        25.11252
552.15        25.36006
552.59        25.60158
553.03        25.49098
553.46        25.82069
553.90        25.91766
554.34        26.00402
554.77         26.2523
555.21        26.33465
555.65        26.47234
556.08        26.55446
556.52        26.58807
556.96        26.59131
557.39         26.6687
557.83        26.81172
558.27        26.85225
558.70        26.79912
559.14         26.8324
559.57        26.93915
560.01         26.9837
560.45        26.98065
560.88        27.06287
561.32        27.23448
561.75        27.37153
562.19        27.47421
562.63        27.59216
563.06        27.71526
563.50        27.81408
563.93         27.8679
564.37        27.93261
564.80        28.02318
565.24        28.06141
565.68        27.99364
566.11        28.34962
566.55        28.11643
566.98        28.13027
567.42        28.15423
567.85        28.29072
568.29        28.53571
568.72        28.80842
569.16        29.10359
569.60        29.30696
570.03        29.51421
570.47        29.68475
570.90        29.85508
571.34        29.82363
571.77        30.05156
572.21         30.1447
572.64        30.22229
573.08        30.39479
573.51         30.4452
573.95         30.6353
574.38        30.90376
574.82        30.94975
575.25        30.57527
575.69        30.66425
576.12         31.0388
576.56        30.83982
576.99        30.76541
577.42        31.09144
577.86        31.16041
578.29        31.36927
578.73        31.15866
579.16        31.07255
579.60        30.95848
580.03        31.01124
580.47        30.81868
580.90        30.92176
581.33        30.75918
581.77         30.8952
582.20        30.54474
582.64        30.42314
583.07        30.18063
583.51        30.07634
583.94        30.13759
584.37        30.13156
584.81         30.0133
585.24         29.8111
585.68        29.64697
586.11        29.37649
586.54        29.53528
586.98        29.43529
587.41        29.23714
587.85        29.12258
588.28        29.02802
588.71        29.02323
589.15        28.86441
589.58        29.10855
590.01        29.04017
590.45         29.0925
590.88        29.05098
591.31        28.88358
591.75        28.71719
592.18        28.63092
592.61        28.60452
593.05        29.26128
593.48        29.55763
593.91        29.17954
594.35        29.31124
594.78        29.18229
595.21        29.25381
595.65        29.57944
596.08        30.16686
596.51         30.1756
596.94        30.10247
597.38        30.15818
597.81        30.51104
598.24        30.81636
598.68         31.0269
599.11        31.14417
599.54        31.86288
599.97        31.62678
600.41        32.09133
600.84        32.12112
601.27        32.62831
601.70        32.83889
602.14        33.35722
602.57        33.65257
603.00        34.03024
603.43         34.1303
603.87        34.77599
604.30        35.30856
604.73        35.49965
605.16        35.54861
605.60        36.12036
606.03         36.3045
606.46        36.39339
606.89        36.55455
607.32        37.31528
607.76        37.72289
608.19        38.00663
608.62        38.29965
609.05        38.70737
609.48        39.01662
609.92        39.70959
610.35        39.84427
610.78        39.86366
611.21        39.84869
611.64        40.22355
612.07        40.62186
612.50        40.85487
612.94        41.10766
613.37        41.26991
613.80        41.51632
614.23        41.34129
614.66        41.54208
615.09        41.94532
615.52        42.27703
615.96        42.49163
616.39        42.75726
616.82        43.03399
617.25        43.23254
617.68         43.3621
618.11        43.58982
618.54        43.90034
618.97        44.09002
619.40        44.14011
619.84        44.35509
620.27        44.32547
620.70        44.41359
621.13        44.47978
621.56        44.32726
621.99        44.03887
622.42        44.09045
622.85        44.47288
623.28        44.51273
623.71        44.60422
624.14         44.6772
624.57        44.98728
625.00        44.86851
625.43        44.86141
625.86        44.74621
626.29        44.75269
626.72        44.19615
627.15        44.38585
627.58        44.24378
628.01        44.14286
628.44         43.9984
628.87        43.82108
629.30        43.53554
629.73        43.30896
630.16        43.08512
630.59          42.909
631.02        42.76406
631.45        42.63431
631.88        42.44574
632.31        42.16959
632.74         42.0141
633.17        41.62135
633.60        41.25055
634.03         40.8061
634.46        40.30793
634.89        39.79086
635.32        39.32698
635.75        38.94077
636.18         38.5708
636.61        38.22152
637.04        37.91632
637.47        37.64504
637.89        37.39787
638.32        37.13049
638.75        36.80946
639.18          36.434
639.61        36.01909
640.04        35.62117
640.47        35.32689
640.90         35.1536
641.33        35.07891
641.76        35.04947
642.18        34.97942
642.61        34.83434
643.04         34.6432
643.47        34.45339
643.90        34.34114
644.33        34.32499
644.76        34.38156
645.18        34.46713
645.61        34.50311
646.04        34.47861
646.47        34.42664
646.90        34.40076
647.33         34.4749
647.75        34.65533
648.18        34.95498
648.61        35.34937
649.04        35.65684
649.47          35.827
649.89         36.4636
650.32        36.60455
650.75        36.94618
651.18        37.22591
651.61        37.62137
652.03        38.13438
652.46        38.56158
652.89        38.91722
653.32        39.42515
653.74        40.08181
654.17        40.36291
654.60         40.4939
655.03        40.93415
655.46        41.23458
655.88        41.58995
656.31        43.46947
656.74        44.53257
657.16        44.67029
657.59        45.12975
658.02        44.13756
658.45        44.58142
658.87        44.58032
659.30        44.85725
659.73        44.94003
660.15        45.83972
660.58        45.33509
661.01        45.53847
661.44        45.83837
661.86        45.99131
662.29        45.95535
662.72        46.35317
663.14        46.32499
663.57        46.46025
664.00          46.561
664.42        46.79465
664.85        47.17604
665.27        47.64886
665.70        48.09135
666.13        48.35952
666.55        48.42184
666.98        48.27324
667.41        48.00443
667.83        48.07535
668.26        48.03213
668.69        48.23247
669.11        48.48377
669.54        48.71552
669.96        48.90281
670.39         49.0689
670.82        49.21925
671.24          49.353
671.67        49.47359
672.09        49.51522
672.52        49.51908
672.94        49.64531
673.37        49.84995
673.80        49.84548
674.22        49.68837
674.65        49.68742
675.07        49.87737
675.50        50.07786
675.92        50.23418
676.35        50.32448
676.77        50.33523
677.20        50.27505
677.62        50.21038
678.05        50.24351
678.47         50.3894
678.90        50.63707
679.32        50.92883
679.75        51.11985
680.17         51.1688
680.60        51.35597
681.02        51.28988
681.45        51.38188
681.87        51.53202
682.30        51.69143
682.72         51.8447
683.15          52.013
683.57        52.16791
684.00        52.15891
684.42        52.04808
684.85        52.07328
685.27        52.25049
685.70        52.46624
686.12        52.65647
686.54        52.80079
686.97        52.84463
687.39        52.82538
687.82        52.77225
688.24        52.78081
688.66        52.86228
689.09        52.95722
689.51         53.0513
689.94        53.13615
690.36           53.21
690.78        53.22972
691.21        53.23282
691.63        53.34302
692.06        53.54277
692.48        53.68013
692.90        53.73096
693.33        53.78659
693.75        53.84599
694.17        53.82131
694.60        53.78173
695.02        53.89461
695.44        54.15805
695.87        54.49835
696.29         54.8297
696.71        54.90775
697.14        54.77163
697.56        54.73449
697.98         54.8397
698.41        54.90198
698.83        54.92374
699.25         55.0755
699.68        55.27258
700.10        55.34805
700.52        55.25187
700.94        55.06047
701.37        54.88934
701.79        54.92212
702.21        55.18641
702.64        55.62578
703.06        56.12362
703.48        56.36435
703.90        56.46434
704.33        56.34872
704.75        56.15445
705.17        56.00834
705.59        55.96404
706.01        55.98095
706.44        56.04941
706.86        56.17563
707.28        56.33619
707.70        56.53374
708.12        56.74601
708.55        56.92381
708.97        57.04366
709.39        57.12198
709.81        57.08105
710.23        57.10467
710.66        57.17559
711.08        57.26122
711.50        57.32183
711.92        57.32961
712.34        57.28479
712.76        57.21234
713.19        57.13322
713.61        57.11359
714.03        57.15794
714.45        57.24805
714.87        57.39263
715.29        57.60732
715.71        57.88017
716.13        58.19403
716.56        58.46669
716.98          58.648
717.40        58.68353
717.82        58.56439
718.24        58.34763
718.66        58.19217
719.08        58.10538
719.50        57.96154
719.92        57.79441
720.34        57.69939
720.76        57.73096
721.19        57.98112
721.61        58.42345
722.03         58.8075
722.45        59.07503
722.87         59.3498
723.29        59.57277
723.71        59.55579
724.13         59.2898
724.55        58.90973
724.97        58.57192
725.39        58.16404
725.81        58.33847
726.23        58.54263
726.65        58.84919
727.07        59.20247
727.49        59.33632
727.91        59.45451
728.33        59.52719
728.75        59.63578
729.17        59.79372
729.59          59.959
730.01        60.07887
730.43        60.12614
730.85        60.10151
731.27        59.93827
731.69          59.663
732.10        59.79963
732.52        59.58506
732.94        59.63215
733.36        59.69496
733.78        59.68867
734.20        59.59056
734.62        59.61467
735.04        59.79853
735.46        59.50529
735.88        59.63159
736.30         59.8288
736.72         60.3021
737.13        60.65629
737.55        60.77614
737.97        60.97088
738.39        61.16964
738.81        60.89697
739.23        60.31972
739.65        60.29401
740.06         60.7428
740.48        60.90871
740.90        60.74606
741.32        60.71797
741.74         60.8611
742.16         60.9902
742.57        61.10183
742.99        61.22897
743.41        61.34359
743.83        61.38621
744.25        61.35331
744.67         61.2521
745.08        61.15392
745.50        61.15844
745.92        61.28654
746.34        61.49135
746.75        61.70672
747.17        61.79129
747.59        61.72267
748.01        61.62367
748.42        61.51451
748.84        61.30161
749.26        61.10073
749.68        61.13259
750.09        61.36901
750.51        61.75119
750.93        62.08641
751.35         61.8936
751.76        61.29384
752.18        60.99923
752.60        61.06345
753.01        61.09451
753.43        61.02814
753.85        60.97988
754.27        60.94683
754.68        60.92101
755.10        60.94283
755.52        61.04922
755.93        61.24413
756.35        61.53323
756.77        61.86779
757.18        62.10427
757.60        62.23014
758.02        62.35241
758.43        62.39017
758.85        62.26256
759.26        62.05482
759.68        61.60241
760.10        61.43169
760.51        61.87043
760.93        62.93484
761.34        62.31834
761.76        62.67541
762.18        62.44976
762.59        62.54176
763.01        62.65897
763.42        62.82064
763.84        62.95568
764.26        62.98087
764.67        62.72815
765.09        62.34324
765.50         62.1834
765.92        62.27751
766.33        62.26353
766.75        62.04704
767.16        61.97693
767.58        61.98895
768.00        61.73977
768.41        61.42218
768.83         61.8642
769.24        62.82446
769.66        63.23201
770.07        63.00813
770.49        62.53981
770.90        62.11495
771.32        62.42741
771.73        63.31789
772.15        63.66043
772.56        63.40915
772.97        62.97889
773.39        63.02999
773.80        62.97956
774.22         62.9972
774.63         63.1641
775.05        63.36244
775.46        63.45121
775.88        63.36309
776.29        63.16426
776.70        62.94684
777.12        62.88428
777.53        63.02564
777.95        63.28309
778.36        63.56924
778.77        63.70316
779.19        63.65313
779.60        63.49236
780.02        63.28257
780.43         63.1749
780.84        63.23353
781.26        63.19612
781.67        63.11255
782.09        63.55146
782.50        64.33181
782.91        64.08507
783.33        63.63807
783.74        63.35495
784.15        63.50698
784.57         63.5994
784.98        63.62552
785.39        63.60114
785.81        63.60624
786.22        64.04285
786.63        64.74821
787.04        65.05389
787.46        64.90479
787.87        64.61074
788.28         64.3265
788.70        64.12962
789.11        64.04868
789.52        64.16112
789.93        64.37046
790.35        64.31956
790.76        64.04969
791.17        64.05117
791.58        64.34746
792.00        64.40886
792.41        64.20226
792.82        64.65353
793.23        64.66755
793.65        64.59966
794.06        64.31499
794.47        64.40108
794.88        64.68511
795.29         65.4445
795.71        64.72885
796.12         64.6097
796.53        64.58958
796.94        64.41098
797.35        64.17696
797.76        64.41912
798.18        65.03004
798.59        65.36445
799.00        65.32891
799.41        65.24352
799.82        65.17418
800.23         65.1014
800.64        65.05132
801.06        64.99374
801.47        64.94186
801.88        64.84033
802.29        64.67819
802.70        64.47186
803.11        64.26393
803.52        64.11853
803.93        64.08246
804.34         64.1601
804.75        64.30426
805.17         64.5512
805.58        64.93571
805.99        65.01768
806.40        64.91385
806.81        65.79283
807.22        67.20847
807.63        66.90835
808.04        65.16735
808.45        64.38705
808.86        64.75884
809.27        64.97929
809.68        64.89894
810.09        64.89742
810.50        64.94169
810.91        64.93021
811.32        64.96058
811.73        65.18564
812.14        65.61645
812.55        66.20376
812.96        66.76598
813.37        66.96019
813.78        66.70194
814.19        66.12946
814.60        65.44361
815.01        64.90929
815.42        64.59682
815.83        64.43476
816.24        64.40183
816.65        64.45178
817.05           64.56
817.46        64.72791
817.87        64.91482
818.28         65.0028
818.69        64.96918
819.10        64.81335
819.51        64.64001
819.92         64.6545
820.33        64.89832
820.74        65.30457
821.14        65.71722
821.55        65.87988
821.96        65.73943
822.37        65.38267
822.78        64.95596
823.19        64.70689
823.60        64.71622
824.00        64.93176
824.41        65.22698
824.82        65.48263
825.23        65.63252
825.64        65.71468
826.04        65.74338
826.45        65.70158
826.86        65.61475
827.27        65.48951
827.68        65.34234
828.08        65.23705
828.49        65.14526
828.90        65.06882
829.31        65.05711
829.72        65.18317
830.12        65.46778
830.53        65.83947
830.94        66.15142
831.35        66.11023
831.75        65.67905
832.16        64.93468
832.57        64.14608
832.97        63.72089
833.38        63.75857
833.79        64.11806
834.20        64.62946
834.60        65.01555
835.01        65.19054
835.42        65.28102
835.82        65.30603
836.23        65.22455
836.64        65.08697
837.04        64.85434
837.45        64.71391
837.86        65.04002
838.26        65.90121
838.67        67.15871
839.08        68.39616
839.48        68.81894
839.89        68.23112
840.29        66.91049
840.70        65.49092
841.11        64.71833
841.51        64.77946
841.92        65.43638
842.33        66.39539
842.73        67.12428
843.14        67.32266
843.54        67.20006
843.95        66.92113
844.35        66.79774
844.76        66.89816
845.17        67.10593
845.57        67.29601
845.98        67.25525
846.38        66.96329
846.79        66.51111
847.19        66.04866
847.60        65.77815
848.00        65.76492
848.41        65.91222
848.81        66.15699
849.22        66.31825
849.62        66.37025
850.03         66.3467
850.43         66.2682
850.84         66.1026
851.24         65.9022
851.65        65.60984
852.05        65.37917
852.46         65.3811
852.86        65.64639
853.27        66.11306
853.67        66.54971
854.07        66.73782
854.48        66.61297
854.88        66.26759
855.29        65.78622
855.69         65.4552
856.10        65.30811
856.50         65.3387
856.90        65.45039
857.31        65.49974
857.71        65.48989
858.12        65.40771
858.52        65.32819
858.92        65.26253
859.33        65.20265
859.73        65.17214
860.13        65.11186
860.54        64.95432
860.94        64.73357
861.34        64.46855
861.75        64.22473
862.15        64.14483
862.55        64.23858
862.96        64.42844
863.36        64.69291
863.76          64.912
864.17        65.02765
864.57        65.10374
864.97        65.07422
865.38        64.84972
865.78         64.4656
866.18        63.94051
866.58        63.45965
866.99           63.35
867.39        63.70039
867.79        64.39513
868.19        65.19761
868.60        65.72342
869.00        65.89598
869.40        65.78165
869.80        65.50156
870.21        65.30399
870.61        65.33338
871.01        65.46022
871.41        65.54442
871.81        65.38927
872.22        64.95652
872.62        64.32462
873.02        63.66972
873.42        63.27113
873.82        63.22009
874.22        63.44847
874.63        63.77288
875.03         63.9212
875.43         63.8064
875.83        63.49616
876.23        63.18148
876.63        63.16096
877.03        63.49255
877.44        64.05515
877.84        64.61578
878.24         64.8057
878.64          64.498
879.04         63.6856
879.44        62.75544
879.84        62.40154
880.24        62.71989
880.64        63.46029
881.04         64.2076
881.44        64.30386
881.84        63.60622
882.24        62.36809
882.65        61.04226
883.05        60.31675
883.45        60.38097
883.85        61.03011
884.25        61.97919
884.65        62.73872
885.05         63.1266
885.45        63.27547
885.85          63.311
886.25        63.42957
886.65        63.68251
887.05        63.96742
887.45        64.19872
887.85        64.26582
888.25        64.13813
888.65        63.87886
889.04        63.55396
889.44        63.27316
889.84        63.06775
890.24        62.92696
890.64        62.83483
891.04        62.76529
891.44        62.71011
891.84        62.67673
892.24        62.69195
892.64        62.78613
893.04        62.96484
893.44        63.23071
893.83        63.52665
894.23        63.71061
894.63        63.76907
895.03        63.70245
895.43        63.64986
895.83        63.85001
896.23        64.32298
896.63        64.97317
897.02        65.52629
897.42        65.57353
897.82        65.04419
898.22        64.11705
898.62        63.08301
899.01        62.36234
899.41        62.09201
899.81        62.15028
900.21        62.41332
900.61         62.6746
901.00        62.84739
901.40        62.97443
901.80        63.08319
902.20        63.20804
902.59        63.36196
902.99        63.51016
903.39        63.58051
903.79        63.47312
904.18        63.17818
904.58        62.74798
904.98        62.36418
905.38        62.30125
905.77        62.60993
906.17        63.23568
906.57        63.92059
906.96         64.2299
907.36        64.04757
907.76        63.50707
908.15        62.95459
908.55        62.92466
908.95        63.53198
909.34         64.5969
909.74        65.70249
910.14        66.25322
910.53        66.05746
910.93        65.33784
911.33        64.35634
911.72        63.49948
912.12        62.97606
912.52        62.69397
912.91        62.59022
913.31        62.58913
913.70        62.65098
914.10        62.76186
914.49        63.02729
914.89        63.52122
915.29        64.23508
915.68        65.12153
916.08        65.81841
916.47        65.81879
916.87        65.07321
917.26        63.75144
917.66        62.42078
918.05          61.785
918.45        61.98946
918.84        62.87313
919.24        63.97963
919.64        64.61438
920.03        64.57333
920.42        64.04398
920.82        63.40937
921.21        63.20951
921.61        63.56625
922.00        64.32044
922.40        65.16762
922.79         65.7243
923.19        65.81258
923.58        65.58232
923.98        65.20773
924.37        64.87498
924.77        64.66591
925.16        64.48112
925.55         64.2971
925.95        64.07138
926.34        63.81396
926.74         63.5549
927.13        63.28375
927.52        62.89491
927.92        62.44091
928.31         61.9595
928.70        61.58212
929.10        61.48171
929.49        61.66938
929.89        62.01944
930.28        62.54354
930.67        63.15156
931.07        63.74034
931.46        64.38718
931.85        64.80759
932.24        64.60456
932.64        63.79305
933.03        62.48389
933.42        61.23008
933.82        60.83312
934.21        61.44294
934.60        62.88329
934.99        64.58325
935.39        65.49215
935.78        65.33773
936.17        64.33035
936.56        63.03574
936.96        62.35461
937.35         62.5103
937.74        63.21312
938.13        63.97678
938.53        64.06367
938.92        63.32161
939.31        62.06944
939.70        60.73946
940.09        59.91463
940.49        59.71783
940.88        59.99317
941.27        60.54509
941.66         61.0167
942.05        61.27522
942.44        61.45163
942.84        61.61938
943.23        61.87623
943.62         62.2463
944.01        62.60555
944.40         62.9665
944.79         63.3942
945.18        63.85687
945.57        64.34182
945.97        64.59105
946.36        64.27222
946.75        63.33649
947.14        61.99311
947.53        60.65278
947.92        59.88439
948.31        59.81734
948.70        60.29879
949.09        61.10934
949.48        61.84811
949.87        62.34674
950.26         62.6853
950.65        62.90709
951.04        63.10402
951.43        63.29619
951.82        63.40471
952.21        63.39571
952.60        63.24757
952.99        62.98944
953.38        62.70028
953.77        62.42599
954.16        62.22141
954.55        62.09167
954.94        61.96607
955.33        61.92842
955.72        62.11328
956.11        62.51654
956.50        63.14088
956.89        63.59724
957.28        63.24129
957.66        62.00313
958.05        60.15883
958.44        58.41864
958.83        57.80635
959.22        58.48555
959.61        60.15601
960.00        62.14055
960.39        63.15632
960.78        62.79903
961.16        61.47812
961.55         59.8435
961.94        58.75807
962.33         58.4643
962.72        58.71712
963.11         59.2907
963.49        59.79518
963.88        59.98555
964.27        60.00511
964.66        60.02647
965.04        60.31092
965.43        60.85764
965.82        61.59844
966.21        62.20187
966.60        62.09505
966.98        61.15472
967.37         59.6792
967.76        58.23422
968.15        57.51105
968.53        57.63877
968.92        58.46551
969.31        59.58249
969.69        60.16159
970.08        59.87288
970.47        58.99497
970.86        58.10884
971.24        58.05081
971.63        58.97915
972.02        60.63336
972.40        62.48611
972.79        63.25211
973.17        62.60785
973.56        61.03471
973.95        59.20717
974.33        57.96441
974.72        57.51723
975.11        57.58776
975.49        58.05287
975.88        58.62771
976.26        59.18247
976.65        59.74851
977.04        60.21057
977.42        60.34132
977.81        60.07967
978.19        59.45443
978.58        58.72636
978.96        58.31186
979.35        58.30178
979.74        58.60553
980.12        59.12658
980.51        59.44918
980.89        59.56679
981.28        59.59272
981.66        59.60629
982.05         59.6791
982.43        59.86697
982.82        60.08477
983.20        60.54433
983.59        61.54853
983.97        63.16504
984.35        65.23792
984.74        67.12899
985.12        68.01447
985.51        67.62265
985.89        66.24117
986.28         64.5446
986.66        63.47411
987.04        63.35252
987.43        63.91948
987.81        64.84942
988.20        65.38227
988.58        65.26836
988.96        64.66694
989.35        63.89637
989.73        63.39109
990.12        63.23109
990.50        63.31376
990.88        63.26771
991.27        62.52163
991.65         61.0406
992.03        59.11765
992.42        57.42571
992.80        56.82402
993.18        57.47884
993.56        59.17566
993.95        61.24577
994.33        62.54301
994.71        62.54448
995.10        61.65506
995.48        60.48727
995.86        60.07271
996.24        60.64939
996.63        61.73774
997.01        63.11457
997.39        63.99965
997.77        64.04005
998.15         63.6419
998.54        62.75109
998.92        61.12652
999.30        58.99137
999.68        56.46072
1000.06        54.42466
1000.45        54.13844
1000.83        55.89281
1001.21        59.50271
1001.59        63.92606
1001.97        66.56609
1002.35        66.41879
1002.73        64.26192
1003.12        61.61837
1003.50        60.45396
1003.88        61.34664
1004.26        63.61549
1004.64        66.77002
1005.02        69.68203
1005.40        71.61348
1005.78        72.93109
1006.16        73.24299
1006.54         71.9341
1006.92        69.22866
1007.30         65.4734
1007.69        61.85462
1008.07        59.87834
1008.45        60.01014
1008.83        61.93759
1009.21         65.0703
1009.59        67.70427
1009.97        68.82936
1010.35        68.81326
1010.73        67.81853
1011.11        66.18925
1011.49        64.29929
1011.86        62.14896
1012.24        60.26037
1012.62        59.31424
1013.00        59.38932
1013.38        60.35929
1013.76        61.94339
1014.14        63.26645
1014.52        63.81997
1014.90        63.77279
1015.28        63.22427
1015.66        62.37939
1016.04        61.36643
1016.41        60.10016
1016.79        58.83323
1017.17        58.16359
1017.55        58.21677
1017.93        58.80729
1018.31        59.57621
1018.69        59.95577
1019.06        59.81693
1019.44         59.3501
1019.82        58.54333
1020.20        57.52796
1020.58        56.50349
1020.95        55.35818
1021.33        54.63953
1021.71        54.89265
1022.09         56.1701
1022.46         58.6459
1022.84        61.38929
1023.22        62.05697
1023.60        59.89351
1023.97        55.56079
1024.35        51.55392
1024.73         50.6863
