SpectraSmart Spectrum 2.9.0.0
--------- Device Information -----------
Spectrum Name :  反射率_0
Saving Time :  2024/04/26 23:41:33
Spectro-Module Model Name : SE2030-DUVN
Spectro-Module Serial Number : OS361AC55029948
Wavelength Start : 200
Wavelength End : 1025
Wavelength Unit : Wavelength(nm)
Spectrum Unit : Reflectance(%)
-----------Spectrum Setting ------------
Integration Time : 20ms
Average : 10
Boxcar : 0
Background removal :  enabled
linearity correction :  enabled
SC :  disabled
Intensity correction :  disabled
DWT denoise :  enabled
savitzky-golay :  disabled
FFT :  disabled
Running average :  disabled
Kalman :  disabled
High pass :  disabled
---------------BEGIN--------------------
Wavelength(nm)             Reflectance(%)
200.29               0
200.75        27.92609
201.21        22.67319
201.67        18.10553
202.13        16.15384
202.58         16.8197
203.04        20.22753
203.50        25.62543
203.96        29.74233
204.42        30.20893
204.88        26.89913
205.34        22.76375
205.80        23.72954
206.26        30.17698
206.72        38.64207
207.18        44.95921
207.64        45.71761
208.10        40.65621
208.55        30.00241
209.01        13.67929
209.47        2.006799
209.93        2.931326
210.39        10.51677
210.85        18.13186
211.31        22.96436
211.77        25.98945
212.23        29.47885
212.69        35.96635
213.14        47.43765
213.60        47.39093
214.06        39.45659
214.52        34.06788
214.98        32.21399
215.44        32.19772
215.90        32.84813
216.36        34.54545
216.81        37.88058
217.27        43.57595
217.73        53.51366
218.19        66.10334
218.65        69.79244
219.11        61.39548
219.57        49.13502
220.02        41.32184
220.48        42.22416
220.94        51.40952
221.40        70.01666
221.86        98.39675
222.32        120.2901
222.77        119.2268
223.23         105.082
223.69        89.19028
224.15        78.55718
224.61        72.86838
225.06        69.07201
225.52        67.65008
225.98        69.01631
226.44        72.67779
226.90        78.55053
227.36        84.54858
227.81        86.75179
228.27        84.82191
228.73        80.22493
229.19        75.86916
229.65        75.19541
230.10        78.31252
230.56        83.92709
231.02        89.79435
231.48        92.33817
231.93        90.83163
232.39        87.23102
232.85        83.20791
233.31         80.8997
233.77        80.62789
234.22        81.53943
234.68        83.05904
235.14         84.4644
235.60        85.41771
236.05        86.33749
236.51        86.76389
236.97        85.90985
237.43        83.63881
237.88        80.13641
238.34        76.33981
238.80        74.15522
239.26        74.18046
239.71        76.68801
240.17        80.76311
240.63        84.03719
241.08        84.94724
241.54        83.09563
242.00        79.87853
242.46         78.3008
242.91        80.16856
243.37        84.86195
243.83        92.13897
244.28        96.83222
244.74        92.20171
245.20        80.65743
245.66         67.5583
246.11        55.32565
246.57        44.32764
247.03        33.41499
247.48        25.00492
247.94        24.05171
248.40        29.33265
248.85        36.46393
249.31        42.57294
249.77        45.91772
250.22        46.69362
250.68        45.49665
251.14        42.52891
251.59        39.28051
252.05        37.71635
252.51        38.12697
252.96        39.11021
253.42        39.34596
253.88        39.00403
254.33        38.42141
254.79        39.76645
255.25        44.91885
255.70        53.50035
256.16        64.59708
256.62        74.37473
257.07        76.76995
257.53        73.12649
257.99        67.19411
258.44        62.25956
258.90        61.27731
259.35        63.09001
259.81        66.52358
260.27        69.78496
260.72        70.69374
261.18        69.47555
261.63        66.95631
262.09        64.60945
262.55        63.37907
263.00        63.15802
263.46        63.62108
263.91        63.96071
264.37        63.54255
264.83        62.30626
265.28        60.59447
265.74        59.10729
266.19        58.35123
266.65         58.4505
267.11        59.03631
267.56        59.74849
268.02        60.03553
268.47        59.72406
268.93        59.05519
269.38        58.10653
269.84        57.06734
270.30        56.02634
270.75        54.92167
271.21        53.96975
271.66        53.43336
272.12        53.33568
272.57        53.55475
273.03        53.79763
273.48        53.55371
273.94        52.77128
274.39        51.57176
274.85        50.27559
275.31        49.15099
275.76        48.25961
276.22        47.58534
276.67        47.00488
277.13        46.48373
277.58        45.91945
278.04        45.34633
278.49         44.7561
278.95        44.27832
279.40        43.84007
279.86        43.49424
280.31        42.98906
280.77        42.11855
281.22        40.86143
281.68        39.43574
282.13        38.11532
282.59        37.39167
283.04        37.26322
283.50        37.56718
283.95        38.00304
284.41        38.11592
284.86        37.76709
285.32        37.14019
285.77        36.35741
286.22        35.66555
286.68        35.13458
287.13        34.64748
287.59          34.209
288.04        33.78381
288.50        33.38771
288.95        33.01287
289.41        32.66043
289.86        32.23597
290.32        31.76926
290.77        31.26703
291.22        30.78597
291.68        30.39551
292.13        30.10152
292.59        29.89983
293.04        29.78356
293.50        29.76852
293.95         29.8351
294.40         29.9771
294.86        30.16147
295.31        30.32369
295.77        30.45733
296.22        30.57326
296.68        30.69344
297.13        30.83863
297.58        31.02671
298.04        31.24863
298.49        31.52234
298.95         31.8945
299.40        32.35126
299.85         32.8743
300.31        33.39765
300.76        33.80697
301.21         34.0851
301.67        34.28145
302.12         34.4341
302.58        34.66438
303.03        34.97097
303.48         35.3303
303.94         35.7209
304.39        36.07714
304.84        36.38904
305.30        36.68171
305.75        36.92138
306.20        37.11184
306.66        37.26415
307.11        37.36131
307.57        37.42941
308.02        37.46137
308.47        37.47353
308.93        37.47696
309.38        37.46989
309.83        37.49673
310.29        37.56244
310.74        37.65191
311.19        37.72631
311.65        37.71511
312.10        37.60088
312.55        37.40557
313.00        37.19143
313.46        37.05176
313.91        36.99138
314.36        36.98909
314.82        36.98296
315.27        36.88454
315.72        36.66965
316.18        36.37976
316.63        36.05951
317.08        35.79309
317.53        35.60099
317.99        35.45227
318.44        35.32122
318.89        35.15438
319.35        34.93824
319.80        34.69427
320.25         34.4409
320.70        34.20542
321.16        33.99444
321.61        33.80733
322.06        33.63437
322.51        33.46522
322.97        33.29055
323.42        33.11648
323.87        32.95007
324.32        32.80907
324.78        32.68071
325.23        32.57301
325.68        32.43808
326.13        32.21067
326.59        31.88449
327.04        31.49893
327.49        31.11181
327.94        30.81569
328.39        30.62874
328.85        30.50928
329.30        30.44664
329.75        30.35902
330.20        30.22165
330.66        30.05328
331.11        29.87494
331.56        29.69555
332.01        29.52095
332.46        29.33467
332.92         29.1357
333.37        28.97818
333.82        28.85386
334.27        28.76038
334.72        28.66756
335.17        28.51736
335.63          28.302
336.08        28.06798
336.53        27.85241
336.98        27.72541
337.43        27.70706
337.88        27.76134
338.34        27.88441
338.79        28.09877
339.24        28.36707
339.69        28.67031
340.14        28.89821
340.59        28.88019
341.05        28.60285
341.50        28.12728
341.95        27.59918
342.40         27.2431
342.85        27.12203
343.30        27.17667
343.75        27.33743
344.20        27.48327
344.66        27.56846
345.11        27.62343
345.56        27.64922
346.01        27.64643
346.46        27.62238
346.91        27.56937
347.36        27.49653
347.81        27.43081
348.26        27.37921
348.72        27.33533
349.17        27.30445
349.62        27.30454
350.07        27.33106
350.52        27.38047
350.97        27.40269
351.42        27.31715
351.87        27.11746
352.32        26.83752
352.77         26.5536
353.22        26.37608
353.67        26.32777
354.13        26.37607
354.58         26.4639
355.03        26.49772
355.48        26.44506
355.93        26.32866
356.38         26.1842
356.83        26.06557
357.28        25.98222
357.73        25.91083
358.18        25.81415
358.63        25.63945
359.08         25.3814
359.53         25.0671
359.98        24.74349
360.43         24.4733
360.88        24.26922
361.33        24.11307
361.78        23.97286
362.23        23.79743
362.68         23.5787
363.13        23.34143
363.58        23.11059
364.03        22.92098
364.48        22.78195
364.93        22.67749
365.38        22.60367
365.83        22.55729
366.28        22.52788
366.73        22.50895
367.18        22.47705
367.63        22.39664
368.08        22.25958
368.53        22.07529
368.98        21.85961
369.43        21.64033
369.88        21.42894
370.33         21.2206
370.78        21.02128
371.23        20.83967
371.68        20.67936
372.13        20.54538
372.58        20.42653
373.03        20.29951
373.48         20.1587
373.93        20.00684
374.38        19.85928
374.83        19.74504
375.28        19.66437
375.72        19.59413
376.17        19.52426
376.62        19.41459
377.07         19.2613
377.52        19.08817
377.97        18.90171
378.42        18.71601
378.87         18.5438
379.32        18.37473
379.77        18.25012
380.22        18.23024
380.67        18.31157
381.11        18.48062
381.56        18.62817
382.01        18.58501
382.46        18.32633
382.91        17.92488
383.36        17.51356
383.81        17.27683
384.26        17.24864
384.71        17.36736
385.15         17.5594
385.60        17.70161
386.05        17.74699
386.50        17.73529
386.95         17.6779
387.40         17.5935
387.85        17.49688
388.29        17.36534
388.74        17.24871
389.19        17.18105
389.64        17.16435
390.09        17.18951
390.54        17.21589
390.98        17.16873
391.43        17.04769
391.88         16.8789
392.33        16.71063
392.78        16.61072
393.23        16.58969
393.67        16.61325
394.12         16.6633
394.57        16.68161
395.02        16.65284
395.47        16.58719
395.91        16.50619
396.36        16.43598
396.81        16.39721
397.26        16.38473
397.71        16.37515
398.15        16.34549
398.60        16.31184
399.05        16.21453
399.50         16.1024
399.95        16.16329
400.39        16.35169
400.84        16.36279
401.29        16.18785
401.74        16.07036
402.18        16.02192
402.63        15.88917
403.08        15.72083
403.53        15.66339
403.97        15.73139
404.42        15.88239
404.87         16.0507
405.32         16.1285
405.76        16.08668
406.21        15.96626
406.66        15.82535
407.11        15.75634
407.55        15.78764
408.00        15.88455
408.45        16.00186
408.90        16.05243
409.34        16.00916
409.79        15.90321
410.24        15.78528
410.68        15.72021
411.13        15.72695
411.58        15.78494
412.03        15.85028
412.47        15.84979
412.92        15.76379
413.37        15.62819
413.81        15.49723
414.26         15.4597
414.71        15.52566
415.15        15.67001
415.60        15.84047
416.05        15.95735
416.49         15.9913
416.94        15.96234
417.39        15.89843
417.83        15.84292
418.28        15.81059
418.73        15.78644
419.17        15.76812
419.62        15.75407
420.07         15.7434
420.51        15.73823
420.96        15.73833
421.41        15.73561
421.85        15.72281
422.30        15.69616
422.74        15.65346
423.19        15.66467
423.64        15.70696
424.08        15.68098
424.53        15.59553
424.98        15.58891
425.42        15.67888
425.87        15.75388
426.31        15.79569
426.76        15.89204
427.21        15.98904
427.65         15.8728
428.10        15.62283
428.54        15.52701
428.99          15.615
429.44        15.79512
429.88        15.98071
430.33        15.97515
430.77        15.81139
431.22         15.8103
431.66        15.96755
432.11        15.99884
432.56        15.90753
433.00        15.90871
433.45        15.94697
433.89        15.81869
434.34        15.64134
434.78        15.32875
435.23        15.72911
435.67        15.80459
436.12        15.76555
436.57        15.66457
437.01        15.53636
437.46        15.44736
437.90        15.40754
438.35        15.35922
438.79        15.30376
439.24        15.29475
439.68        15.33337
440.13        15.40257
440.57        15.49033
441.02        15.58946
441.46        15.68511
441.91        15.73198
442.35         15.7272
442.80        15.82772
443.24        15.96915
443.69        15.88392
444.13        15.62861
444.58        15.54199
445.02        15.64452
445.47        15.76567
445.91         15.8618
446.36        15.94122
446.80        15.98312
447.24        15.98565
447.69        15.96578
448.13        15.94336
448.58        15.92941
449.02        15.91649
449.47         15.8983
449.91        15.85791
450.36        15.79957
450.80        15.72953
451.25        15.67091
451.69        15.64642
452.13        15.66164
452.58        15.70525
453.02        15.75445
453.47         15.7758
453.91        15.75963
454.36         15.7174
454.80         15.6603
455.24         15.6053
455.69        15.56569
456.13        15.52886
456.58        15.50925
457.02        15.50364
457.46        15.51818
457.91        15.55142
458.35        15.58686
458.79        15.60102
459.24        15.60036
459.68        15.57916
460.13        15.56501
460.57         15.5621
461.01        15.58596
461.46        15.61969
461.90        15.66568
462.34        15.71512
462.79        15.75678
463.23         15.7959
463.68        15.81204
464.12        15.78268
464.56        15.70461
465.01        15.60948
465.45        15.49824
465.89        15.41331
466.34        15.36192
466.78        15.33089
467.22        15.32348
467.67        15.33042
468.11        15.35578
468.55        15.39442
468.99        15.43714
469.44        15.46635
469.88        15.47837
470.32        15.47513
470.77        15.46453
471.21        15.46466
471.65        15.47804
472.10        15.50047
472.54        15.52345
472.98        15.54028
473.42        15.54776
473.87        15.55336
474.31        15.54764
474.75         15.5306
475.20        15.50803
475.64        15.47654
476.08        15.44808
476.52        15.43206
476.97        15.43207
477.41        15.45409
477.85         15.4973
478.29         15.5367
478.74        15.57932
479.18        15.66282
479.62        15.77065
480.06        15.84962
480.50        15.89675
480.95        15.92034
481.39        15.90777
481.83        15.99513
482.27        15.94784
482.72        15.95546
483.16        15.97936
483.60        16.01713
484.04         16.0525
484.48        16.23696
484.93        16.55062
485.37        16.40624
485.81        16.34034
486.25        16.64805
486.69        16.31712
487.14         16.5675
487.58        16.99304
488.02        17.11475
488.46        16.63883
488.90        16.95935
489.34        16.97032
489.79        17.18394
490.23         17.2085
490.67        17.25681
491.11        17.31989
491.55        17.31759
491.99        17.29554
492.43        17.34049
492.88        17.46673
493.32         17.6367
493.76        17.81603
494.20        17.97197
494.64        18.09643
495.08        18.16381
495.52        18.19002
495.96        18.32046
496.41        18.52504
496.85          18.516
497.29        18.34143
497.73        18.50528
498.17         18.7387
498.61        18.91885
499.05        18.94251
499.49        18.99724
499.93        19.04803
500.37        19.19098
500.82        19.39003
501.26        19.53556
501.70         19.6137
502.14        19.69521
502.58        19.79519
503.02        19.89785
503.46        20.00394
503.90        20.11841
504.34        20.21626
504.78        20.25575
505.22        20.23276
505.66        20.16402
506.10        20.09002
506.54        20.07452
506.98        20.13303
507.42        20.24674
507.86        20.38629
508.30         20.5015
508.74        20.57532
509.18        20.62185
509.62        20.65109
510.06        20.68056
510.50        20.71648
510.94        20.74936
511.38        20.78155
511.82        20.81868
512.26        20.86158
512.70        20.91383
513.14        20.96454
513.58        20.99408
514.02        20.99927
514.46        20.98282
514.90        20.96631
515.34        20.98565
515.78        21.04474
516.22        21.13005
516.66        21.20757
517.10        21.22286
517.54        21.16636
517.98        21.06005
518.42        20.93759
518.86        20.85245
519.30        20.82114
519.74         20.8268
520.18        20.85765
520.62         20.8943
521.06        20.92701
521.50        20.96257
521.93         20.9917
522.37        20.99021
522.81        20.95851
523.25        20.90003
523.69        20.83497
524.13         20.7976
524.57        20.79374
525.01        20.81138
525.45        20.83255
525.89        20.82685
526.32        20.78445
526.76        20.72303
527.20        20.64846
527.64        20.57148
528.08        20.49859
528.52        20.42541
528.96        20.36397
529.40         20.3335
529.83        20.33344
530.27        20.35842
530.71        20.38131
531.15        20.36021
531.59        20.28637
532.03        20.17128
532.46        20.03901
532.90        19.94257
533.34        19.89172
533.78        19.86341
534.22        19.83838
534.66        19.81029
535.09        19.75923
535.53        19.65169
535.97        19.51793
536.41          19.455
536.85        19.47429
537.28        19.52781
537.72         19.5982
538.16        19.67196
538.60        19.73787
539.04         19.8011
539.47        19.85238
539.91        19.89102
540.35        19.91525
540.79        19.92481
541.22        19.93865
541.66        19.99521
542.10        20.09741
542.54        20.23578
542.97        20.37792
543.41        20.48004
543.85        20.53207
544.29        20.55328
544.72        20.57102
545.16         20.6416
545.60        20.77347
546.04        20.95129
546.47        21.15732
546.91        21.35791
547.35        21.53615
547.79        21.69998
548.22        21.84728
548.66        21.97082
549.10        22.09822
549.53        22.21938
549.97        22.33935
550.41        22.41699
550.84        22.47891
551.28        22.58941
551.72        22.73115
552.15        22.89257
552.59        23.09747
553.03        23.00865
553.46        23.31778
553.90        23.42257
554.34        23.52452
554.77        23.62271
555.21        23.72904
555.65        23.84229
556.08        23.95327
556.52        24.05082
556.96         24.1258
557.39         24.2305
557.83        24.34571
558.27          24.332
558.70        24.22847
559.14        24.24309
559.57        24.37105
560.01        24.48469
560.45          24.558
560.88        24.62267
561.32        24.68523
561.75        24.72683
562.19        24.77145
562.63        24.81785
563.06        24.88355
563.50        25.03486
563.93        25.21663
564.37        25.34153
564.80        25.40716
565.24        25.40626
565.68        25.31204
566.11         25.6122
566.55        25.39858
566.98        25.43195
567.42        25.48791
567.85        25.61426
568.29        25.81868
568.72        26.10189
569.16        26.44117
569.60        26.64619
570.03        26.79817
570.47        26.90426
570.90        27.02541
571.34        26.97595
571.77        27.18578
572.21        27.33577
572.64        27.50865
573.08        27.57895
573.51        27.58845
573.95        27.71579
574.38        27.96834
574.82        28.04702
575.25        27.79741
575.69        27.80701
576.12        27.98927
576.56        28.06697
576.99        28.16618
577.42        27.94617
577.86        28.09943
578.29        28.48277
578.73        28.18377
579.16        28.04428
579.60        27.74145
580.03        27.75324
580.47        27.72284
580.90        27.84589
581.33        28.08598
581.77        27.99526
582.20        27.49214
582.64        27.59269
583.07        27.33009
583.51        27.22143
583.94        27.07227
584.37        27.07165
584.81        27.12524
585.24        27.04339
585.68        26.86753
586.11        26.65578
586.54        26.64186
586.98        26.47762
587.41        26.45544
587.85        26.38204
588.28        26.38619
588.71        26.10143
589.15        26.16361
589.58        26.32463
590.01        26.18387
590.45        26.25015
590.88         26.3227
591.31        26.25891
591.75        26.12502
592.18        26.04142
592.61        26.02241
593.05        26.44226
593.48         26.7945
593.91        26.48941
594.35        26.46666
594.78        26.34931
595.21        26.47977
595.65        26.73288
596.08        27.11303
596.51        27.28373
596.94        27.16163
597.38        27.26746
597.81        27.58939
598.24        27.82962
598.68         28.0496
599.11        28.16183
599.54        28.90548
599.97        28.74083
600.41        29.16579
600.84        29.17928
601.27        29.58327
601.70        29.90536
602.14        30.24104
602.57        30.57068
603.00        30.93716
603.43        31.20498
603.87        31.77891
604.30        32.16948
604.73        32.53932
605.16        32.67802
605.60        32.90764
606.03        33.12555
606.46        33.45544
606.89        33.62084
607.32        34.56195
607.76        34.75235
608.19         35.2093
608.62        35.45251
609.05        35.79404
609.48        36.04407
609.92        36.66877
610.35        36.76062
610.78          36.896
611.21        36.83517
611.64        37.32485
612.07        37.69098
612.50        37.91295
612.94        38.13958
613.37        38.25927
613.80        38.78854
614.23        38.52463
614.66        38.78735
615.09        39.21039
615.52        39.59309
615.96        39.86213
616.39        40.11889
616.82        40.37952
617.25        40.41611
617.68        40.44694
618.11        40.72052
618.54        41.21545
618.97        41.40487
619.40        41.30042
619.84        41.49556
620.27        41.62214
620.70        41.89005
621.13        42.10545
621.56        41.95588
621.99        41.51814
622.42        41.47574
622.85        41.86892
623.28        41.73343
623.71        41.76451
624.14         42.0173
624.57        42.08879
625.00        42.19461
625.43        42.12702
625.86        42.04469
626.29        41.99591
626.72        41.58567
627.15        41.67223
627.58        41.55293
628.01        41.43075
628.44        41.25118
628.87        40.91669
629.30        40.60135
629.73        40.30697
630.16        40.04567
630.59        39.82492
631.02        39.65843
631.45        39.51284
631.88        39.29916
632.31         38.9944
632.74        38.64863
633.17        38.28544
633.60        37.80392
634.03         37.4411
634.46        37.01228
634.89        36.59283
635.32        36.19258
635.75        35.82349
636.18        35.46445
636.61         35.1122
637.04        34.76685
637.47        34.42316
637.89        34.08168
638.32        33.73688
638.75        33.41207
639.18        33.11606
639.61        32.84769
640.04        32.60459
640.47        32.37892
640.90        32.16716
641.33        31.97286
641.76         31.7991
642.18        31.65579
642.61        31.53656
643.04        31.44153
643.47        31.37146
643.90        31.32721
644.33        31.30802
644.76        31.31648
645.18        31.34325
645.61        31.36662
646.04        31.38664
646.47        31.40712
646.90        31.45983
647.33        31.58758
647.75        31.79135
648.18        32.10111
648.61        32.47893
649.04         32.7566
649.47        32.89602
649.89        33.37666
650.32        33.38667
650.75        33.85222
651.18        34.46412
651.61        34.97283
652.03        35.38072
652.46        35.78342
652.89        36.17916
653.32        36.69921
653.74        37.43328
654.17        37.44833
654.60        37.85812
655.03        38.72025
655.46        38.76342
655.88        39.17372
656.31        40.87103
656.74        42.09573
657.16        41.87826
657.59        42.09467
658.02          41.539
658.45        42.38138
658.87        42.30611
659.30        42.55434
659.73        42.75055
660.15        43.76773
660.58        43.40205
661.01        43.66233
661.44        43.95314
661.86        44.06348
662.29        44.00051
662.72        44.54512
663.14        44.80232
663.57        44.93926
664.00        44.81323
664.42        45.01205
664.85        45.56942
665.27         46.1927
665.70        46.71258
666.13        47.01668
666.55        47.06231
666.98        46.84372
667.41        46.49013
667.83        46.51202
668.26         46.4852
668.69        46.73605
669.11        47.05881
669.54        47.34538
669.96        47.55904
670.39        47.75367
670.82        47.92331
671.24        48.02045
671.67        48.06779
672.09        48.05955
672.52         48.0629
672.94        48.24886
673.37        48.56385
673.80        48.68407
674.22        48.63364
674.65        48.70334
675.07        48.91299
675.50        49.06503
675.92        49.14209
676.35        49.20179
676.77          49.246
677.20          49.261
677.62        49.27586
678.05        49.32718
678.47        49.42539
678.90         49.5864
679.32        49.78708
679.75        49.92532
680.17        50.08992
680.60        50.19609
681.02        50.30755
681.45        50.43487
681.87        50.58564
682.30        50.84019
682.72        51.13216
683.15        51.09135
683.57        50.81769
684.00        50.86859
684.42        51.23386
684.85         51.4255
685.27        51.42355
685.70        51.55018
686.12        51.76006
686.54        51.81838
686.97        51.75319
687.39        51.66725
687.82        51.68941
688.24        51.78582
688.66        51.98586
689.09        51.96997
689.51        52.13143
689.94        52.26947
690.36        52.50323
690.78        52.57907
691.21        52.76036
691.63        52.87182
692.06         52.9832
692.48         53.0591
692.90        53.07839
693.33        53.04712
693.75        52.96212
694.17        52.78757
694.60        52.64343
695.02        52.69391
695.44        52.93337
695.87        53.44083
696.29        54.03001
696.71         53.8564
697.14        53.28941
697.56        53.18007
697.98        53.61214
698.41        53.80066
698.83        53.73534
699.25        53.92814
699.68        54.28328
700.10        54.43435
700.52        54.32452
700.94        54.07838
701.37        53.81568
701.79        53.73238
702.21        53.87149
702.64        54.15153
703.06        54.48698
703.48        54.72643
703.90        54.82228
704.33        54.82742
704.75        54.77327
705.17        54.70161
705.59         54.6356
706.01        54.55528
706.44        54.50643
706.86        54.54663
707.28         54.6689
707.70         54.9657
708.12        55.34132
708.55        55.38639
708.97        55.18468
709.39        55.32676
709.81        55.77845
710.23        55.97369
710.66         55.8746
711.08        55.82382
711.50        55.82127
711.92        55.72969
712.34        55.56366
712.76        55.38009
713.19        55.21419
713.61        55.15192
714.03        55.20454
714.45        55.35147
714.87        55.56995
715.29        55.82816
715.71        56.10035
716.13        56.37043
716.56        56.59984
716.98        56.80536
717.40        56.94212
717.82        57.00639
718.24        56.97297
718.66        56.79424
719.08        56.49259
719.50        56.16046
719.92        55.87991
720.34         55.6712
720.76        55.61114
721.19        55.85774
721.61        56.36492
722.03        56.78115
722.45        57.02586
722.87        57.19314
723.29        57.58606
723.71        57.21078
724.13        57.22535
724.55        56.81808
724.97        56.41372
725.39        56.16976
725.81        56.14457
726.23        56.26775
726.65        56.46918
727.07        56.78204
727.49        56.95961
727.91        57.18574
728.33        57.39154
728.75        57.56984
729.17        57.70992
729.59        57.79335
730.01        57.82769
730.43        57.83374
730.85         57.8215
731.27        57.79716
731.69        57.75295
732.10         57.6737
732.52        57.56223
732.94        57.42891
733.36        57.31689
733.78        57.26183
734.20        57.27858
734.62        57.43483
735.04        57.67613
735.46        57.64391
735.88        57.66482
736.30          57.637
736.72        57.71534
737.13        57.86008
737.55        58.00977
737.97        58.33344
738.39        58.68763
738.81        58.47255
739.23         57.8531
739.65        57.84179
740.06        58.37528
740.48        58.59425
740.90        58.45396
741.32        58.47567
741.74        58.67358
742.16        58.77772
742.57         58.7726
742.99         58.7593
743.41        58.73056
743.83        58.57489
744.25        58.34134
744.67         58.2094
745.08        58.22261
745.50        58.27531
745.92         58.3707
746.34        58.57447
746.75         58.8282
747.17        58.96981
747.59        58.97864
748.01        58.92613
748.42        58.83194
748.84        58.72437
749.26        58.66363
749.68        58.60266
750.09        58.56488
750.51        58.83202
750.93        59.22377
751.35        59.02877
751.76        58.36429
752.18         58.0576
752.60        58.15517
753.01        58.22415
753.43        58.20616
753.85        58.15262
754.27        58.17022
754.68         58.2277
755.10        58.26365
755.52        58.34471
755.93         58.4274
756.35         58.5337
756.77        58.73123
757.18        58.87975
757.60         58.9482
758.02        59.44115
758.43        60.18491
758.85        59.22197
759.26        58.79244
759.68        58.28036
760.10        58.62251
760.51        59.05211
760.93         59.4231
761.34        59.45848
761.76        59.19153
762.18        59.01263
762.59        59.05889
763.01        59.28881
763.42        59.66401
763.84        59.84129
764.26        59.79241
764.67        59.68845
765.09        59.61384
765.50         59.5207
765.92        59.44431
766.33        59.35973
766.75        59.21164
767.16        59.04798
767.58        58.89894
768.00        58.86097
768.41        58.98869
768.83        59.35231
769.24        59.78589
769.66        59.91776
770.07        59.74587
770.49        59.43055
770.90        59.16662
771.32        59.46275
771.73        60.16078
772.15        60.41594
772.56        60.18683
772.97        59.84131
773.39        59.49471
773.80         59.7327
774.22        59.62742
774.63        59.93041
775.05        60.21509
775.46         60.3762
775.88        60.33427
776.29        60.14327
776.70        59.92014
777.12        59.86319
777.53        60.02524
777.95         60.3008
778.36        60.59274
778.77        60.70881
779.19        60.61881
779.60        60.41584
780.02        60.14899
780.43        59.95968
780.84        59.91274
781.26        59.72107
781.67        59.51196
782.09        60.03197
782.50        61.01204
782.91        61.12726
783.33        60.44195
783.74        60.18948
784.15        60.41127
784.57        60.49104
784.98        60.41259
785.39        60.19207
785.81        59.96434
786.22        60.36839
786.63        61.08333
787.04        61.43525
787.46        61.31326
787.87        61.12728
788.28        60.99467
788.70        60.90429
789.11        60.87485
789.52         60.9627
789.93         61.1069
790.35        61.10396
790.76        60.97766
791.17        60.97339
791.58        61.10374
792.00        61.10651
792.41        60.97665
792.82        61.09049
793.23        61.17145
793.65        60.98492
794.06        60.60391
794.47        60.75076
794.88        61.30139
795.29        61.48427
795.71        61.22996
796.12        61.04011
796.53         60.9881
796.94         60.8526
797.35        60.73218
797.76        61.01986
798.18        61.57043
798.59        61.83767
799.00        61.73409
799.41        61.53083
799.82        61.34484
800.23        61.26768
800.64        61.34299
801.06        61.50537
801.47        61.71243
801.88        61.81604
802.29        61.76745
802.70        61.60234
803.11        61.37393
803.52        61.17049
803.93         61.0512
804.34        61.00947
804.75        61.01609
805.17        61.13578
805.58        61.41168
805.99        61.42536
806.40        61.27454
806.81        62.05209
807.22        63.32631
807.63        62.94172
808.04        61.19077
808.45        60.43593
808.86        60.86763
809.27        61.19833
809.68        61.26838
810.09        61.42002
810.50        61.59491
810.91        61.69106
811.32        61.75809
811.73        61.87547
812.14        62.04973
812.55        62.25999
812.96        62.40922
813.37        62.32245
813.78        61.98059
814.19        61.47998
814.60        60.96897
815.01        60.63047
815.42        60.50602
815.83         60.5526
816.24        60.71636
816.65        60.88358
817.05        61.00936
817.46        61.09505
817.87        61.17551
818.28        61.26734
818.69        61.37564
819.10        61.46975
819.51        61.56172
819.92        61.68401
820.33        61.83355
820.74        62.00433
821.14        62.14316
821.55        62.15637
821.96        62.03426
822.37        61.80905
822.78        61.56677
823.19        61.45391
823.60        61.50965
824.00        61.71098
824.41        61.93829
824.82        62.07746
825.23        62.07703
825.64        61.97377
826.04        61.81472
826.45        61.64046
826.86        61.49402
827.27        61.37919
827.68        61.29146
828.08        61.25045
828.49        61.21011
828.90        61.17029
829.31        61.19323
829.72        61.37655
830.12        61.74137
830.53        62.21136
830.94        62.59344
831.35        62.52134
831.75        61.95266
832.16        60.99956
832.57        60.01954
832.97        59.55834
833.38        59.74249
833.79        60.38266
834.20        61.22653
834.60        61.86793
835.01        62.17846
835.42        62.31305
835.82         62.3162
836.23        62.19876
836.64        62.02872
837.04        61.74611
837.45        61.52954
837.86        61.74274
838.26        62.45058
838.67        63.52824
839.08        64.58102
839.48        64.84871
839.89        64.15594
840.29        62.78563
840.70        61.33847
841.11        60.51279
841.51        60.48727
841.92        61.03756
842.33        61.91815
842.73        62.68441
843.14        63.05458
843.54        63.19063
843.95        63.18488
844.35        63.23637
844.76        63.38232
845.17        63.53998
845.57        63.60763
845.98        63.41961
846.38         62.9796
846.79        62.36118
847.19        61.75333
847.60        61.42291
848.00        61.43905
848.41        61.69822
848.81        62.05461
849.22        62.18233
849.62        62.03322
850.03        61.70308
850.43         61.3159
850.84        61.01335
851.24        60.89325
851.65         60.8408
852.05        60.96477
852.46        61.35303
852.86        61.96476
853.27        62.73919
853.67        63.37989
854.07        63.57944
854.48        63.27885
854.88        62.59228
855.29        61.71249
855.69        61.12477
856.10        60.93937
856.50        61.11117
856.90        61.45887
857.31        61.67759
857.71        61.71338
858.12        61.59609
858.52        61.45502
858.92        61.39918
859.33        61.44446
859.73        61.57002
860.13        61.65232
860.54        61.52654
860.94        61.20346
861.34        60.74316
861.75         60.2843
862.15        60.07938
862.55         60.1751
862.96        60.46879
863.36        60.88664
863.76        61.22564
864.17        61.39024
864.57        61.45098
864.97         61.3794
865.38        61.14414
865.78        60.79375
866.18        60.34182
866.58        59.89398
866.99        59.64856
867.39        59.68213
867.79        59.92826
868.19        60.32513
868.60        60.74522
869.00        61.15819
869.40        61.57544
869.80        61.90849
870.21          61.993
870.61        61.85531
871.01        61.50827
871.41        61.07132
871.81        60.72126
872.22        60.49456
872.62        60.33548
873.02        60.25993
873.42        60.27133
873.82        60.35194
874.22        60.51909
874.63        60.64088
875.03         60.5242
875.43        60.13427
875.83        59.52475
876.23        58.92598
876.63         58.7028
877.03         58.9301
877.44        59.48241
877.84        60.11789
878.24        60.44377
878.64        60.30557
879.04        59.67927
879.44         58.9146
879.84        58.67019
880.24        59.03527
880.64        59.75488
881.04        60.46494
881.44        60.60232
881.84        60.04164
882.24        59.00686
882.65        57.88018
883.05        57.24075
883.45        57.24911
883.85         57.7253
884.25        58.45304
884.65         59.0592
885.05        59.39649
885.45        59.57482
885.85        59.64325
886.25        59.67498
886.65        59.70763
887.05        59.69013
887.45        59.64513
887.85        59.64032
888.25        59.67844
888.65        59.74247
889.04        59.79039
889.44        59.76823
889.84        59.65418
890.24        59.48759
890.64        59.26447
891.04        58.98376
891.44        58.67447
891.84        58.34767
892.24        58.10399
892.64         58.0873
893.04        58.31483
893.44        58.75267
893.83        59.26744
894.23        59.58247
894.63        59.64143
895.03        59.48877
895.43        59.28485
895.83        59.30786
896.23        59.61138
896.63        60.09517
897.02        60.54683
897.42        60.65508
897.82        60.35738
898.22        59.79651
898.62        59.17137
899.01        58.76394
899.41        58.66695
899.81        58.77983
900.21        59.02605
900.61        59.28308
901.00        59.48798
901.40        59.66428
901.80        59.78698
902.20        59.80904
902.59        59.73739
902.99        59.57713
903.39        59.35769
903.79        59.13634
904.18        58.93494
904.58        58.75016
904.98        58.64544
905.38        58.71634
905.77        58.96593
906.17        59.38379
906.57        59.79911
906.96         59.9241
907.36        59.69432
907.76        59.21239
908.15         58.7401
908.55        58.68238
908.95        59.12084
909.34        59.90023
909.74        60.73736
910.14        61.24879
910.53        61.28072
910.93        60.99277
911.33          60.422
911.72           59.61
912.12        58.71775
912.52        57.78178
912.91        57.02152
913.31        56.78283
913.70         57.1166
914.10        57.88141
914.49        58.93347
914.89        59.92368
915.29        60.70256
915.68         61.3327
916.08        61.63935
916.47        61.43412
916.87        60.75665
917.26         59.6621
917.66        58.56995
918.05        57.98602
918.45        58.01694
918.84        58.58791
919.24        59.34758
919.64        59.77057
920.03         59.7053
920.42        59.26836
920.82        58.78226
921.21        58.70069
921.61        59.11051
922.00        59.88706
922.40        60.69704
922.79        61.09234
923.19        60.92038
923.58        60.37789
923.98        59.74814
924.37        59.38717
924.77        59.39599
925.16        59.60193
925.55        59.91637
925.95        60.17147
926.34        60.30024
926.74        60.36263
927.13        60.25402
927.52        59.73403
927.92        58.86909
928.31        57.75068
928.70        56.73506
929.10        56.34482
929.49        56.66225
929.89        57.47758
930.28         58.5824
930.67         59.4929
931.07        59.97943
931.46        60.22025
931.85        60.11579
932.24        59.57549
932.64        58.71259
933.03        57.56033
933.42        56.52921
933.82        56.21344
934.21        56.71733
934.60        57.92316
934.99        59.43079
935.39        60.47651
935.78        60.83686
936.17        60.61294
936.56        60.09018
936.96        59.74376
937.35        59.70098
937.74        59.80011
938.13        59.82461
938.53        59.47963
938.92         58.7355
939.31        57.77845
939.70        56.83907
940.09         56.1953
940.49        55.90104
940.88        55.90669
941.27        56.14787
941.66        56.49607
942.05        56.87638
942.44        57.30252
942.84        57.75507
943.23        58.19595
943.62        58.60872
944.01        58.95494
944.40        59.20099
944.79        59.33049
945.18        59.32898
945.57        59.18048
945.97        58.89602
946.36        58.60135
946.75        58.30384
947.14        58.04208
947.53        57.76198
947.92        57.34945
948.31        56.81555
948.70        56.21844
949.09        55.74157
949.48         55.6941
949.87        56.13686
950.26        56.94784
950.65         57.8948
951.04        58.59555
951.43        58.90403
951.82        58.89303
952.21        58.64258
952.60        58.30527
952.99        57.96891
953.38        57.62264
953.77        57.28748
954.16        57.00006
954.55        56.76701
954.94        56.57515
955.33        56.49253
955.72        56.60827
956.11        56.91635
956.50        57.39978
956.89        57.79914
957.28        57.68765
957.66        56.99763
958.05        55.90946
958.44        54.83442
958.83        54.37261
959.22        54.62766
959.61        55.42197
960.00        56.40349
960.39        56.90748
960.78         56.7196
961.16        56.05437
961.55        55.23065
961.94         54.6459
962.33        54.42238
962.72         54.4449
963.11        54.62666
963.49        54.84636
963.88        54.96702
964.27        55.02116
964.66        55.08261
965.04        55.27478
965.43        55.56393
965.82        55.95813
966.21        56.19187
966.60        55.80748
966.98        54.76214
967.37        53.32847
967.76        52.05883
968.15        51.64206
968.53        52.19045
968.92        53.53658
969.31        55.23707
969.69         56.3564
970.08        56.47302
970.47        55.85079
970.86        55.03223
971.24        54.81633
971.63        55.39069
972.02        56.53713
972.40        57.83833
972.79        58.27062
973.17        57.61257
973.56        56.25172
973.95        54.82254
974.33         54.1152
974.72        54.29073
975.11        55.08569
975.49        56.15287
975.88        56.78672
976.26        56.75452
976.65        56.21657
977.04         55.4349
977.42        54.77452
977.81         54.3359
978.19        54.02494
978.58        53.84235
978.96        53.74894
979.35        53.69906
979.74        53.71107
980.12        53.88853
980.51        54.17861
980.89        54.63958
981.28        55.21032
981.66        55.69571
982.05        55.79668
982.43        55.49021
982.82        54.80349
983.20         54.1652
983.59         54.3088
983.97        55.48294
984.35        57.47878
984.74        59.50696
985.12        60.44752
985.51        59.94203
985.89        58.36126
986.28        56.54112
986.66        55.66632
987.04        56.08536
987.43        57.44077
987.81         59.1381
988.20        59.95076
988.58        59.48765
988.96        58.09319
989.35        56.39592
989.73        55.26992
990.12        54.91848
990.50        55.13645
990.88         55.4653
991.27        55.15282
991.65        54.06127
992.03        52.51867
992.42        51.19724
992.80        50.98411
993.18        52.04295
993.56        54.11933
993.95        56.47564
994.33         57.8364
994.71        57.65219
995.10        56.38475
995.48        54.76239
995.86        53.95313
996.24        54.24271
996.63        55.16618
997.01        56.47516
997.39        57.36019
997.77        57.45361
998.15        57.14256
998.54        56.43417
998.92         55.1859
999.30        53.59508
999.68         51.7254
1000.06        50.24435
1000.45        50.09906
1000.83        51.52197
1001.21        54.36124
1001.59        57.86018
1001.97        60.08714
1002.35        60.25547
1002.73        58.91513
1003.12        57.09074
1003.50        56.06704
1003.88        56.24413
1004.26        57.08133
1004.64        58.38007
1005.02        59.68849
1005.40        60.65825
1005.78        61.59845
1006.16        61.87569
1006.54        60.45193
1006.92         57.4409
1007.30        53.29548
1007.69        49.53548
1008.07        48.17056
1008.45        49.76195
1008.83        53.92168
1009.21        59.41488
1009.59        63.05341
1009.97        63.23851
1010.35        60.76571
1010.73        56.97606
1011.11        53.87988
1011.49        52.12771
1011.86        51.18672
1012.24        50.73129
1012.62        50.35284
1013.00        49.88757
1013.38        49.48124
1013.76        49.38564
1014.14        49.97168
1014.52        51.27116
1014.90        53.04164
1015.28        54.52086
1015.66        54.78151
1016.04        53.73785
1016.41        51.62833
1016.79        49.30828
1017.17         48.4287
1017.55         49.3616
1017.93        51.46422
1018.31        53.77298
1018.69        54.91832
1019.06        54.57082
1019.44        53.17147
1019.82        50.89468
1020.20         48.4531
1020.58          46.445
1020.95        44.63084
1021.33        43.56508
1021.71        43.75552
1022.09         45.1982
1022.46        48.22179
1022.84         51.6382
1023.22        52.33321
1023.60         49.3616
1023.97        43.58992
1024.35        38.36465
1024.73        37.67189
