SpectraSmart Spectrum 2.9.0.0
--------- Device Information -----------
Spectrum Name :  反射率_0
Saving Time :  2024/04/26 23:38:33
Spectro-Module Model Name : SE2030-DUVN
Spectro-Module Serial Number : OS361AC55029948
Wavelength Start : 200
Wavelength End : 1025
Wavelength Unit : Wavelength(nm)
Spectrum Unit : Reflectance(%)
-----------Spectrum Setting ------------
Integration Time : 20ms
Average : 10
Boxcar : 0
Background removal :  enabled
linearity correction :  enabled
SC :  disabled
Intensity correction :  disabled
DWT denoise :  enabled
savitzky-golay :  disabled
FFT :  disabled
Running average :  disabled
Kalman :  disabled
High pass :  disabled
---------------BEGIN--------------------
Wavelength(nm)             Reflectance(%)
200.29               0
200.75        23.00352
201.21        28.34843
201.67        33.45946
202.13        36.00019
202.58         35.7519
203.04        33.86645
203.50        30.43809
203.96        26.20976
204.42        22.29765
204.88        18.40464
205.34        16.08177
205.80        17.60029
206.26         22.3951
206.72        28.93725
207.18        34.34937
207.64        36.27488
208.10        34.75547
208.55        30.13008
209.01        22.22539
209.47          16.355
209.93        16.64351
210.39        20.13817
210.85        23.88796
211.31        26.84845
211.77        29.76598
212.23        34.78576
212.69        45.92685
213.14        63.62268
213.60        59.75203
214.06        44.97642
214.52        35.65829
214.98         31.6182
215.44        29.93006
215.90         29.0082
216.36        28.92548
216.81        29.88827
217.27        32.44577
217.73        37.86468
218.19        45.22697
218.65        47.73109
219.11         43.2801
219.57          36.216
220.02        32.12728
220.48        34.40948
220.94        43.10464
221.40         59.6479
221.86        83.27173
222.32        97.69941
222.77        89.88292
223.23        71.07834
223.69        53.82605
224.15        45.12957
224.61        43.17849
225.06        44.10535
225.52        46.24999
225.98        48.00086
226.44        49.05378
226.90        50.15581
227.36        50.94547
227.81        50.61749
228.27        49.31531
228.73        47.17248
229.19        45.27236
229.65        44.91599
230.10        46.11681
230.56        48.55326
231.02        51.00761
231.48        51.53584
231.93        49.87086
232.39        47.03692
232.85        44.46509
233.31        44.04614
233.77        45.90695
234.22        49.39142
234.68        53.19965
235.14        55.37426
235.60        55.36255
236.05        53.70383
236.51        51.30792
236.97        50.16941
237.43        51.12674
237.88        53.70006
238.34        57.02225
238.80        59.95445
239.26        62.18605
239.71        64.46969
240.17        66.85046
240.63        69.86911
241.08        73.76594
241.54        77.47243
242.00        81.39355
242.46        87.02156
242.91        96.08372
243.37        109.8897
243.83        128.0566
244.28        139.9713
244.74        132.2211
245.20        107.1099
245.66        81.07558
246.11        66.58936
246.57        63.09716
247.03        66.56281
247.48        71.71912
247.94        69.97722
248.40        62.18171
248.85        53.41272
249.31        46.87626
249.77        43.86688
250.22         43.8067
250.68        45.99137
251.14        50.31706
251.59        55.31282
252.05        59.42847
252.51        62.89727
252.96        65.03452
253.42        66.04952
253.88        66.32445
254.33         65.5202
254.79        65.74811
255.25        68.64408
255.70        73.85358
256.16        80.79632
256.62        86.51101
257.07        86.47578
257.53        82.28053
257.99        76.87319
258.44        72.46083
258.90        71.27791
259.35        72.20788
259.81        74.42325
260.27        76.68418
260.72        77.53756
261.18        77.12273
261.63        75.75667
262.09        74.33456
262.55        73.15919
263.00        72.16922
263.46        71.39692
263.91        70.46574
264.37        69.34967
264.83        68.02262
265.28         66.5631
265.74        65.34147
266.19        64.41042
266.65        63.84932
267.11        63.46136
267.56        63.13559
268.02        62.72135
268.47        62.15142
268.93        61.52158
269.38        60.72459
269.84        59.68005
270.30        58.39088
270.75        56.87751
271.21        55.43852
271.66        54.44683
272.12        53.96076
272.57        53.82463
273.03        53.70379
273.48        53.03593
273.94           51.79
274.39         50.1444
274.85        48.50008
275.31        47.22927
275.76        46.37971
276.22        45.84861
276.67        45.43703
277.13        45.00039
277.58        44.40696
278.04        43.74172
278.49          42.967
278.95        42.16691
279.40        41.31043
279.86        40.48451
280.31        39.60587
280.77        38.69845
281.22         37.7462
281.68        36.85073
282.13        36.09707
282.59        35.70696
283.04         35.6399
283.50        35.83324
283.95        36.09519
284.41        36.14302
284.86        35.89843
285.32        35.48168
285.77        34.99797
286.22        34.67826
286.68        34.56836
287.13        34.54635
287.59        34.56822
288.04        34.51441
288.50        34.37952
288.95         34.1796
289.41        33.93957
289.86        33.60489
290.32         33.2336
290.77         32.8326
291.22        32.49857
291.68        32.35611
292.13        32.42224
292.59        32.68993
293.04        33.10651
293.50        33.60685
293.95        34.14762
294.40         34.7359
294.86        35.38071
295.31        36.08841
295.77         36.8578
296.22        37.65585
296.68        38.44677
297.13        39.16403
297.58         39.8091
298.04        40.40895
298.49        41.01205
298.95        41.71708
299.40        42.52555
299.85        43.39677
300.31        44.27782
300.76        45.07001
301.21        45.74599
301.67        46.34492
302.12        46.84602
302.58        47.29356
303.03        47.67633
303.48        48.02553
303.94        48.37858
304.39        48.74001
304.84        49.13503
305.30        49.56689
305.75        50.01819
306.20         50.5289
306.66        51.09689
307.11        51.67704
307.57         52.2058
308.02        52.51827
308.47        52.61142
308.93        52.54334
309.38        52.41083
309.83        52.43447
310.29        52.65707
310.74        53.00647
311.19        53.35835
311.65        53.49863
312.10           53.37
312.55        53.04851
313.00        52.66241
313.46        52.39857
313.91        52.28669
314.36        52.28217
314.82        52.29461
315.27        52.19743
315.72        51.95203
316.18        51.61768
316.63        51.25702
317.08        50.98513
317.53        50.82497
317.99         50.7278
318.44        50.63529
318.89        50.44201
319.35         50.1218
319.80        49.71232
320.25        49.26881
320.70         48.8773
321.16        48.56113
321.61        48.31279
322.06        48.08958
322.51        47.82801
322.97         47.5037
323.42        47.13725
323.87        46.78054
324.32         46.5237
324.78        46.36206
325.23         46.2934
325.68        46.19096
326.13        45.86141
326.59        45.27554
327.04        44.52079
327.49        43.76061
327.94        43.25235
328.39        43.04766
328.85         43.0476
329.30        43.15931
329.75        43.12395
330.20        42.85933
330.66        42.43552
331.11        41.94539
331.56        41.50267
332.01        41.14903
332.46        40.83125
332.92        40.52934
333.37         40.2846
333.82        40.07583
334.27        39.92493
334.72        39.78562
335.17        39.56448
335.63        39.24638
336.08        38.87913
336.53        38.54548
336.98        38.40256
337.43        38.47863
337.88        38.70364
338.34        38.98065
338.79        39.18754
339.24        39.24822
339.69        39.19955
340.14         39.0191
340.59        38.68056
341.05        38.22386
341.50        37.67032
341.95        37.14542
342.40        36.83808
342.85        36.78672
343.30        36.94025
343.75          37.194
344.20         37.3658
344.66        37.39746
345.11        37.33096
345.56        37.20393
346.01        37.08408
346.46         36.9989
346.91        36.92277
347.36        36.85155
347.81        36.78939
348.26        36.73164
348.72        36.67893
349.17        36.62864
349.62        36.58627
350.07        36.54769
350.52        36.51591
350.97        36.44879
351.42        36.28155
351.87        36.01697
352.32        35.68663
352.77        35.37926
353.22        35.22164
353.67        35.23366
354.13        35.37406
354.58        35.55803
355.03        35.64029
355.48        35.57659
355.93         35.4064
356.38        35.19328
356.83         35.0362
357.28        34.95525
357.73        34.90805
358.18        34.85006
358.63        34.71598
359.08        34.49104
359.53         34.2093
359.98        33.89553
360.43        33.57662
360.88        33.26559
361.33        32.95633
361.78        32.66128
362.23        32.40417
362.68        32.18922
363.13        32.01102
363.58        31.84922
364.03        31.66674
364.48        31.45172
364.93        31.21313
365.38        30.96097
365.83        30.71566
366.28        30.48837
366.73        30.27489
367.18         30.0782
367.63        29.90328
368.08        29.74586
368.53        29.60026
368.98        29.45862
369.43          29.306
369.88        29.13766
370.33         28.9614
370.78        28.76877
371.23        28.54873
371.68        28.30848
372.13        28.05502
372.58        27.82922
373.03        27.69482
373.48        27.65603
373.93        27.68355
374.38        27.72015
374.83        27.67456
375.28         27.5219
375.72        27.28601
376.17        27.01197
376.62        26.73472
377.07         26.4777
377.52         26.2372
377.97        26.03273
378.42        25.90019
378.87        25.84007
379.32        25.83078
379.77        25.85069
380.22         25.8639
380.67        25.85155
381.11         25.8294
381.56         25.7443
382.01        25.54389
382.46        25.24198
382.91        24.87599
383.36        24.54075
383.81        24.36496
384.26        24.36209
384.71         24.4865
385.15        24.66233
385.60        24.75859
386.05        24.73156
386.50        24.62098
386.95        24.45162
387.40        24.26646
387.85        24.09104
388.29        23.89964
388.74        23.74574
389.19        23.64862
389.64        23.60426
390.09        23.59973
390.54        23.60214
390.98         23.5477
391.43        23.43808
391.88         23.2954
392.33        23.13761
392.78           22.99
393.23        22.86395
393.67        22.74013
394.12        22.65657
394.57        22.62558
395.02        22.64238
395.47        22.69156
395.91        22.74257
396.36           22.73
396.81         22.6522
397.26        22.53459
397.71        22.39522
398.15        22.27586
398.60        22.21529
399.05        22.10797
399.50        21.98832
399.95        22.06854
400.39         22.2754
400.84        22.20787
401.29        21.88428
401.74        21.68074
402.18        21.62386
402.63        21.49027
403.08         21.3107
403.53         21.2292
403.97        21.25279
404.42        21.34163
404.87        21.44205
405.32        21.46423
405.76        21.38369
406.21        21.23919
406.66        21.07627
407.11        20.96882
407.55        20.94209
408.00        20.96263
408.45        21.00306
408.90        21.00702
409.34        20.95397
409.79        20.86501
410.24        20.76339
410.68        20.67248
411.13        20.60285
411.58        20.54442
412.03         20.4771
412.47        20.37419
412.92        20.23277
413.37         20.0802
413.81        19.94825
414.26         19.8955
414.71        19.92259
415.15        20.01529
415.60        20.13844
416.05        20.24762
416.49        20.32069
416.94        20.36077
417.39        20.36832
417.83        20.34603
418.28        20.29825
418.73        20.22128
419.17        20.13246
419.62        20.06306
420.07          20.023
420.51        20.00429
420.96        19.99729
421.41        19.97825
421.85        19.93459
422.30        19.86739
422.74        19.77955
423.19        19.76439
423.64        19.79314
424.08        19.73614
424.53        19.60011
424.98        19.55145
425.42         19.6117
425.87        19.64628
426.31        19.63807
426.76        19.70209
427.21        19.77338
427.65        19.58549
428.10        19.24219
428.54         19.1047
428.99        19.20799
429.44        19.43678
429.88        19.67119
430.33         19.6488
430.77        19.40763
431.22        19.34768
431.66        19.47731
432.11        19.47647
432.56         19.3574
433.00        19.37487
433.45        19.44483
433.89        19.29905
434.34        19.06818
434.78        18.63696
435.23        19.06871
435.67        19.16598
436.12        19.19098
436.57        19.18057
437.01        19.13823
437.46        19.08624
437.90        19.01975
438.35        18.88513
438.79        18.72568
439.24        18.66972
439.68        18.73226
440.13        18.87512
440.57        19.04704
441.02        19.17864
441.46        19.23858
441.91        19.19523
442.35        19.08553
442.80        19.15136
443.24        19.32155
443.69        19.25532
444.13        18.98609
444.58        18.87007
445.02        18.92114
445.47        18.95137
445.91        18.94703
446.36        18.97569
446.80        19.02623
447.24        19.08035
447.69        19.12416
448.13         19.1282
448.58        19.09283
449.02        19.02496
449.47        18.95006
449.91        18.89834
450.36        18.88474
450.80        18.89759
451.25        18.92722
451.69        18.94556
452.13        18.94598
452.58        18.92909
453.02         18.9049
453.47        18.89159
453.91        18.89258
454.36        18.90859
454.80        18.90764
455.24        18.83963
455.69        18.70776
456.13        18.51812
456.58        18.35222
457.02        18.30105
457.46        18.38377
457.91        18.56637
458.35        18.74831
458.79         18.7756
459.24        18.63735
459.68        18.37912
460.13        18.11888
460.57        17.98412
461.01        18.01733
461.46        18.15792
461.90        18.35383
462.34        18.50298
462.79        18.56182
463.23        18.56771
463.68         18.5213
464.12        18.43608
464.56        18.32494
465.01        18.20739
465.45         18.0865
465.89        18.01858
466.34        18.00945
466.78        18.04426
467.22        18.11019
467.67        18.16303
468.11        18.19751
468.55        18.21376
468.99        18.21889
469.44          18.224
469.88        18.23374
470.32        18.24174
470.77        18.24372
471.21        18.23809
471.65        18.22406
472.10        18.20817
472.54        18.19477
472.98        18.19565
473.42        18.21301
473.87        18.24851
474.31        18.28354
474.75        18.30753
475.20        18.32111
475.64        18.31931
476.08        18.31684
476.52        18.32633
476.97        18.35147
477.41        18.39963
477.85        18.46134
478.29        18.49357
478.74        18.50711
479.18        18.55521
479.62         18.6394
480.06        18.73006
480.50        18.82672
480.95        18.92345
481.39        18.98811
481.83        19.15336
482.27        19.13554
482.72         19.1845
483.16        19.23802
483.60        19.27186
484.04        19.26932
484.48        19.38079
484.93         19.6751
485.37        19.55151
485.81        19.65138
486.25        20.16356
486.69        20.29679
487.14        20.11502
487.58        20.56437
488.02        20.56307
488.46        20.25973
488.90        20.44454
489.34        20.43555
489.79        20.64215
490.23         20.7911
490.67        21.01133
491.11        21.23588
491.55        21.22641
491.99        21.06057
492.43        21.07021
492.88         21.2906
493.32        21.53564
493.76        21.75866
494.20        21.97981
494.64        22.18669
495.08        22.33005
495.52        22.41276
495.96        22.58696
496.41        22.81134
496.85        22.74463
497.29        22.46724
497.73        22.62564
498.17        22.89898
498.61         23.1292
499.05        23.18658
499.49        23.29281
499.93        23.39801
500.37        23.62112
500.82        23.90588
501.26        24.09706
501.70        24.17519
502.14        24.23458
502.58         24.3084
503.02        24.40257
503.46        24.52529
503.90        24.67409
504.34        24.81596
504.78         24.8942
505.22        24.89847
505.66         24.8517
506.10        24.78843
506.54        24.76291
506.98        24.79149
507.42        24.85644
507.86        24.94796
508.30        25.04924
508.74         25.1491
509.18        25.25244
509.62        25.34339
510.06        25.39569
510.50         25.4076
510.94        25.38702
511.38        25.36011
511.82         25.3711
512.26        25.43124
512.70        25.52743
513.14        25.64176
513.58        25.74397
514.02        25.82107
514.46        25.87833
514.90        25.91642
515.34        25.93732
515.78        25.94304
516.22        25.93255
516.66        25.90744
517.10        25.87188
517.54        25.83081
517.98        25.78846
518.42        25.75338
518.86        25.73679
519.30        25.73983
519.74          25.757
520.18        25.78035
520.62         25.7967
521.06        25.80098
521.50        25.79684
521.93         25.7823
522.37        25.74628
522.81        25.69422
523.25        25.62896
523.69        25.56539
524.13        25.52731
524.57         25.5163
525.01        25.52063
525.45        25.52482
525.89        25.50333
526.32        25.44586
526.76        25.36923
527.20        25.27155
527.64        25.15238
528.08        25.01954
528.52        24.87668
528.96        24.75018
529.40         24.6807
529.83        24.67228
530.27        24.71235
530.71        24.76629
531.15        24.77946
531.59        24.73761
532.03        24.65662
532.46        24.55266
532.90        24.47013
533.34        24.41783
533.78        24.36977
534.22         24.3249
534.66        24.31248
535.09        24.31173
535.53        24.26718
535.97        24.18394
536.41        24.13144
536.85        24.11558
537.28        24.09813
537.72        24.08545
538.16        24.10659
538.60         24.1615
539.04         24.2388
539.47        24.32277
539.91        24.40527
540.35        24.47643
540.79        24.54166
541.22        24.59832
541.66        24.65062
542.10        24.70007
542.54        24.74913
542.97        24.80643
543.41        24.89671
543.85        25.02016
544.29        25.17074
544.72        25.33306
545.16        25.50057
545.60        25.66393
546.04        25.82814
546.47        25.99372
546.91        26.16059
547.35        26.32549
547.79         26.4761
548.22        26.61308
548.66        26.75875
549.10        26.93241
549.53        27.06585
549.97         27.1699
550.41        27.24981
550.84        27.33833
551.28        27.47801
551.72         27.6399
552.15        27.81424
552.59        28.02861
553.03        27.87614
553.46        28.20763
553.90        28.29369
554.34        28.37797
554.77        28.49244
555.21        28.65708
555.65        28.69181
556.08        28.86517
556.52        28.95754
556.96         29.0496
557.39         29.1259
557.83        29.14995
558.27        29.27577
558.70        28.99659
559.14        29.01219
559.57        29.15489
560.01        29.28131
560.45        29.36296
560.88        29.45801
561.32        29.57776
561.75        29.66988
562.19        29.74483
562.63        29.81482
563.06        29.87774
563.50        29.92932
563.93         29.9517
564.37        30.00931
564.80        30.11009
565.24        30.14121
565.68        30.05205
566.11        30.44127
566.55        30.21906
566.98        30.27786
567.42        30.34343
567.85        30.47052
568.29        30.66922
568.72        30.93669
569.16        31.27774
569.60        31.50439
570.03        31.71274
570.47        31.92512
570.90        32.18932
571.34        32.07787
571.77        32.37135
572.21        32.49236
572.64        32.64168
573.08         32.6685
573.51        32.61558
573.95        32.76612
574.38        33.15427
574.82        33.15508
575.25        33.06095
575.69        33.04966
576.12         33.1402
576.56        32.91496
576.99        33.15841
577.42        33.26638
577.86        33.20674
578.29        33.70527
578.73        33.47643
579.16        33.36399
579.60        32.99474
580.03        33.02721
580.47        33.04442
580.90        33.09731
581.33        33.14657
581.77        33.24116
582.20        32.94004
582.64        33.04428
583.07        32.68149
583.51        32.42078
583.94        32.18401
584.37        32.03252
584.81        32.00347
585.24         32.0657
585.68          32.168
586.11        31.81861
586.54        31.86835
586.98        31.41093
587.41        31.18189
587.85        31.47295
588.28        31.18213
588.71        31.12167
589.15        31.20763
589.58        30.98153
590.01        31.07654
590.45        31.11731
590.88        31.23087
591.31        31.16748
591.75         31.0091
592.18        30.86445
592.61        30.75669
593.05        31.39411
593.48        31.63698
593.91         31.5177
594.35        31.44407
594.78        31.20856
595.21        31.11782
595.65          31.423
596.08        32.07422
596.51        32.27588
596.94        31.95121
597.38        31.92558
597.81        32.17783
598.24        32.68342
598.68        32.59637
599.11        32.76162
599.54        33.61302
599.97        33.50118
600.41        33.76904
600.84         33.7249
601.27        34.18359
601.70        34.56708
602.14        34.95202
602.57        35.15012
603.00        35.20787
603.43         35.5279
603.87        36.15377
604.30         36.4773
604.73        36.58713
605.16        36.61522
605.60         37.1666
606.03        37.11272
606.46        37.24125
606.89        37.59444
607.32        38.40917
607.76        38.39122
608.19        38.91326
608.62        39.07484
609.05           39.33
609.48        39.48021
609.92        40.10938
610.35        39.97231
610.78        40.05359
611.21        40.35113
611.64        40.53726
612.07        40.92195
612.50        41.07819
612.94        41.30618
613.37        41.51688
613.80        41.47702
614.23        41.30938
614.66        41.48896
615.09        41.99342
615.52         42.3664
615.96        42.53227
616.39         42.7148
616.82        42.91269
617.25        42.92832
617.68        42.83893
618.11        43.01352
618.54        43.42117
618.97        43.64132
619.40        43.64461
619.84        43.85524
620.27        43.84585
620.70        43.94998
621.13        44.06079
621.56        43.73509
621.99        43.44482
622.42        43.71885
622.85        43.85662
623.28         43.9561
623.71        43.71177
624.14        44.32113
624.57        44.12328
625.00        44.24305
625.43        44.17847
625.86        44.09675
626.29        44.04458
626.72        43.70306
627.15        43.79753
627.58        43.73473
628.01        43.68272
628.44        43.55906
628.87        43.35547
629.30        43.09258
629.73         42.8112
630.16        42.59165
630.59        42.44815
631.02         42.3501
631.45        42.26295
631.88        42.13261
632.31        41.93792
632.74        41.69331
633.17        41.40256
633.60        41.07328
634.03         40.7171
634.46        40.33307
634.89        39.94093
635.32        39.58296
635.75        39.27136
636.18        38.95569
636.61        38.64575
637.04        38.37544
637.47        38.13972
637.89        37.92479
638.32        37.68946
638.75        37.40648
639.18        37.07459
639.61        36.70738
640.04        36.35303
640.47        36.08445
640.90        35.91641
641.33          35.831
641.76         35.7831
642.18        35.70035
642.61        35.55433
643.04         35.3738
643.47        35.20235
643.90         35.1096
644.33        35.11148
644.76        35.18359
645.18        35.29025
645.61        35.36496
646.04        35.39619
646.47        35.41155
646.90        35.43872
647.33        35.51235
647.75        35.62931
648.18          35.812
648.61        36.07477
649.04        36.28991
649.47        36.42112
649.89        37.08663
650.32        37.26035
650.75        37.54042
651.18        37.67162
651.61        37.91643
652.03        38.32108
652.46        38.73135
652.89        39.11197
653.32        39.50726
653.74        39.99281
654.17        39.85353
654.60        40.52799
655.03        40.56986
655.46         40.6358
655.88        41.14182
656.31        43.38808
656.74        45.53062
657.16        45.61351
657.59        45.89733
658.02        44.11713
658.45        43.87544
658.87        44.07095
659.30         44.0251
659.73        43.77082
660.15        44.66132
660.58        44.46167
661.01          44.714
661.44        44.78754
661.86        44.72667
662.29        44.57881
662.72        45.17383
663.14        45.56459
663.57        45.72608
664.00        45.48158
664.42        45.57155
664.85        46.02652
665.27        46.43089
665.70        46.68789
666.13        46.88353
666.55        47.00289
666.98        46.97305
667.41         46.8352
667.83          46.967
668.26        46.90673
668.69        47.03227
669.11        47.19484
669.54          47.384
669.96        47.59106
670.39        47.82108
670.82         48.0525
671.24        48.22542
671.67        48.32604
672.09        48.35217
672.52        48.35746
672.94        48.40921
673.37        48.52145
673.80        48.64785
674.22        48.76989
674.65        48.84706
675.07        48.88034
675.50        48.87324
675.92        48.84317
676.35        48.81261
676.77        48.79599
677.20        48.78382
677.62        48.80149
678.05        48.88868
678.47        49.04309
678.90          49.253
679.32        49.46422
679.75        49.59618
680.17         49.6277
680.60        49.59088
681.02        49.53383
681.45         49.5077
681.87        49.58966
682.30        49.70453
682.72        49.85258
683.15        50.00608
683.57        50.14658
684.00        50.21377
684.42         50.2394
684.85        50.33578
685.27        50.50361
685.70        50.68882
686.12        50.83641
686.54        50.90738
686.97        50.88888
687.39        50.78104
687.82        50.62143
688.24        50.59055
688.66        50.56145
689.09         50.6097
689.51        50.71509
689.94        50.79527
690.36        50.85826
690.78        50.84108
691.21        50.79535
691.63        50.94828
692.06        51.23764
692.48         51.2935
692.90        51.12202
693.33        51.05813
693.75        51.11204
694.17        51.05683
694.60        50.95676
695.02        50.99846
695.44        51.17085
695.87        51.49211
696.29        51.84058
696.71        51.69643
697.14        51.19921
697.56        51.16543
697.98        51.58184
698.41         51.7674
698.83        51.70154
699.25        51.82552
699.68        52.07561
700.10        52.17997
700.52        52.09857
700.94        51.91726
701.37        51.73654
701.79        51.72553
702.21        51.91152
702.64         52.2221
703.06        52.55256
703.48        52.72127
703.90        52.68176
704.33        52.49826
704.75        52.24924
705.17        52.05449
705.59        51.96327
706.01        51.93829
706.44        51.98309
706.86        52.12306
707.28        52.33672
707.70         52.5994
708.12        52.85737
708.55         53.0629
708.97        53.17213
709.39        53.08113
709.81        52.86673
710.23        52.78771
710.66        52.88413
711.08        53.05647
711.50        53.20305
711.92        53.21354
712.34        53.06515
712.76        52.80906
713.19        52.53025
713.61        52.39793
714.03        52.44638
714.45         52.6276
714.87        52.88541
715.29        53.13572
715.71        53.34126
716.13        53.51248
716.56        53.63356
716.98        53.75109
717.40        53.84069
717.82        53.89085
718.24        53.87683
718.66         53.7667
719.08         53.5751
719.50        53.33823
719.92        53.12617
720.34        53.03761
720.76        53.09303
721.19        53.24604
721.61        53.47438
722.03        53.69737
722.45        53.87374
722.87        54.01198
723.29        54.08303
723.71        54.04538
724.13         53.9049
724.55        53.68174
724.97        53.43686
725.39        53.28077
725.81        53.24773
726.23         53.2943
726.65        53.39415
727.07        53.61728
727.49        53.74931
727.91        53.95467
728.33         54.1527
728.75        54.31017
729.17        54.41138
729.59        54.45036
730.01        54.45381
730.43         54.4706
730.85         54.5114
731.27          54.564
731.69        54.59567
732.10        54.55473
732.52        54.43943
732.94        54.27519
733.36         54.1242
733.78        54.01762
734.20        53.97262
734.62        54.02751
735.04        54.48092
735.46         54.1165
735.88         54.6115
736.30        54.72051
736.72        54.90759
737.13        55.04466
737.55        55.07982
737.97         55.1648
738.39        55.23391
738.81        54.97206
739.23        54.49534
739.65        54.41852
740.06        54.70473
740.48        54.84412
740.90        54.79734
741.32        54.87994
741.74        55.08054
742.16        55.20608
742.57        55.23834
742.99        55.21799
743.41        55.15765
743.83        55.06485
744.25        54.95303
744.67        54.81012
745.08        54.69854
745.50        54.69965
745.92        54.83124
746.34        55.06731
746.75        55.31041
747.17        55.38898
747.59        55.27237
748.01        55.01044
748.42        54.71377
748.84        54.56158
749.26        54.59797
749.68        54.76694
750.09        54.97932
750.51        55.08823
750.93        55.05718
751.35        54.95853
751.76        54.82737
752.18        54.71005
752.60        54.62424
753.01        54.57006
753.43        54.53642
753.85        54.52787
754.27        54.54906
754.68        54.61623
755.10        54.71239
755.52        54.80406
755.93        54.87029
756.35        54.89528
756.77        54.93297
757.18        55.00757
757.60        55.12035
758.02        55.42066
758.43        55.76978
758.85        55.46516
759.26        55.09098
759.68        54.76088
760.10        54.77677
760.51        54.95602
760.93        55.21318
761.34        55.28745
761.76        55.24366
762.18        55.24359
762.59        55.36578
763.01        55.52029
763.42        55.70588
763.84        55.74795
764.26        55.64233
764.67        55.51241
765.09         55.4068
765.50        55.16142
765.92        54.88445
766.33        54.81871
766.75        54.89242
767.16        54.95111
767.58        54.94398
768.00        54.82415
768.41        54.69754
768.83        55.05498
769.24        55.67452
769.66        55.63391
770.07        55.03423
770.49        54.59705
770.90        54.55106
771.32        55.14186
771.73        56.11085
772.15        56.52001
772.56        56.27498
772.97        55.82726
773.39        55.38026
773.80        55.31699
774.22         55.3295
774.63        55.58133
775.05         55.8136
775.46        55.94618
775.88        55.89837
776.29        55.69807
776.70         55.4441
777.12        55.33027
777.53        55.40857
777.95        55.58538
778.36        55.80107
778.77        55.91045
779.19        55.90097
779.60        55.88511
780.02        55.84793
780.43         55.7838
780.84        55.72625
781.26        55.46285
781.67        55.14538
782.09        55.51035
782.50         56.3405
782.91        56.40606
783.33        55.75599
783.74        55.54656
784.15        55.82188
784.57        55.90409
784.98        55.79535
785.39        55.81065
785.81         55.9566
786.22        56.14449
786.63        56.34495
787.04         56.5143
787.46        56.64255
787.87        56.72186
788.28        56.76343
788.70        56.76948
789.11         56.7297
789.52        56.67044
789.93        56.59178
790.35        56.49259
790.76        56.38937
791.17        56.26664
791.58         56.1684
792.00        56.14035
792.41        56.18863
792.82        56.34235
793.23        56.52315
793.65        56.42987
794.06        56.14864
794.47        56.18764
794.88        56.53114
795.29        56.67951
795.71        56.58052
796.12        56.73207
796.53        57.05761
796.94        56.81139
797.35         56.1502
797.76        56.20459
798.18        56.89778
798.59        57.16536
799.00        56.92639
799.41        56.80382
799.82        56.85328
800.23        56.87031
800.64        56.85929
801.06        56.84392
801.47        56.84398
801.88        56.81518
802.29        56.75039
802.70        56.65919
803.11        56.54254
803.52        56.40617
803.93         56.2726
804.34        56.15168
804.75        56.08933
805.17         56.1853
805.58        56.48001
805.99        56.79679
806.40         57.0892
806.81        57.56317
807.22        58.03937
807.63        57.88979
808.04         57.2332
808.45        56.83764
808.86         56.7934
809.27        56.71433
809.68        56.56423
810.09        56.46938
810.50        56.42793
810.91        56.40921
811.32        56.46195
811.73        56.65523
812.14        56.98238
812.55         57.4138
812.96        57.80466
813.37        57.89252
813.78        57.62059
814.19        57.09282
814.60        56.49515
815.01         56.0789
815.42        55.90534
815.83        55.91215
816.24        56.04692
816.65        56.19913
817.05        56.32193
817.46        56.42636
817.87        56.52795
818.28        56.60849
818.69        56.66795
819.10        56.68565
819.51        56.69228
819.92        56.75928
820.33        56.89396
820.74        57.07056
821.14        57.23186
821.55        57.27834
821.96        57.19332
822.37        57.01995
822.78        56.80749
823.19        56.63866
823.60        56.54859
824.00        56.53099
824.41        56.56047
824.82        56.67589
825.23        56.86019
825.64        57.10042
826.04        57.32949
826.45        57.40641
826.86        57.31507
827.27        57.09855
827.68        56.82437
828.08        56.63719
828.49        56.54156
828.90        56.51377
829.31         56.5607
829.72        56.68995
830.12        56.90361
830.53        57.15726
830.94        57.35949
831.35        57.31297
831.75        56.99821
832.16        56.46015
832.57        55.88613
832.97        55.55748
833.38        55.55008
833.79         55.7756
834.20         56.1306
834.60        56.44264
835.01        56.65609
835.42        56.85135
835.82        57.03617
836.23        57.15994
836.64        57.24097
837.04        57.23855
837.45        57.26401
837.86        57.56388
838.26        58.18765
838.67        59.03994
839.08        59.81812
839.48        59.94994
839.89        59.31254
840.29         58.1147
840.70         56.8972
841.11        56.28342
841.51        56.41769
841.92        57.10979
842.33        58.04245
842.73        58.63943
843.14        58.61794
843.54        58.18594
843.95        57.61067
844.35        57.36623
844.76        57.55372
845.17        58.01581
845.57        58.50851
845.98        58.61713
846.38        58.26606
846.79        57.60861
847.19        56.89214
847.60        56.48283
848.00        56.49024
848.41        56.76669
848.81        57.18929
849.22         57.4871
849.62        57.60214
850.03        57.61381
850.43        57.56034
850.84        57.44241
851.24         57.3205
851.65        57.12058
852.05        57.00724
852.46        57.19022
852.86        57.68181
853.27        58.39064
853.67         59.0223
854.07        59.25947
854.48        59.03032
854.88        58.45229
855.29        57.67834
855.69        57.10727
856.10        56.82822
856.50        56.80651
856.90         56.9119
857.31        56.92911
857.71         56.8372
858.12        56.66616
858.52        56.51327
858.92        56.43386
859.33        56.43261
859.73        56.49805
860.13        56.56805
860.54        56.57486
860.94        56.53136
861.34        56.45206
861.75        56.35205
862.15        56.28893
862.55        56.26207
862.96        56.22223
863.36          56.214
863.76        56.24965
864.17        56.30848
864.57        56.41309
864.97        56.45082
865.38        56.25196
865.78         55.8211
866.18        55.20697
866.58        54.58743
866.99          54.279
867.39         54.3858
867.79        54.80955
868.19         55.3752
868.60        55.79187
869.00        56.00072
869.40        56.05556
869.80        56.03212
870.21        56.07176
870.61        56.26387
871.01        56.50176
871.41        56.67905
871.81         56.6652
872.22        56.43431
872.62         56.0239
873.02        55.57644
873.42        55.31754
873.82        55.31758
874.22        55.53833
874.63        55.78751
875.03        55.77776
875.43         55.4399
875.83         54.8524
876.23        54.29045
876.63        54.18207
877.03        54.60268
877.44        55.39211
877.84        56.20338
878.24        56.48721
878.64        56.06836
879.04        54.98529
879.44        53.73634
879.84        53.21056
880.24        53.54889
880.64        54.42398
881.04        55.38678
881.44        55.73215
881.84        55.27422
882.24        54.26642
882.65        53.12096
883.05        52.46278
883.45         52.4724
883.85        52.96346
884.25        53.68136
884.65        54.20323
885.05        54.37934
885.45        54.32808
885.85        54.21261
886.25        54.27413
886.65         54.5635
887.05        54.98281
887.45        55.34988
887.85        55.38621
888.25        55.03767
888.65        54.41708
889.04        53.74909
889.44          53.396
889.84        53.42721
890.24        53.72998
890.64        54.11988
891.04        54.28959
891.44         54.1591
891.84        53.85201
892.24        53.48167
892.64         53.2055
893.04        53.08786
893.44        53.08545
893.83        53.22276
894.23        53.49915
894.63        53.90816
895.03        54.42219
895.43        54.97761
895.83        55.47198
896.23        55.83924
896.63        56.05404
897.02        56.07531
897.42        55.88535
897.82        55.50669
898.22        55.00787
898.62        54.43527
899.01        53.84095
899.41        53.28662
899.81        52.77021
900.21        52.42616
900.61        52.45898
901.00        52.87248
901.40        53.57767
901.80        54.31376
902.20        54.65707
902.59        54.51851
902.99        54.02249
903.39         53.3771
903.79         52.9402
904.18        52.81869
904.58        52.89229
904.98        53.13088
905.38        53.49411
905.77        53.93858
906.17        54.51558
906.57        55.03478
906.96        55.16722
907.36        54.85099
907.76         54.1734
908.15         53.5018
908.55        53.42026
908.95        54.04697
909.34        55.20498
909.74        56.43536
910.14        57.04083
910.53        56.80953
910.93        55.99661
911.33        54.90854
911.72         54.0126
912.12        53.52472
912.52        53.30696
912.91        53.29184
913.31        53.39002
913.70        53.55511
914.10        53.80336
914.49        54.15795
914.89        54.56419
915.29        54.99735
915.68        55.43453
916.08        55.72922
916.47        55.72172
916.87        55.41354
917.26        54.85329
917.66        54.29142
918.05        53.99288
918.45        54.02085
918.84        54.33914
919.24        54.75362
919.64        55.03167
920.03        55.09702
920.42        54.97948
920.82         54.8252
921.21        54.81268
921.61         54.9687
922.00        55.25885
922.40         55.5095
922.79        55.54766
923.19        55.31139
923.58        54.90328
923.98        54.48825
924.37        54.25261
924.77        54.25375
925.16        54.39794
925.55        54.61867
925.95        54.78534
926.34        54.84925
926.74        54.82271
927.13        54.68179
927.52        54.32719
927.92        53.81645
928.31        53.19575
928.70        52.60355
929.10        52.22503
929.49        52.09198
929.89        52.10574
930.28        52.32775
930.67        52.75669
931.07         53.3223
931.46        54.07879
931.85        54.70426
932.24        54.72146
932.64        54.10599
933.03        52.97918
933.42        51.87993
933.82        51.60701
934.21        52.30739
934.60        53.78011
934.99        55.48043
935.39        56.41284
935.78        56.30586
936.17        55.37609
936.56        54.11806
936.96        53.31194
937.35        53.17927
937.74        53.49197
938.13        53.90681
938.53        53.90805
938.92         53.3869
939.31        52.56761
939.70        51.75014
940.09        51.33197
940.49         51.3756
940.88        51.75702
941.27        52.29538
941.66        52.66653
942.05        52.76333
942.44        52.71695
942.84        52.61794
943.23        52.59045
943.62        52.68842
944.01        52.81629
944.40        53.03709
944.79        53.48223
945.18        54.12006
945.57        54.88999
945.97        55.47607
946.36        55.43316
946.75        54.65516
947.14        53.36512
947.53         51.9272
947.92        50.84977
948.31         50.2779
948.70        50.08746
949.09         50.1997
949.48         50.4636
949.87        50.79025
950.26        51.21511
950.65        51.66578
951.04        52.01009
951.43        52.20757
951.82        52.26102
952.21        52.19839
952.60        52.10355
952.99        52.02596
953.38        51.95761
953.77        51.96065
954.16        52.13419
954.55        52.46983
954.94        52.90646
955.33        53.34439
955.72        53.59664
956.11        53.59285
956.50         53.4052
956.89        52.99043
957.28        52.30033
957.66        51.40448
958.05        50.39866
958.44        49.57358
958.83        49.33642
959.22        49.73024
959.61        50.63612
960.00        51.72903
960.39        52.37619
960.78        52.36361
961.16         51.8666
961.55        51.17456
961.94        50.67353
962.33        50.49164
962.72        50.53035
963.11        50.73632
963.49        51.03767
963.88         51.3145
964.27        51.57563
964.66        51.86683
965.04        52.27808
965.43        52.76871
965.82        53.35442
966.21        53.75123
966.60        53.46239
966.98        52.43008
967.37        50.93103
967.76        49.55701
968.15        49.04932
968.53        49.52785
968.92        50.81722
969.31        52.44807
969.69        53.43685
970.08         53.3697
970.47        52.54877
970.86        51.55562
971.24        51.23123
971.63        51.76646
972.02         52.9186
972.40        54.26691
972.79        54.79424
973.17        54.24565
973.56        52.98315
973.95        51.58109
974.33        50.74574
974.72        50.63059
975.11        51.00973
975.49        51.59148
975.88        51.80848
976.26        51.51096
976.65        50.85365
977.04        50.12434
977.42        49.71722
977.81        49.70104
978.19        49.93567
978.58         50.3294
978.96        50.69097
979.35        50.92676
979.74        51.09885
980.12        51.27904
980.51        51.38761
980.89        51.52822
981.28         51.6727
981.66        51.83548
982.05        52.01026
982.43        52.22564
982.82        52.45797
983.20        52.88288
983.59        53.74125
983.97        55.07822
984.35         56.7413
984.74        58.20246
985.12        58.82382
985.51        58.38704
985.89        57.15562
986.28        55.62917
986.66        54.47103
987.04        53.94214
987.43        53.84346
987.81        54.08185
988.20        54.39288
988.58        54.63775
988.96        54.81475
989.35        54.86353
989.73        54.68685
990.12        54.27124
990.50        53.70445
990.88        52.89457
991.27        51.78319
991.65        50.49363
992.03        49.11132
992.42         48.1625
992.80        48.35328
993.18        49.77246
993.56        52.28179
993.95        55.04993
994.33        56.55746
994.71        56.20543
995.10        54.49254
995.48        52.39088
995.86          51.452
996.24        52.04689
996.63        53.64512
997.01        55.77474
997.39        57.14178
997.77        57.18954
998.15        56.44592
998.54        55.17956
998.92         53.6373
999.30        52.10853
999.68        50.53176
1000.06        49.39913
1000.45        49.41445
1000.83        50.74525
1001.21        53.29894
1001.59        56.46462
1001.97        58.61049
1002.35        59.04899
1002.73        58.22706
1003.12         56.9209
1003.50        56.08884
1003.88         56.0869
1004.26        56.47547
1004.64        57.29664
1005.02        58.57496
1005.40        60.11967
1005.78        62.06448
1006.16        63.49302
1006.54        62.94498
1006.92        60.38562
1007.30        56.34329
1007.69         52.4626
1008.07        50.94984
1008.45        52.40878
1008.83         56.3779
1009.21        61.48409
1009.59        64.31995
1009.97        63.34646
1010.35        59.62981
1010.73        54.82519
1011.11         51.2772
1011.49        49.65062
1011.86        49.22367
1012.24        49.55116
1012.62        50.11926
1013.00        50.73833
1013.38        51.66447
1013.76        52.90512
1014.14          54.186
1014.52        55.25665
1014.90        55.94645
1015.28        56.16967
1015.66        56.01329
1016.04        55.54888
1016.41        54.75962
1016.79        53.83487
1017.17        53.18651
1017.55        52.93325
1017.93        52.99808
1018.31        53.14212
1018.69        52.94407
1019.06        52.31093
1019.44         51.4007
1019.82        50.33003
1020.20        49.48744
1020.58        49.08794
1020.95        48.88155
1021.33        49.04276
1021.71        49.74372
1022.09         50.9842
1022.46        52.95159
1022.84        54.90163
1023.22        54.98711
1023.60         52.7135
1023.97        48.67951
1024.35        45.00634
1024.73         43.9757
