SpectraSmart Spectrum 2.9.0.0
--------- Device Information -----------
Spectrum Name :  反射率_0
Saving Time :  2024/04/26 23:35:02
Spectro-Module Model Name : SE2030-DUVN
Spectro-Module Serial Number : OS361AC55029948
Wavelength Start : 200
Wavelength End : 1025
Wavelength Unit : Wavelength(nm)
Spectrum Unit : Reflectance(%)
-----------Spectrum Setting ------------
Integration Time : 20ms
Average : 10
Boxcar : 0
Background removal :  enabled
linearity correction :  enabled
SC :  disabled
Intensity correction :  disabled
DWT denoise :  enabled
savitzky-golay :  disabled
FFT :  disabled
Running average :  disabled
Kalman :  disabled
High pass :  disabled
---------------BEGIN--------------------
Wavelength(nm)             Reflectance(%)
200.29               0
200.75        18.13685
201.21         20.0657
201.67        22.87177
202.13        24.61946
202.58        25.01022
203.04        25.17631
203.50        25.45243
203.96         26.2546
204.42        27.84585
204.88        29.45647
205.34        31.28399
205.80        34.12392
206.26        37.40475
206.72        40.23031
207.18        41.66816
207.64        40.84657
208.10        37.78079
208.55        32.69244
209.01        25.16115
209.47        19.47197
209.93        19.43199
210.39        22.55675
210.85        26.75638
211.31        32.03603
211.77        40.31433
212.23        57.48471
212.69        97.80122
213.14        158.9773
213.60         144.898
214.06        91.87634
214.52        59.45624
214.98        46.94908
215.44        43.79142
215.90        44.55303
216.36        46.90159
216.81        47.72282
217.27        46.25331
217.73        43.82342
218.19        40.58723
218.65        38.24208
219.11        38.62841
219.57        39.92921
220.02        42.42602
220.48        48.03632
220.94        57.69626
221.40        73.56833
221.86        95.32526
222.32        108.8733
222.77        102.4022
223.23        85.69525
223.69        69.65533
224.15        60.41344
224.61         56.7041
225.06        55.39974
225.52        55.71858
225.98        56.75053
226.44        58.12889
226.90        60.25277
227.36        62.14998
227.81        62.03303
228.27        59.94063
228.73         56.4481
229.19        53.32639
229.65        52.64663
230.10        54.41066
230.56        57.94567
231.02        61.50852
231.48        62.33137
231.93        60.02788
232.39        56.09517
232.85        52.31207
233.31         50.9708
233.77        52.28599
234.22        55.41071
234.68        59.10272
235.14        61.53747
235.60        62.11578
236.05         61.3502
236.51        59.78077
236.97        58.63988
237.43        58.51916
237.88        59.17644
238.34        60.10945
238.80        60.77737
239.26        61.00884
239.71        61.22319
240.17        61.76266
240.63        64.04353
241.08        68.92593
241.54        75.90937
242.00        83.88206
242.46        91.10822
242.91        97.57396
243.37        102.4337
243.83        106.2115
244.28        110.2181
244.74        112.6689
245.20        112.1447
245.66        107.4411
246.11        96.73643
246.57        81.21774
247.03        61.92886
247.48        43.47087
247.94        35.53955
248.40        38.65389
248.85        46.40406
249.31        53.70434
249.77        57.03292
250.22        56.43102
250.68        52.67882
251.14        47.35408
251.59        45.77579
252.05        50.56606
252.51        59.02312
252.96        65.81638
253.42        66.76131
253.88        62.92345
254.33        56.75149
254.79         52.5337
255.25        53.70673
255.70        59.81263
256.16        69.08775
256.62        77.69182
257.07         79.7309
257.53        76.26128
257.99        70.79472
258.44        65.98438
258.90        64.27184
259.35        64.66249
259.81        66.31824
260.27        67.94789
260.72         68.0906
261.18        66.95988
261.63        64.97559
262.09        63.23899
262.55        62.33705
263.00        62.13311
263.46        62.45778
263.91        62.57339
264.37        61.92189
264.83         60.4706
265.28        58.51232
265.74        56.78445
266.19        55.85838
266.65        55.84976
267.11        56.39534
267.56        57.03165
268.02        57.03459
268.47        56.22921
268.93        54.92536
269.38        53.39313
269.84        52.11226
270.30        51.19964
270.75        50.45999
271.21        49.90734
271.66         49.5007
272.12         49.1921
272.57        48.99213
273.03        48.67782
273.48        47.86158
273.94        46.57944
274.39        44.93413
274.85        43.36968
275.31        42.34764
275.76        41.89665
276.22        41.88279
276.67        41.95494
277.13        41.72093
277.58        41.04077
278.04        40.09968
278.49        39.04108
278.95        38.21355
279.40        37.62461
279.86        37.22237
280.31        36.81723
280.77        36.27515
281.22        35.53078
281.68        34.74329
282.13        33.96861
282.59         33.3726
283.04        32.93972
283.50        32.62666
283.95        32.38723
284.41        32.18056
284.86        31.97722
285.32        31.81968
285.77        31.64988
286.22        31.44942
286.68        31.21779
287.13        30.91851
287.59        30.62358
288.04        30.39841
288.50        30.27695
288.95        30.20677
289.41        30.12848
289.86        29.87951
290.32        29.48409
290.77        28.98902
291.22         28.5279
291.68        28.27899
292.13        28.26972
292.59        28.46187
293.04        28.77262
293.50        29.09255
293.95        29.37381
294.40        29.65128
294.86        29.95749
295.31        30.33329
295.77        30.79356
296.22        31.30159
296.68        31.83514
297.13        32.35019
297.58        32.84441
298.04        33.33817
298.49        33.84744
298.95        34.41229
299.40        35.02959
299.85        35.68331
300.31        36.35308
300.76         36.9976
301.21        37.60168
301.67         38.1768
302.12        38.69785
302.58        39.19493
303.03        39.63924
303.48        40.04377
303.94         40.4083
304.39        40.69181
304.84        40.91404
305.30        41.10846
305.75        41.28042
306.20        41.49736
306.66        41.77851
307.11        42.07956
307.57        42.39032
308.02        42.63744
308.47        42.81291
308.93        42.93917
309.38        43.00404
309.83        43.04757
310.29        43.08043
310.74        43.08739
311.19        43.05682
311.65        42.96587
312.10        42.80941
312.55        42.60047
313.00        42.38224
313.46        42.21325
313.91        42.08815
314.36        42.00028
314.82        41.89622
315.27        41.70351
315.72        41.40521
316.18        41.03833
316.63        40.65038
317.08        40.33217
317.53        40.10303
317.99        39.92989
318.44        39.77491
318.89        39.56429
319.35        39.27702
319.80        38.93433
320.25        38.56843
320.70        38.22965
321.16        37.93041
321.61         37.6711
322.06        37.41603
322.51         37.1132
322.97        36.74881
323.42        36.34194
323.87        35.95568
324.32        35.69602
324.78        35.56554
325.23        35.55098
325.68        35.52412
326.13        35.28132
326.59        34.78257
327.04        34.10996
327.49        33.41254
327.94        32.92451
328.39        32.69681
328.85        32.64436
329.30        32.68547
329.75         32.6073
330.20        32.34366
330.66          31.956
331.11        31.52713
331.56        31.15917
332.01        30.88655
332.46         30.6639
332.92        30.45659
333.37         30.2651
333.82        30.06366
334.27        29.87209
334.72        29.68173
335.17        29.46684
335.63        29.22559
336.08        28.98325
336.53         28.7624
336.98        28.61466
337.43        28.54908
337.88        28.53656
338.34         28.5606
338.79        28.62249
339.24        28.69262
339.69        28.77115
340.14         28.7905
340.59        28.64723
341.05        28.34337
341.50        27.91446
341.95        27.48177
342.40        27.23037
342.85        27.20088
343.30         27.3392
343.75        27.54494
344.20        27.65016
344.66        27.60651
345.11        27.45897
345.56         27.2653
346.01        27.11954
346.46        27.05103
346.91         27.0266
347.36         27.0128
347.81        26.96485
348.26        26.87084
348.72        26.75155
349.17        26.63085
349.62        26.55382
350.07        26.52963
350.52        26.54533
350.97        26.55889
351.42        26.50594
351.87        26.37526
352.32        26.18721
352.77        25.99744
353.22        25.88656
353.67        25.86569
354.13        25.90728
354.58        25.94841
355.03        25.88904
355.48        25.70812
355.93        25.44421
356.38         25.1592
356.83        24.94393
357.28        24.81568
357.73         24.7365
358.18        24.67064
358.63        24.56314
359.08        24.39647
359.53        24.19631
359.98        23.96202
360.43        23.68559
360.88        23.37563
361.33        23.03789
361.78        22.71538
362.23        22.48017
362.68         22.3497
363.13        22.30642
363.58        22.30313
364.03        22.26219
364.48        22.15861
364.93        22.00561
365.38        21.83615
365.83        21.70752
366.28        21.63369
366.73        21.59668
367.18        21.55183
367.63        21.43285
368.08        21.22821
368.53        20.95952
368.98        20.68884
369.43        20.51156
369.88          20.448
370.33        20.47258
370.78        20.51094
371.23        20.43959
371.68        20.23054
372.13         19.9227
372.58        19.60313
373.03        19.40956
373.48        19.37258
373.93        19.44513
374.38        19.54438
374.83        19.54009
375.28        19.39746
375.72        19.15344
376.17        18.88205
376.62        18.66886
377.07         18.5377
377.52        18.46099
377.97        18.40141
378.42        18.30289
378.87        18.15593
379.32        17.98725
379.77        17.83335
380.22        17.74226
380.67        17.71921
381.11        17.74492
381.56        17.77811
382.01         17.7701
382.46        17.70644
382.91        17.60949
383.36        17.49298
383.81        17.37287
384.26        17.25673
384.71        17.13858
385.15        17.03607
385.60        16.98499
386.05        16.98734
386.50        17.02931
386.95         17.0772
387.40        17.07773
387.85        17.02036
388.29        16.91524
388.74        16.80163
389.19        16.69454
389.64        16.60103
390.09        16.51056
390.54        16.43166
390.98        16.37587
391.43        16.35289
391.88         16.3574
392.33        16.36478
392.78        16.33731
393.23        16.27099
393.67        16.17076
394.12        16.07844
394.57        16.02476
395.02        16.01399
395.47        16.02558
395.91        16.04382
396.36        16.03244
396.81        15.99144
397.26        15.93977
397.71        15.87294
398.15        15.79218
398.60        15.72412
399.05        15.60515
399.50        15.48349
399.95        15.54379
400.39        15.74102
400.84        15.77875
401.29        15.64706
401.74        15.57727
402.18        15.57487
402.63        15.48813
403.08        15.34546
403.53        15.26303
403.97        15.25356
404.42        15.28651
404.87        15.32781
405.32        15.32022
405.76        15.24946
406.21        15.14491
406.66          15.041
407.11        14.99179
407.55        15.01377
408.00        15.08051
408.45        15.16409
408.90        15.20821
409.34        15.19249
409.79        15.13607
410.24        15.06243
410.68        14.99887
411.13        14.95966
411.58        14.93769
412.03        14.92167
412.47        14.89639
412.92        14.85518
413.37        14.80858
413.81        14.77717
414.26        14.80241
414.71        14.88229
415.15        15.00736
415.60        15.13161
416.05        15.18626
416.49        15.15402
416.94        15.05539
417.39        14.93561
417.83        14.86526
418.28        14.86139
418.73        14.89859
419.17        14.95638
419.62        15.00076
420.07        15.01837
420.51        15.02025
420.96        15.00081
421.41        14.94665
421.85         14.8572
422.30        14.73316
422.74        14.60078
423.19        14.56632
423.64        14.61481
424.08        14.64543
424.53        14.63476
424.98         14.6561
425.42        14.71113
425.87        14.71006
426.31        14.66955
426.76        14.72517
427.21        14.83908
427.65        14.79383
428.10        14.63042
428.54        14.56878
428.99        14.62605
429.44        14.73478
429.88         14.8363
430.33        14.78125
430.77        14.60972
431.22        14.60642
431.66        14.75797
432.11        14.78739
432.56         14.6933
433.00        14.68087
433.45        14.70247
433.89        14.57472
434.34         14.4098
434.78        14.12646
435.23        14.50647
435.67        14.59511
436.12         14.5849
436.57        14.52086
437.01        14.43368
437.46        14.38245
437.90        14.37189
438.35        14.34601
438.79        14.29762
439.24        14.26463
439.68         14.2484
440.13        14.23961
440.57        14.24078
441.02        14.26955
441.46        14.32211
441.91        14.35159
442.35        14.34999
442.80        14.45139
443.24        14.59218
443.69        14.52884
444.13        14.30686
444.58        14.22745
445.02        14.30704
445.47        14.39111
445.91        14.44609
446.36        14.48962
446.80        14.50811
447.24        14.50193
447.69        14.48401
448.13        14.46788
448.58        14.46147
449.02        14.45462
449.47        14.45237
449.91         14.4557
450.36        14.46716
450.80        14.48735
451.25        14.50345
451.69         14.4854
452.13        14.43203
452.58        14.34825
453.02        14.26516
453.47        14.23585
453.91        14.26852
454.36        14.34792
454.80         14.4251
455.24        14.42037
455.69        14.32402
456.13        14.15576
456.58        13.98327
457.02         13.8835
457.46        13.88052
457.91        13.94778
458.35         14.0308
458.79        14.04679
459.24        13.98982
459.68        13.87951
460.13        13.77725
460.57        13.73689
461.01        13.78132
461.46        13.87609
461.90        13.99376
462.34        14.07752
462.79        14.10343
463.23        14.09364
463.68        14.05153
464.12        13.99282
464.56        13.92542
465.01         13.8619
465.45        13.79454
465.89        13.75256
466.34        13.73668
466.78        13.73685
467.22        13.74794
467.67        13.74563
468.11        13.73211
468.55        13.71124
468.99        13.68409
469.44        13.65054
469.88        13.61506
470.32        13.57635
470.77         13.5539
471.21        13.58124
471.65        13.65923
472.10        13.77778
472.54        13.89673
472.98        13.95921
473.42        13.95193
473.87        13.89431
474.31        13.81328
474.75        13.76573
475.20        13.76809
475.64         13.7989
476.08        13.83605
476.52        13.83709
476.97        13.79468
477.41         13.7335
477.85        13.68179
478.29        13.66293
478.74        13.69779
479.18        13.80606
479.62        13.95341
480.06        14.06423
480.50        14.12369
480.95        14.14176
481.39         14.1244
481.83        14.21653
482.27        14.21938
482.72         14.3037
483.16         14.3952
483.60        14.44729
484.04        14.44066
484.48        14.46462
484.93        14.60908
485.37        14.56911
485.81        14.76383
486.25        15.17748
486.69        14.99319
487.14        14.85084
487.58        15.57932
488.02        15.35744
488.46        15.41128
488.90         15.4941
489.34        15.33408
489.79         15.4612
490.23        15.63275
490.67        15.78844
491.11         15.8661
491.55         15.8089
491.99        15.68686
492.43        15.70888
492.88        15.90201
493.32        16.13983
493.76        16.37053
494.20         16.5806
494.64        16.75514
495.08        16.86022
495.52        16.91788
495.96        17.07956
496.41         17.3197
496.85        17.36285
497.29        17.24268
497.73        17.41886
498.17        17.63709
498.61        17.78754
499.05         17.7846
499.49        17.82211
499.93        17.87264
500.37        18.02289
500.82         18.2309
501.26         18.3792
501.70        18.45221
502.14        18.52293
502.58        18.61362
503.02        18.72199
503.46        18.85102
503.90        18.99809
504.34        19.13525
504.78        19.21641
505.22        19.23318
505.66        19.20357
506.10        19.15852
506.54        19.14683
506.98        19.18455
507.42        19.25948
507.86        19.36166
508.30         19.4729
508.74        19.58329
509.18        19.69608
509.62        19.80499
510.06         19.9005
510.50        19.97873
510.94        20.03662
511.38        20.07806
511.82        20.11215
512.26        20.14317
512.70        20.17334
513.14        20.19913
513.58         20.2137
514.02        20.21782
514.46        20.21377
514.90        20.21713
515.34        20.25198
515.78        20.31925
516.22        20.40839
516.66        20.49084
517.10        20.52129
517.54        20.49089
517.98        20.41611
518.42        20.32318
518.86        20.25488
519.30        20.22464
519.74        20.21925
520.18        20.23072
520.62        20.24531
521.06        20.25631
521.50        20.26988
521.93        20.27811
522.37        20.25964
522.81         20.2147
523.25        20.14519
523.69        20.07007
524.13        20.02084
524.57        20.00187
525.01        20.00269
525.45        20.00088
525.89        19.95939
526.32        19.86981
526.76        19.75319
527.20        19.62803
527.64        19.52453
528.08        19.45157
528.52        19.39714
528.96        19.36005
529.40        19.33815
529.83        19.32593
530.27        19.32655
530.71        19.31818
531.15        19.26773
531.59        19.17125
532.03        19.03627
532.46        18.89516
532.90        18.81372
533.34        18.80038
533.78        18.82665
534.22        18.85345
534.66        18.84233
535.09        18.76884
535.53        18.61279
535.97        18.42218
536.41        18.31907
536.85        18.32362
537.28        18.38222
537.72        18.47095
538.16        18.56484
538.60        18.64646
539.04        18.72178
539.47        18.78224
539.91        18.82662
540.35        18.85368
540.79        18.86531
541.22        18.87291
541.66        18.90382
542.10        18.96315
542.54        19.04654
542.97        19.14696
543.41        19.25872
543.85        19.37603
544.29        19.50349
544.72        19.63333
545.16        19.76797
545.60        19.90335
546.04        20.03844
546.47        20.18341
546.91        20.35155
547.35         20.5395
547.79        20.74199
548.22        20.93589
548.66        21.08186
549.10        21.20148
549.53        21.29994
549.97        21.40271
550.41        21.50169
550.84        21.62794
551.28        21.82745
551.72        22.06806
552.15        22.31504
552.59        22.58231
553.03        22.54742
553.46        22.88422
553.90        22.99788
554.34        23.09006
554.77        23.16183
555.21        23.24538
555.65        23.37309
556.08        23.54049
556.52        23.72475
556.96        23.89184
557.39        24.05445
557.83         24.1851
558.27        24.15882
558.70        24.02898
559.14        24.02616
559.57        24.15424
560.01        24.27672
560.45        24.36897
560.88        24.46992
561.32        24.58399
561.75        24.67732
562.19        24.75934
562.63        24.83903
563.06        24.91454
563.50        24.98509
563.93        25.03795
564.37        25.11899
564.80        25.24117
565.24        25.33528
565.68        25.34163
566.11        25.72204
566.55        25.55337
566.98        25.59858
567.42        25.64993
567.85        25.80804
568.29        26.07097
568.72        26.37769
569.16        26.73837
569.60        26.95614
570.03        27.09419
570.47        27.32588
570.90        27.73981
571.34        27.23031
571.77        27.82602
572.21        27.92096
572.64        28.04761
573.08         28.1772
573.51        28.19165
573.95        28.32072
574.38        28.48838
574.82        28.94026
575.25        28.66693
575.69        28.69743
576.12        28.76003
576.56        28.75725
576.99        28.97614
577.42         28.8788
577.86        28.95676
578.29        29.26789
578.73        28.96709
579.16        28.83542
579.60        28.56919
580.03        28.56427
580.47        28.44098
580.90        28.71211
581.33        28.54296
581.77        28.91262
582.20        28.29813
582.64        28.47824
583.07        28.02723
583.51        27.85509
583.94        27.75457
584.37        27.68307
584.81        27.61486
585.24        27.51369
585.68        27.42502
586.11        27.00955
586.54        26.97538
586.98        26.74305
587.41        26.51269
587.85        26.67115
588.28        26.52974
588.71        26.51531
589.15        26.47006
589.58        26.52037
590.01        26.47206
590.45        26.46414
590.88        26.41921
591.31        26.31398
591.75        26.24115
592.18        26.15871
592.61        26.02951
593.05        26.89594
593.48        26.80484
593.91        26.85762
594.35        26.71335
594.78        26.66865
595.21        26.80875
595.65         27.0605
596.08        27.44349
596.51        27.62456
596.94          27.526
597.38         27.6545
597.81        27.99877
598.24        28.29343
598.68        28.47344
599.11        28.80512
599.54        29.46535
599.97         29.4762
600.41        30.01262
600.84        30.10983
601.27        30.53443
601.70        30.87781
602.14        31.24839
602.57        31.55688
603.00        31.88294
603.43        32.21282
603.87        33.25684
604.30        33.73105
604.73        33.92217
605.16        34.18757
605.60         34.5936
606.03        34.91904
606.46        35.16636
606.89        35.58322
607.32        36.62483
607.76         36.7583
608.19        37.36659
608.62        37.64066
609.05        38.08651
609.48        38.34793
609.92        38.89193
610.35         39.5516
610.78        39.47804
611.21        39.59205
611.64          40.132
612.07        40.55728
612.50        40.78279
612.94        41.07721
613.37        41.37424
613.80        41.66135
614.23        41.59036
614.66        41.92896
615.09        42.52363
615.52         42.9073
615.96        43.04308
616.39        43.32608
616.82         43.7908
617.25         43.8281
617.68        44.14412
618.11        44.38546
618.54        44.65281
618.97         44.9178
619.40        45.17481
619.84        45.20224
620.27        45.35995
620.70        45.57436
621.13        45.89065
621.56        45.74131
621.99        45.23653
622.42        45.33519
622.85        46.02374
623.28        45.79625
623.71        45.93749
624.14         45.9238
624.57        46.00558
625.00        46.01748
625.43        45.93252
625.86        45.84474
626.29        45.76736
626.72        45.44152
627.15        45.53167
627.58        45.16792
628.01        45.10697
628.44        44.83858
628.87        44.54127
629.30        44.18935
629.73        43.84627
630.16        43.52581
630.59         43.2374
631.02        42.97243
631.45        42.71568
631.88        42.42348
632.31        42.07603
632.74        41.76509
633.17        41.32172
633.60        40.84995
634.03        40.30796
634.46        39.71154
634.89        39.08918
635.32        38.49827
635.75        37.96278
636.18        37.43341
636.61        36.92953
637.04        36.49591
637.47        36.12865
637.89        35.81124
638.32        35.49719
638.75        35.14742
639.18        34.75471
639.61        34.33264
640.04          33.924
640.47        33.59395
640.90        33.35645
641.33        33.19608
641.76        33.07429
642.18        32.93128
642.61        32.74459
643.04        32.53904
643.47        32.36065
643.90        32.28165
644.33        32.31586
644.76        32.43772
645.18          32.597
645.61        32.70604
646.04        32.74758
646.47        32.75215
646.90        32.77031
647.33        32.87444
647.75        33.07845
648.18        33.40139
648.61        33.82555
649.04        34.20296
649.47         34.4938
649.89        35.22289
650.32        35.47881
650.75        36.08883
651.18        36.74386
651.61        37.30876
652.03        37.81648
652.46        38.42664
652.89        39.12376
653.32        39.71788
653.74        40.35485
654.17        40.55626
654.60        41.56453
655.03        41.97375
655.46        42.48163
655.88        42.77636
656.31        45.43673
656.74        48.23315
657.16        48.40615
657.59        48.66719
658.02         46.7855
658.45        47.21016
658.87        46.76685
659.30        47.52044
659.73        47.96102
660.15         49.1168
660.58        48.93878
661.01        49.17774
661.44        49.43992
661.86        49.63932
662.29        49.76631
662.72        50.45672
663.14        50.68591
663.57        50.82253
664.00        50.72491
664.42        50.99722
664.85        51.68053
665.27        52.46307
665.70        53.13841
666.13        53.55354
666.55        53.65246
666.98        53.42885
667.41        53.04554
667.83        53.11268
668.26        53.15328
668.69        53.53609
669.11        54.00399
669.54         54.3961
669.96        54.66103
670.39         54.8708
670.82        55.05723
671.24        55.20634
671.67        55.35238
672.09         55.5235
672.52        55.72237
672.94        55.92924
673.37        56.10358
673.80        56.11206
674.22        56.00731
674.65        55.99201
675.07        56.10695
675.50        56.22406
675.92        56.33369
676.35         56.4649
676.77        56.61142
677.20        56.75871
677.62        56.91188
678.05        57.07749
678.47        57.25074
678.90        57.43383
679.32        57.59809
679.75        57.70958
680.17        57.75824
680.60        57.76132
681.02        57.76749
681.45        57.82487
681.87        57.96569
682.30        58.22612
682.72        58.53924
683.15         58.6689
683.57        58.62084
684.00        58.56436
684.42        58.58308
684.85        58.68328
685.27        58.87318
685.70        59.22586
686.12        59.61251
686.54        59.72034
686.97         59.5559
687.39        59.40889
687.82        59.34295
688.24        59.29601
688.66        59.28867
689.09        59.36905
689.51        59.51254
689.94         59.6276
690.36        59.69893
690.78        59.72502
691.21        59.75237
691.63        59.85572
692.06        60.04849
692.48        60.31105
692.90        60.55292
693.33        60.63919
693.75        60.54328
694.17        60.28508
694.60        60.03014
695.02        59.99812
695.44        60.20297
695.87        60.68701
696.29        61.29138
696.71        61.06232
697.14        60.88569
697.56        60.66211
697.98        60.68344
698.41        60.94989
698.83        60.77211
699.25        61.00438
699.68        61.31746
700.10        61.44776
700.52        61.32999
700.94        61.07503
701.37        60.82383
701.79        60.78576
702.21        61.00178
702.64        61.37846
703.06        61.80099
703.48        62.06905
703.90        62.12336
704.33        62.03395
704.75        61.85895
705.17         61.6776
705.59         61.5363
706.01        61.42089
706.44        61.37776
706.86        61.44625
707.28         61.7067
707.70        62.05471
708.12        62.43118
708.55        62.69455
708.97        62.80583
709.39        62.76923
709.81        62.63763
710.23         62.5518
710.66        62.54758
711.08        62.58898
711.50         62.6433
711.92        62.66093
712.34        62.62939
712.76        62.62833
713.19        62.67449
713.61        62.54984
714.03        62.68394
714.45         62.7221
714.87        62.80746
715.29        62.95623
715.71         63.1637
716.13        63.39985
716.56        63.60478
716.98        63.77615
717.40        63.86316
717.82        63.88006
718.24        63.81549
718.66        63.65315
719.08        63.42008
719.50        63.14904
719.92        62.92061
720.34        62.85303
720.76         62.9673
721.19        63.20552
721.61        63.53963
722.03        63.86825
722.45        64.13875
722.87        64.36325
723.29        64.49346
723.71         64.4595
724.13        64.26615
724.55        63.94484
724.97        63.60976
725.39        63.41955
725.81        63.41554
726.23        63.60417
726.65         63.9263
727.07        64.04011
727.49        64.27644
727.91        64.36892
728.33        64.44732
728.75        64.53439
729.17        64.64045
729.59        64.73226
730.01        64.80255
730.43        64.86288
730.85        64.90942
731.27        64.94207
731.69        64.94254
732.10        64.89455
732.52        64.82262
732.94        64.66869
733.36        64.46025
733.78        64.40582
734.20        64.57342
734.62        64.07642
735.04        64.86514
735.46        64.38239
735.88        64.89895
736.30        64.95994
736.72        65.10056
737.13        65.39096
737.55        65.67442
737.97        65.77872
738.39        65.65102
738.81        65.20234
739.23        64.64417
739.65        64.72717
740.06        65.32125
740.48        65.59134
740.90        65.46928
741.32        65.46358
741.74        65.62161
742.16        65.75041
742.57        65.84908
742.99        65.95045
743.41        66.01385
743.83        65.95881
744.25        65.78305
744.67        65.50871
745.08        65.23959
745.50        65.12127
745.92        65.19513
746.34        65.41166
746.75        65.67776
747.17        65.81297
747.59        65.77833
748.01        65.67175
748.42        65.55176
748.84        65.42615
749.26        65.37861
749.68        65.54312
750.09        65.84419
750.51        66.09513
750.93        66.18308
751.35        65.99024
751.76        65.60719
752.18        65.34926
752.60        65.24754
753.01        65.28667
753.43        65.15871
753.85        65.12267
754.27        65.10549
754.68        65.13354
755.10        65.20929
755.52        65.33755
755.93        65.49416
756.35        65.61767
756.77        65.75774
757.18        65.96633
757.60        66.24686
758.02        66.74525
758.43        67.15291
758.85        67.01976
759.26         65.8392
759.68        65.33801
760.10        65.54377
760.51        66.11414
760.93        66.74661
761.34        66.54816
761.76        66.51831
762.18        66.26643
762.59        66.26574
763.01        66.55576
763.42        67.10085
763.84        67.34595
764.26        67.22829
764.67         67.1364
765.09        67.13046
765.50        66.84164
765.92        66.41684
766.33        66.36341
766.75        66.55527
767.16        66.43318
767.58        66.02032
768.00        65.84192
768.41        66.01278
768.83         66.5504
769.24        67.18307
769.66        67.26219
770.07        66.82408
770.49        66.28783
770.90        65.93636
771.32        66.36942
771.73        67.35159
772.15        67.68317
772.56        67.28026
772.97        66.78098
773.39        66.42725
773.80        66.40325
774.22        66.71426
774.63         67.1532
775.05        67.51479
775.46        67.74202
775.88        67.73813
776.29         67.4748
776.70        67.10126
777.12        66.95423
777.53        67.10847
777.95        67.40817
778.36        67.74319
778.77        67.89101
779.19        67.82001
779.60        67.66309
780.02        67.43856
780.43        67.26134
780.84        67.23739
781.26        66.93912
781.67         66.5615
782.09         67.4437
782.50        69.18703
782.91        68.93847
783.33        67.99632
783.74        67.50483
784.15        67.91087
784.57        67.98328
784.98        67.73186
785.39        67.61356
785.81        67.67438
786.22        68.04817
786.63         68.5971
787.04        68.78276
787.46        68.61835
787.87        68.54282
788.28        68.61732
788.70        68.61057
789.11        68.51888
789.52        68.56004
789.93        68.67946
790.35        68.58818
790.76        68.31075
791.17         68.1787
791.58        68.25488
792.00        68.17014
792.41        67.90026
792.82         68.3985
793.23         68.5406
793.65        68.26659
794.06         67.5706
794.47        67.79018
794.88        68.67546
795.29        69.45606
795.71        68.78564
796.12        68.59868
796.53        68.61026
796.94        68.40327
797.35        68.08943
797.76        68.23238
798.18        68.74055
798.59        69.01996
799.00        68.98663
799.41        68.94746
799.82        68.94507
800.23        68.92206
800.64        68.89316
801.06        68.83547
801.47        68.77868
801.88        68.69685
802.29        68.58098
802.70        68.42217
803.11        68.25697
803.52        68.14388
803.93        68.12857
804.34        68.22903
804.75         68.3623
805.17        68.53068
805.58        68.78041
805.99        68.60275
806.40         68.2191
806.81        69.19015
807.22        70.99835
807.63        70.83849
808.04        68.97913
808.45        68.24757
808.86        68.83307
809.27        69.16817
809.68        69.04813
810.09        68.90761
810.50        68.71836
810.91        68.36803
811.32        68.06641
811.73        68.14126
812.14        68.64243
812.55        69.49832
812.96        70.41321
813.37        70.78812
813.78        70.47659
814.19        69.74191
814.60        68.87698
815.01        68.23502
815.42        67.92176
815.83        67.84932
816.24        67.96372
816.65        68.14523
817.05        68.33595
817.46        68.55582
817.87        68.77953
818.28        68.90789
818.69        68.92976
819.10        68.83895
819.51        68.71686
819.92         68.7583
820.33        69.00662
820.74        69.32813
821.14        69.62776
821.55        69.92104
821.96        70.08439
822.37        69.77112
822.78         69.1311
823.19        68.78831
823.60        68.84185
824.00        69.01714
824.41        69.16427
824.82        69.25722
825.23        69.24107
825.64        69.13159
826.04        68.99951
826.45        68.91252
826.86         68.9093
827.27        68.98132
827.68        69.05933
828.08         69.0544
828.49        68.90057
828.90        68.64611
829.31        68.43591
829.72         68.5049
830.12        68.91703
830.53        69.54202
830.94         70.1608
831.35        70.35185
831.75        70.02711
832.16        69.29935
832.57        68.45293
832.97        67.91876
833.38        67.82088
833.79        68.01556
834.20        68.36959
834.60         68.6683
835.01        68.83527
835.42        68.97961
835.82        69.09489
836.23         69.0805
836.64        68.96815
837.04        68.74403
837.45         68.5752
837.86        68.81007
838.26        69.52063
838.67         70.5568
839.08        71.59383
839.48        72.00053
839.89        71.60275
840.29        70.62202
840.70        69.53039
841.11        68.83636
841.51        68.68978
841.92        68.91763
842.33        69.38535
842.73        69.85909
843.14        70.13531
843.54        70.34557
843.95        70.50011
844.35        70.66296
844.76        70.83146
845.17         70.9608
845.57        71.03124
845.98        71.00143
846.38        70.88875
846.79        70.70238
847.19        70.49861
847.60        70.34047
848.00        70.25684
848.41        70.21092
848.81        70.18979
849.22        70.08244
849.62        69.91404
850.03        69.71716
850.43        69.54718
850.84         69.4211
851.24         69.3965
851.65        69.39115
852.05        69.52684
852.46        69.89214
852.86        70.45869
853.27        71.15992
853.67        71.71265
854.07        71.85279
854.48        71.52216
854.88        70.82796
855.29        69.94585
855.69        69.34499
856.10        69.11832
856.50        69.23773
856.90        69.51101
857.31        69.61804
857.71        69.51445
858.12        69.23247
858.52        68.94209
858.92        68.80627
859.33         68.8559
859.73        69.06422
860.13        69.26955
860.54         69.2434
860.94        68.97494
861.34        68.52394
861.75         68.0566
862.15         67.8801
862.55        68.04895
862.96        68.44435
863.36         68.9337
863.76         69.2075
864.17        69.15635
864.57        68.89053
864.97        68.49374
865.38        68.10574
865.78        67.81087
866.18        67.57512
866.58        67.38888
866.99        67.24279
867.39        67.16295
867.79         67.1553
868.19        67.26347
868.60         67.5121
869.00         67.9171
869.40        68.44144
869.80        68.96701
870.21        69.26656
870.61        69.33068
871.01        69.18277
871.41        68.91489
871.81        68.67009
872.22        68.48357
872.62        68.29412
873.02        68.16364
873.42         68.1848
873.82        68.35186
874.22        68.65182
874.63        68.88333
875.03        68.73448
875.43        68.15859
875.83        67.27888
876.23        66.38636
876.63        65.93216
877.03         66.0223
877.44        66.49165
877.84        67.14759
878.24        67.65793
878.64        67.84657
879.04        67.67439
879.44        67.30898
879.84        67.11261
880.24        67.13608
880.64        67.22351
881.04          67.213
881.44        66.88707
881.84         66.2292
882.24        65.37802
882.65        64.56389
883.05        64.11159
883.45         64.1154
883.85        64.48306
884.25        65.09726
884.65        65.74382
885.05        66.30814
885.45        66.80852
885.85        67.21841
886.25        67.51941
886.65        67.71117
887.05        67.77121
887.45        67.71075
887.85        67.57391
888.25        67.38467
888.65        67.15628
889.04        66.90848
889.44        66.68518
889.84        66.48817
890.24        66.32308
890.64        66.18497
891.04         66.0603
891.44        65.94627
891.84        65.84971
892.24        65.77236
892.64        65.70882
893.04        65.66997
893.44        65.67992
893.83        65.75582
894.23         65.8709
894.63        66.04048
895.03        66.23507
895.43        66.50343
895.83        66.93735
896.23        67.50232
896.63        68.11517
897.02        68.58183
897.42        68.62537
897.82        68.21021
898.22        67.49814
898.62        66.64563
899.01        65.87374
899.41        65.29948
899.81        64.85049
900.21        64.65518
900.61        64.91041
901.00        65.59357
901.40        66.62227
901.80        67.64043
902.20        68.06635
902.59        67.78623
902.99        66.95721
903.39        65.92841
903.79        65.29862
904.18        65.22945
904.58         65.5331
904.98        66.04211
905.38        66.50151
905.77        66.82262
906.17        67.13617
906.57        67.35342
906.96        67.31246
907.36        67.00401
907.76        66.46225
908.15        66.00623
908.55         66.1453
908.95        66.96207
909.34        68.29356
909.74        69.66818
910.14        70.38087
910.53        70.21131
910.93        69.40813
911.33         68.2608
911.72        67.21577
912.12         66.5119
912.52        66.03606
912.91        65.77706
913.31        65.73542
913.70        65.87787
914.10        66.18983
914.49        66.66249
914.89        67.16102
915.29        67.63819
915.68        68.10078
916.08         68.3777
916.47        68.29141
916.87        67.85147
917.26        67.09714
917.66        66.36999
918.05        66.04969
918.45        66.21423
918.84        66.80628
919.24         67.4985
919.64        67.83409
920.03        67.69631
920.42        67.19395
920.82        66.64997
921.21        66.51489
921.61        66.87057
922.00        67.59618
922.40        68.38728
922.79        68.85095
923.19        68.82882
923.58        68.49691
923.98         68.0385
924.37        67.65366
924.77        67.43388
925.16        67.25708
925.55        67.17707
925.95        67.27496
926.34        67.54772
926.74        67.96175
927.13        68.27883
927.52        68.04193
927.92        67.25098
928.31         66.0649
928.70        64.87664
929.10        64.26015
929.49        64.33132
929.89        64.85836
930.28         65.7008
930.67        66.48701
931.07        67.02026
931.46        67.47964
931.85        67.67017
932.24         67.3333
932.64        66.53297
933.03        65.31942
933.42        64.21252
933.82        63.98076
934.21        64.75666
934.60        66.37537
934.99        68.26013
935.39        69.33994
935.78        69.32597
936.17        68.40784
936.56        67.13572
936.96        66.39702
937.35        66.42092
937.74        66.93959
938.13        67.48294
938.53        67.33825
938.92        66.38058
939.31        64.94165
939.70        63.49561
940.09        62.67888
940.49        62.61681
940.88        63.13663
941.27         63.9817
941.66         64.6835
942.05        65.05666
942.44        65.23553
942.84        65.33804
943.23        65.54039
943.62        65.89871
944.01        66.29531
944.40        66.68016
944.79        67.01647
945.18        67.26342
945.57        67.42831
945.97        67.43181
946.36        67.24189
946.75        66.83279
947.14        66.28256
947.53        65.68313
947.92        65.14571
948.31        64.72302
948.70        64.41048
949.09        64.26164
949.48        64.35495
949.87         64.6893
950.26        65.22263
950.65        65.83929
951.04        66.35184
951.43         66.6741
951.82        66.80874
952.21        66.78254
952.60        66.66089
952.99        66.49692
953.38        66.32427
953.77         66.1358
954.16        65.91755
954.55        65.68046
954.94        65.40816
955.33        65.26939
955.72        65.54241
956.11        66.24277
956.50        67.27157
956.89        68.19054
957.28        68.26986
957.66        67.36323
958.05        65.77821
958.44        64.05261
958.83        62.95102
959.22        62.64641
959.61        62.92515
960.00        63.50858
960.39           63.88
960.78        63.83541
961.16        63.51716
961.55        63.11517
961.94        62.81819
962.33        62.70903
962.72        62.76415
963.11        62.86412
963.49        62.85867
963.88        62.64324
964.27        62.23877
964.66        62.01416
965.04        62.54691
965.43        63.85215
965.82        65.84406
966.21        67.71575
966.60        67.91781
966.98        66.10422
967.37        62.95651
967.76        59.76525
968.15        58.14784
968.53        58.39385
968.92        60.09775
969.31        62.48847
969.69        63.97308
970.08        63.90011
970.47        62.78576
970.86        61.48957
971.24        61.24233
971.63         62.3131
972.02        64.28995
972.40        66.52376
972.79        67.50743
973.17        66.82471
973.56        65.05373
973.95        62.97647
974.33        61.54424
974.72        61.00274
975.11        61.05771
975.49        61.51822
975.88        61.97679
976.26        62.29137
976.65        62.52935
977.04        62.74312
977.42        62.96017
977.81        63.13706
978.19         63.1941
978.58        63.13365
978.96         62.9592
979.35        62.65857
979.74        62.27942
980.12        61.92493
980.51        61.55956
980.89        61.33863
981.28        61.26005
981.66        61.36987
982.05        61.68711
982.43        62.21294
982.82         62.8951
983.20         63.7836
983.59        64.85359
983.97         66.0908
984.35        67.39791
984.74        68.39934
985.12        68.74973
985.51        68.32873
985.89        67.32195
986.28        66.17392
986.66        65.46552
987.04        65.41693
987.43        65.83756
987.81        66.58172
988.20        67.20901
988.58        67.53736
988.96        67.59087
989.35         67.3828
989.73        66.92531
990.12        66.24359
990.50        65.38088
990.88        64.31599
991.27        63.11102
991.65        61.90804
992.03        60.77615
992.42        60.04093
992.80        60.07873
993.18        60.94046
993.56        62.55365
993.95        64.36791
994.33        65.48145
994.71         65.4711
995.10        64.64828
995.48        63.58448
995.86        63.27632
996.24        63.94691
996.63        65.14954
997.01         66.6633
997.39        67.65837
997.77        67.76589
998.15        67.40405
998.54        66.53077
998.92        64.92424
999.30        62.82673
999.68        60.35117
1000.06        58.41757
1000.45        58.33247
1000.83        60.39231
1001.21        64.38977
1001.59        69.22449
1001.97        72.14618
1002.35        72.05514
1002.73        69.74394
1003.12        66.74631
1003.50        65.03706
1003.88        65.17793
1004.26        66.43316
1004.64        68.40284
1005.02            70.2
1005.40        71.28072
1005.78        72.12953
1006.16        72.18798
1006.54        70.51059
1006.92        67.28815
1007.30        62.93464
1007.69         59.0695
1008.07        57.88243
1008.45        59.97127
1008.83        64.91898
1009.21        71.36967
1009.59        75.76708
1009.97        76.27873
1010.35        73.75909
1010.73        69.58984
1011.11        65.87827
1011.49         63.4062
1011.86        61.69443
1012.24        60.60985
1012.62        59.94302
1013.00        59.56746
1013.38        59.59821
1013.76         60.2532
1014.14        61.70912
1014.52        63.79762
1014.90         66.2092
1015.28        68.08345
1015.66        68.45261
1016.04        67.23653
1016.41         64.6583
1016.79        61.63152
1017.17        59.97871
1017.55        60.23012
1017.93        61.86539
1018.31        63.87991
1018.69        64.79076
1019.06        64.25152
1019.44        62.63143
1019.82        60.48578
1020.20        59.19239
1020.58        59.30427
1020.95        60.14137
1021.33        61.24442
1021.71        62.00289
1022.09        62.33143
1022.46        62.71047
1022.84        62.76285
1023.22        61.76913
1023.60        59.73915
1023.97        56.71854
1024.35        54.48794
1024.73        55.04676
