SpectraSmart Spectrum 2.9.0.0
--------- Device Information -----------
Spectrum Name :  反射率_0
Saving Time :  2024/04/26 23:33:08
Spectro-Module Model Name : SE2030-DUVN
Spectro-Module Serial Number : OS361AC55029948
Wavelength Start : 200
Wavelength End : 1025
Wavelength Unit : Wavelength(nm)
Spectrum Unit : Reflectance(%)
-----------Spectrum Setting ------------
Integration Time : 20ms
Average : 10
Boxcar : 0
Background removal :  enabled
linearity correction :  enabled
SC :  disabled
Intensity correction :  disabled
DWT denoise :  enabled
savitzky-golay :  disabled
FFT :  disabled
Running average :  disabled
Kalman :  disabled
High pass :  disabled
---------------BEGIN--------------------
Wavelength(nm)             Reflectance(%)
200.29               0
200.75        18.37382
201.21        21.25805
201.67        23.78871
202.13         24.0553
202.58        21.83789
203.04        17.61573
203.50        12.44135
203.96        10.17549
204.42        13.41139
204.88        21.36257
205.34        31.28446
205.80        37.65259
206.26         38.5539
206.72        35.86475
207.18        31.66825
207.64        27.45035
208.10        23.18737
208.55        17.77931
209.01        11.39087
209.47        8.932598
209.93        12.56164
210.39        18.87048
210.85        24.55964
211.31        29.01622
211.77        33.72998
212.23         41.4394
212.69        58.47813
213.14         87.5346
213.60        86.43797
214.06        65.86649
214.52        51.36062
214.98         43.7888
215.44        39.07921
215.90        34.96377
216.36        31.65171
216.81        29.73097
217.27        29.80552
217.73        32.74199
218.19        37.84516
218.65        39.98062
219.11        37.34591
219.57        32.80777
220.02        30.71628
220.48        34.23752
220.94        43.74319
221.40        60.82418
221.86         84.5844
222.32        98.38102
222.77         89.3225
223.23        69.31934
223.69        51.14843
224.15         41.7513
224.61         39.2917
225.06        39.90343
225.52        42.02673
225.98        44.23701
226.44          46.121
226.90        48.23325
227.36        49.93549
227.81        49.90993
228.27         48.2385
228.73        45.39127
229.19        42.55834
229.65        41.13041
230.10        41.15364
230.56        42.16833
231.02        43.43969
231.48         43.7903
231.93        42.97195
232.39        41.72391
232.85         40.4912
233.31        39.88135
233.77        39.96989
234.22        40.49551
234.68        41.29123
235.14        42.29258
235.60        43.40276
236.05        44.69339
236.51        45.83462
236.97        46.11832
237.43        45.32003
237.88        43.62558
238.34        41.53966
238.80        40.13865
239.26        39.78331
239.71         40.5317
240.17        42.07619
240.63        43.71053
241.08        44.96781
241.54        45.78428
242.00        46.45156
242.46        47.62188
242.91         50.0193
243.37        53.31958
243.83        58.00671
244.28        63.32113
244.74        66.43803
245.20        66.49808
245.66        64.09132
246.11        59.94361
246.57        55.13525
247.03        49.37895
247.48        43.86625
247.94        41.24465
248.40        41.65112
248.85        43.11845
249.31        44.52135
249.77        44.69674
250.22        43.33646
250.68        40.67608
251.14        36.35394
251.59        30.98737
252.05        26.85853
252.51        24.88805
252.96         24.9326
253.42        26.56706
253.88        29.09299
254.33        31.63068
254.79         34.8428
255.25        39.26904
255.70        44.64906
256.16        50.84417
256.62        55.22613
257.07        53.99268
257.53        48.97882
257.99        43.08321
258.44        38.72269
258.90        37.97935
259.35        39.78296
259.81        42.99573
260.27        46.18494
260.72         47.5627
261.18        47.14118
261.63        45.58974
262.09        43.82203
262.55        42.36675
263.00        41.26486
263.46        40.41057
263.91        39.55793
264.37        38.65331
264.83        37.68191
265.28        36.70209
265.74        35.95995
266.19        35.50519
266.65        35.37406
267.11         35.4419
267.56        35.55381
268.02        35.46743
268.47        35.12113
268.93        34.59757
269.38        33.98611
269.84        33.47616
270.30        33.10251
270.75        32.80228
271.21         32.5454
271.66        32.24322
272.12         31.8756
272.57        31.44987
273.03        30.99455
273.48        30.54164
273.94         30.1348
274.39        29.73236
274.85        29.33892
275.31        28.84515
275.76        28.23735
276.22        27.59542
276.67         26.9827
277.13        26.55828
277.58        26.29775
278.04        26.15644
278.49        26.00788
278.95        25.76628
279.40        25.36729
279.86        24.91713
280.31        24.39637
280.77        23.86176
281.22        23.31358
281.68        22.78717
282.13         22.3292
282.59        22.07152
283.04        21.98995
283.50         22.0523
283.95        22.13897
284.41        22.06406
284.86        21.78903
285.32         21.3989
285.77         20.9811
286.22        20.70722
286.68        20.60932
287.13         20.6022
287.59        20.64106
288.04        20.62338
288.50        20.53712
288.95        20.39757
289.41        20.22976
289.86        20.01383
290.32        19.78868
290.77        19.55554
291.22        19.36084
291.68        19.26587
292.13        19.27587
292.59        19.38248
293.04        19.57289
293.50        19.83962
293.95        20.15794
294.40        20.52647
294.86        20.89974
295.31        21.20389
295.77        21.43146
296.22        21.59319
296.68        21.75049
297.13        21.99262
297.58        22.34338
298.04        22.77648
298.49        23.23603
298.95        23.64573
299.40        23.97473
299.85        24.24407
300.31         24.4833
300.76        24.73373
301.21        25.00363
301.67        25.28493
302.12        25.53094
302.58        25.71989
303.03        25.83033
303.48        25.89631
303.94         25.9545
304.39        26.03384
304.84        26.14955
305.30        26.29523
305.75        26.43772
306.20        26.57161
306.66        26.69299
307.11        26.79201
307.57        26.86372
308.02        26.86594
308.47        26.80507
308.93        26.70138
309.38        26.57776
309.83        26.50675
310.29        26.50228
310.74         26.5403
311.19        26.58408
311.65        26.56815
312.10        26.47202
312.55        26.31514
313.00        26.13536
313.46        25.98771
313.91        25.87502
314.36        25.78651
314.82         25.6882
315.27        25.53551
315.72        25.31999
316.18        25.06885
316.63        24.81483
317.08        24.61691
317.53        24.48645
317.99        24.39965
318.44        24.32928
318.89         24.2223
319.35        24.06259
319.80        23.86294
320.25        23.64205
320.70        23.43025
321.16        23.23619
321.61        23.06079
322.06        22.88697
322.51        22.69024
322.97        22.46489
323.42        22.22348
323.87        22.00279
324.32        21.86366
324.78        21.80793
325.23        21.82839
325.68        21.84848
326.13        21.74572
326.59        21.49331
327.04        21.13823
327.49         20.7696
327.94        20.52984
328.39        20.45006
328.85        20.47967
329.30        20.56377
329.75        20.56312
330.20        20.43557
330.66         20.2218
331.11        19.98159
331.56        19.79402
332.01         19.6832
332.46        19.61306
332.92        19.55566
333.37        19.50097
333.82        19.42645
334.27        19.35051
334.72        19.25675
335.17         19.1107
335.63        18.91467
336.08         18.6939
336.53        18.49753
336.98        18.41602
337.43        18.46671
337.88        18.61055
338.34        18.79941
338.79        18.96867
339.24        19.07171
339.69        19.11936
340.14        19.07665
340.59        18.89476
341.05        18.59274
341.50        18.20048
341.95        17.80504
342.40        17.53855
342.85        17.43479
343.30        17.45639
343.75        17.56495
344.20        17.69056
344.66        17.79975
345.11        17.90404
345.56        17.97037
346.01        17.94914
346.46        17.84369
346.91        17.67261
347.36         17.4932
347.81        17.40347
348.26        17.42452
348.72        17.52198
349.17        17.66381
349.62        17.80585
350.07        17.92223
350.52        18.02605
350.97        18.07456
351.42        18.00039
351.87        17.80605
352.32        17.52007
352.77        17.23129
353.22        17.07289
353.67        17.07136
354.13        17.19151
354.58        17.36244
355.03        17.46488
355.48        17.46178
355.93        17.39064
356.38        17.28943
356.83        17.21761
357.28        17.18873
357.73        17.16968
358.18        17.14921
358.63        17.11613
359.08        17.06161
359.53        16.99621
359.98        16.89802
360.43        16.72762
360.88        16.48625
361.33        16.19123
361.78        15.89592
362.23        15.68706
362.68        15.58829
363.13        15.57906
363.58        15.61037
364.03         15.6024
364.48        15.53096
364.93        15.41214
365.38        15.28335
365.83        15.20785
366.28        15.19726
366.73        15.22694
367.18        15.24587
367.63        15.17706
368.08        15.00973
368.53        14.77698
368.98        14.53561
369.43         14.3745
369.88          14.314
370.33        14.31928
370.78        14.35557
371.23         14.3644
371.68        14.32249
372.13        14.25263
372.58        14.14354
373.03        13.97643
373.48        13.75952
373.93        13.49833
374.38        13.25355
374.83        13.12509
375.28        13.12947
375.72        13.23202
376.17        13.36504
376.62        13.40496
377.07        13.32566
377.52        13.16411
377.97        12.97748
378.42        12.86265
378.87        12.84418
379.32        12.88294
379.77        12.94228
380.22        12.97069
380.67        12.95068
381.11        12.90513
381.56        12.82909
382.01        12.72657
382.46        12.61153
382.91        12.49056
383.36        12.38446
383.81        12.32236
384.26        12.30523
384.71        12.31991
385.15        12.35423
385.60        12.39058
386.05        12.41479
386.50        12.43072
386.95        12.41834
387.40        12.34918
387.85        12.22957
388.29        12.07049
388.74         11.9268
389.19        11.84751
389.64        11.83874
390.09        11.87822
390.54        11.93982
390.98        11.97492
391.43        11.97404
391.88        11.95105
392.33        11.90424
392.78        11.83152
393.23        11.73963
393.67        11.62374
394.12        11.52202
394.57        11.46844
395.02        11.46686
395.47        11.50394
395.91        11.55112
396.36        11.54864
396.81        11.49201
397.26        11.40571
397.71        11.31341
398.15        11.25682
398.60          11.258
399.05        11.25057
399.50        11.24352
399.95        11.33603
400.39        11.48789
400.84          11.496
401.29        11.36023
401.74        11.26059
402.18        11.20936
402.63        11.09573
403.08        10.95687
403.53        10.90174
403.97        10.94176
404.42        11.04641
404.87        11.16525
405.32        11.21373
405.76        11.16889
406.21        11.06197
406.66         10.9368
407.11        10.86319
407.55        10.86232
408.00        10.90791
408.45        10.96701
408.90        10.97729
409.34        10.92134
409.79        10.82419
410.24        10.72375
410.68        10.66647
411.13        10.66684
411.58         10.7107
412.03        10.76813
412.47        10.78912
412.92        10.75698
413.37        10.69061
413.81        10.62611
414.26         10.6243
414.71        10.69007
415.15        10.80442
415.60        10.92151
416.05        10.96794
416.49         10.9244
416.94         10.8178
417.39        10.68733
417.83        10.59227
418.28        10.55039
418.73        10.54144
419.17        10.56079
419.62        10.60039
420.07        10.64994
420.51        10.70895
420.96        10.75427
421.41        10.74645
421.85        10.67845
422.30        10.56226
422.74        10.42646
423.19        10.36272
423.64         10.3659
424.08        10.35968
424.53        10.33369
424.98        10.35188
425.42        10.41555
425.87        10.45771
426.31        10.47185
426.76        10.52578
427.21         10.5852
427.65        10.50288
428.10        10.32605
428.54        10.23866
428.99        10.26107
429.44        10.33837
429.88         10.4205
430.33        10.38963
430.77        10.26989
431.22        10.26473
431.66        10.37009
432.11        10.39669
432.56        10.34463
433.00        10.35375
433.45        10.38398
433.89        10.29262
434.34        10.15772
434.78        9.928533
435.23         10.1628
435.67        10.19949
436.12        10.17867
436.57        10.13176
437.01        10.07989
437.46          10.063
437.90        10.08272
438.35        10.09673
438.79        10.10104
439.24        10.12505
439.68        10.16691
440.13        10.21449
440.57        10.25509
441.02        10.27819
441.46         10.2795
441.91        10.23914
442.35        10.16852
442.80        10.18214
443.24        10.23993
443.69        10.16554
444.13        9.996184
444.58        9.950455
445.02        10.03684
445.47        10.14445
445.91        10.22933
446.36         10.2722
446.80        10.25757
447.24        10.19396
447.69        10.11271
448.13        10.05916
448.58        10.04873
449.02        10.06543
449.47        10.09633
449.91        10.11589
450.36        10.11943
450.80        10.11706
451.25        10.11332
451.69         10.1087
452.13         10.1049
452.58        10.09459
453.02        10.08583
453.47        10.09501
453.91        10.12255
454.36        10.16666
454.80         10.1982
455.24        10.16912
455.69        10.07772
456.13        9.934249
456.58        9.796843
457.02        9.734544
457.46        9.764686
457.91        9.864579
458.35        9.974366
458.79        9.999062
459.24        9.930392
459.68        9.794866
460.13        9.664037
460.57        9.616062
461.01        9.674859
461.46          9.8009
461.90        9.953621
462.34        10.05571
462.79        10.07759
463.23         10.0466
463.68        9.975329
464.12         9.89304
464.56        9.814794
465.01        9.746387
465.45        9.683691
465.89        9.648884
466.34        9.642783
466.78        9.660749
467.22        9.697649
467.67         9.73161
468.11        9.760152
468.55        9.781594
468.99        9.797877
469.44         9.81316
469.88        9.828085
470.32        9.838471
470.77         9.84377
471.21        9.846895
471.65         9.84747
472.10        9.849206
472.54        9.847296
472.98        9.838305
473.42        9.822796
473.87        9.805157
474.31        9.787965
474.75        9.785081
475.20        9.799997
475.64        9.824075
476.08         9.84933
476.52        9.857565
476.97        9.846034
477.41        9.826373
477.85        9.810895
478.29         9.80502
478.74        9.821684
479.18        9.880262
479.62        9.965246
480.06        10.03649
480.50        10.08661
480.95        10.11699
481.39        10.12546
481.83         10.2085
482.27        10.22002
482.72        10.28189
483.16        10.34497
483.60        10.38402
484.04        10.37665
484.48        10.40914
484.93        10.56085
485.37        10.52399
485.81        10.53059
486.25        11.04441
486.69        10.62754
487.14        10.42649
487.58        11.25884
488.02        11.16075
488.46        10.96561
488.90          11.026
489.34        10.91794
489.79        11.08943
490.23        11.26696
490.67        11.45144
491.11        11.57416
491.55        11.54802
491.99        11.42968
492.43        11.41611
492.88        11.53206
493.32        11.65306
493.76        11.75839
494.20        11.88351
494.64        12.02338
495.08        12.14178
495.52        12.23321
495.96        12.37084
496.41        12.52739
496.85        12.51686
497.29        12.38304
497.73        12.48419
498.17        12.64463
498.61        12.77514
499.05        12.80677
499.49        12.86681
499.93        12.92955
500.37        13.06254
500.82        13.22986
501.26        13.33599
501.70        13.37012
502.14        13.38792
502.58        13.42024
503.02         13.4903
503.46        13.60517
503.90        13.75558
504.34        13.90627
504.78        13.99755
505.22        14.01588
505.66        13.98295
506.10        13.92995
506.54        13.90666
506.98        13.92958
507.42        13.98377
507.86        14.06287
508.30        14.15559
508.74        14.25336
509.18        14.35968
509.62        14.46058
510.06          14.533
510.50        14.57242
510.94        14.58188
511.38        14.57936
511.82        14.59635
512.26        14.64124
512.70        14.70715
513.14        14.77747
513.58        14.82436
514.02         14.8408
514.46        14.83448
514.90        14.82319
515.34        14.83506
515.78        14.87532
516.22        14.93399
516.66        14.98916
517.10        15.00627
517.54        14.97945
517.98        14.92312
518.42        14.86036
518.86        14.82728
519.30        14.83345
519.74         14.8659
520.18        14.91255
520.62        14.95417
521.06        14.98331
521.50        15.00687
521.93        15.02144
522.37        15.01529
522.81        14.99025
523.25         14.9453
523.69        14.89592
524.13        14.86825
524.57        14.86481
525.01        14.87679
525.45        14.88218
525.89         14.8444
526.32        14.75642
526.76        14.63869
527.20        14.51164
527.64         14.4075
528.08        14.33718
528.52         14.2907
528.96         14.2669
529.40        14.26348
529.83        14.27441
530.27        14.29947
530.71        14.32121
531.15        14.31242
531.59        14.26812
532.03        14.19478
532.46        14.10872
532.90         14.0481
533.34        14.01951
533.78        14.00526
534.22         13.9942
534.66        13.98562
535.09        13.96444
535.53        13.90489
535.97        13.81986
536.41        13.76461
536.85        13.74652
537.28        13.73863
537.72        13.73979
538.16         13.7584
538.60        13.79202
539.04        13.83807
539.47        13.88809
539.91        13.93765
540.35        13.98196
540.79        14.02265
541.22        14.06228
541.66        14.11072
542.10        14.16886
542.54        14.23573
542.97        14.30744
543.41        14.38355
543.85         14.4623
544.29        14.54575
544.72         14.6352
545.16        14.74329
545.60        14.86843
546.04        15.00901
546.47        15.15924
546.91        15.30591
547.35        15.44252
547.79        15.57159
548.22        15.69509
548.66        15.81398
549.10        15.94838
549.53        16.08929
549.97        16.23447
550.41        16.34261
550.84        16.42807
551.28        16.53898
551.72        16.66378
552.15        16.79692
552.59        16.95779
553.03        16.89931
553.46        17.13031
553.90        17.20968
554.34        17.28748
554.77        17.36446
555.21        17.45391
555.65        17.56107
556.08        17.67846
556.52        17.79359
556.96        17.89281
557.39        18.00485
557.83         18.1134
558.27         18.1187
558.70        18.05007
559.14        18.06394
559.57        18.15915
560.01        18.23829
560.45        18.29126
560.88        18.35997
561.32        18.44989
561.75        18.53009
562.19        18.60034
562.63        18.65611
563.06        18.69441
563.50        18.72126
563.93        18.73191
564.37        18.76719
564.80        18.83974
565.24        18.89544
565.68        18.89408
566.11         19.1833
566.55        19.07269
566.98        19.13712
567.42        19.20823
567.85        19.32137
568.29        19.48331
568.72        19.69214
569.16        19.93792
569.60        20.09359
570.03        20.21929
570.47         20.3314
570.90         20.4642
571.34        20.47426
571.77        20.52178
572.21        20.81712
572.64        20.91674
573.08        21.08233
573.51        21.21445
573.95        21.29197
574.38        21.31765
574.82        21.66408
575.25        21.39442
575.69        21.41692
576.12        21.43737
576.56         21.5231
576.99        21.74867
577.42        21.46046
577.86        21.71705
578.29        22.00915
578.73        21.68331
579.16        21.61817
579.60        21.49576
580.03        21.55331
580.47        21.51162
580.90        21.45169
581.33        21.41802
581.77        21.60182
582.20        21.09197
582.64         20.9494
583.07        20.87472
583.51        20.83166
583.94        20.85291
584.37        20.85782
584.81        20.80044
585.24        20.65125
585.68        20.50873
586.11        20.18399
586.54        20.19312
586.98        20.17573
587.41         20.2569
587.85        20.13568
588.28        19.86227
588.71         19.8427
589.15         19.9195
589.58        19.83416
590.01        19.98612
590.45        19.96684
590.88        19.92216
591.31        19.89695
591.75        19.93985
592.18        19.90316
592.61        19.75508
593.05        20.12042
593.48        20.21998
593.91        19.96847
594.35        19.95595
594.78        19.94655
595.21        20.16368
595.65         20.3741
596.08        20.59668
596.51        20.73674
596.94        20.73335
597.38        20.87681
597.81        21.15096
598.24        21.42505
598.68         21.5706
599.11        21.91857
599.54        22.25984
599.97        22.31051
600.41        22.64767
600.84        22.74065
601.27        23.10294
601.70        23.40961
602.14        23.75026
602.57        24.10733
603.00        24.47029
603.43        24.81575
603.87        25.31618
604.30        25.61935
604.73        25.84814
605.16        26.10404
605.60        26.40397
606.03        26.73298
606.46        27.10104
606.89         27.3323
607.32        28.08816
607.76        28.54848
608.19        28.87186
608.62        29.18592
609.05        29.57567
609.48        29.88347
609.92        30.44216
610.35        30.89735
610.78        30.67812
611.21        30.90278
611.64        31.21184
612.07        31.68246
612.50        32.03809
612.94        32.36243
613.37        32.57271
613.80        32.86975
614.23         32.7655
614.66        33.04718
615.09        33.52983
615.52        33.86808
615.96        34.04039
616.39        34.32195
616.82        34.72736
617.25        34.98968
617.68        35.27161
618.11        35.55228
618.54        35.84759
618.97        36.07642
619.40        36.25577
619.84        36.25897
620.27        36.38619
620.70        36.53125
621.13        36.73532
621.56        36.71534
621.99        36.54181
622.42        36.62675
622.85        36.95386
623.28        37.15122
623.71        37.20648
624.14        37.30477
624.57        37.66564
625.00        37.49894
625.43        37.49925
625.86        37.31792
626.29        37.24531
626.72        36.74282
627.15        36.90553
627.58         36.8581
628.01        36.83929
628.44        36.66975
628.87        36.34955
629.30        36.00235
629.73        35.67043
630.16        35.36465
630.59        35.10152
631.02        34.89852
631.45        34.72329
631.88        34.50069
632.31        34.20889
632.74        33.86871
633.17        33.48508
633.60        33.06549
634.03        32.62029
634.46        32.14828
634.89        31.66173
635.32        31.18979
635.75        30.74434
636.18        30.29088
636.61        29.84913
637.04        29.46195
637.47         29.1276
637.89        28.82903
638.32         28.5265
638.75        28.18552
639.18        27.80203
639.61        27.39308
640.04        26.99565
640.47        26.66396
640.90        26.41066
641.33        26.22158
641.76        26.07354
642.18        25.93152
642.61        25.77749
643.04        25.62571
643.47        25.49339
643.90        25.40649
644.33        25.37085
644.76        25.37831
645.18        25.40935
645.61        25.42812
646.04        25.43132
646.47        25.43279
646.90        25.46599
647.33        25.57537
647.75        25.76356
648.18        26.04965
648.61         26.4075
649.04        26.69225
649.47        26.86521
649.89        27.36744
650.32         27.5125
650.75        27.89381
651.18        28.31188
651.61        28.86922
652.03        29.51454
652.46        29.99083
652.89        30.32122
653.32        30.75628
653.74         31.3522
654.17        31.74549
654.60        32.28339
655.03        32.75689
655.46        32.79409
655.88        33.51366
656.31         35.3078
656.74        36.28045
657.16        36.21125
657.59        36.59554
658.02        36.14514
658.45        37.05626
658.87        36.97998
659.30        37.46685
659.73        37.89646
660.15        38.90464
660.58        38.68217
661.01        38.96999
661.44        39.32904
661.86        39.52475
662.29         39.5755
662.72        40.16734
663.14        40.50062
663.57        40.77838
664.00        40.83322
664.42        41.09655
664.85        41.59378
665.27        42.10901
665.70        42.52772
666.13         42.7979
666.55        42.89893
666.98        42.80995
667.41        42.63135
667.83        42.79886
668.26        42.91273
668.69        43.29024
669.11        43.72622
669.54        44.09851
669.96        44.36814
670.39        44.56808
670.82        44.74261
671.24        44.94099
671.67        45.17513
672.09        45.41206
672.52        45.63652
672.94        45.80589
673.37        45.91999
673.80        45.99036
674.22        46.06013
674.65        46.16862
675.07        46.33852
675.50        46.54972
675.92        46.75877
676.35        46.88712
676.77        46.92445
677.20        46.89706
677.62         46.8695
678.05        46.94257
678.47        47.13457
678.90        47.41253
679.32        47.71367
679.75         47.9408
680.17        48.06164
680.60        48.12955
681.02        48.17832
681.45        48.20318
681.87        48.25821
682.30        48.44539
682.72        48.73008
683.15        48.91567
683.57        48.98839
684.00        49.03032
684.42        49.10026
684.85        49.24802
685.27        49.45789
685.70        49.78665
686.12        50.12405
686.54        50.19913
686.97        50.05272
687.39        50.00224
687.82        50.08388
688.24        50.19625
688.66        50.31221
689.09        50.35558
689.51        50.36478
689.94        50.52068
690.36         50.8072
690.78        51.00103
691.21        51.10049
691.63        51.24588
692.06        51.43683
692.48        51.60493
692.90        51.71492
693.33        51.73835
693.75        51.66864
694.17        51.52808
694.60        51.41077
695.02        51.38073
695.44         51.4807
695.87        51.89821
696.29        52.46755
696.71        52.50366
697.14        52.07986
697.56        51.95061
697.98        52.18142
698.41        52.32423
698.83        52.38308
699.25        52.67067
699.68        53.07912
700.10        53.31539
700.52        53.31639
700.94         53.1786
701.37        53.01162
701.79        52.99967
702.21        53.18174
702.64        53.48047
703.06        53.81605
703.48        54.04726
703.90        54.13188
704.33        54.12291
704.75        54.05741
705.17         53.9841
705.59        53.93285
706.01         53.8876
706.44        53.88402
706.86        53.98371
707.28        54.17702
707.70        54.48309
708.12        54.83354
708.55        55.01392
708.97         55.0429
709.39        55.16117
709.81        55.35642
710.23        55.42417
710.66        55.35878
711.08        55.29568
711.50        55.25967
711.92        55.23228
712.34        55.22406
712.76        55.28178
713.19        55.38703
713.61         55.3637
714.03        55.46385
714.45        55.48661
714.87        55.53876
715.29        55.65863
715.71        55.84939
716.13         56.0735
716.56        56.28882
716.98        56.51031
717.40        56.69136
717.82        56.83769
718.24        56.89848
718.66        56.81184
719.08        56.59499
719.50        56.26074
719.92        55.91973
720.34        55.91035
720.76        55.99658
721.19        56.32839
721.61        56.76051
722.03         57.1435
722.45        57.40643
722.87        57.57655
723.29        57.64862
723.71        57.61451
724.13        57.49269
724.55        57.29379
724.97        57.06872
725.39        56.89638
725.81        56.80746
726.23        56.80718
726.65        56.90322
727.07        57.03362
727.49         57.2813
727.91        57.56333
728.33        57.85868
728.75        58.08072
729.17        58.20187
729.59         58.2282
730.01        58.19775
730.43         58.1876
730.85        58.21941
731.27        58.27165
731.69        58.31708
732.10        58.32036
732.52        58.28175
732.94        58.19505
733.36        58.09193
733.78        58.05089
734.20        58.11353
734.62        58.00503
735.04        58.41492
735.46        58.18362
735.88        58.59907
736.30        58.44683
736.72        58.56022
737.13         58.8321
737.55        59.26412
737.97        59.64011
738.39        59.82086
738.81        59.47062
739.23        58.80907
739.65        58.85992
740.06        59.51995
740.48        59.79073
740.90        59.61978
741.32        59.62959
741.74        59.86143
742.16        60.03675
742.57        60.14339
742.99        60.26163
743.41        60.36005
743.83        60.32883
744.25        60.18799
744.67        60.04143
745.08        59.95422
745.50        59.93299
745.92        59.99809
746.34        60.16272
746.75        60.36998
747.17        60.46944
747.59        60.43625
748.01         60.3786
748.42        60.31531
748.84        60.16133
749.26        60.01733
749.68        60.09158
750.09        60.33436
750.51         60.6354
750.93        60.83222
751.35        60.55614
751.76        59.95959
752.18         59.6956
752.60        59.79898
753.01        59.99406
753.43        60.19045
753.85         60.1862
754.27        59.90637
754.68        60.33271
755.10        59.88625
755.52        60.00444
755.93        60.19817
756.35        60.44151
756.77        60.72759
757.18        60.91959
757.60         61.0029
758.02        61.32897
758.43        61.75893
758.85        60.93819
759.26        60.86122
759.68        60.06955
760.10        60.07085
760.51        61.02969
760.93        61.66452
761.34        60.91224
761.76        61.20168
762.18        61.08656
762.59        61.45858
763.01        61.77409
763.42        62.00065
763.84         62.1517
764.26        62.16551
764.67        61.85759
765.09        61.42174
765.50        61.30861
765.92         61.5079
766.33        61.54328
766.75        61.31576
767.16        61.15235
767.58        61.08656
768.00        60.97308
768.41        60.94036
768.83        61.42253
769.24        62.15675
769.66        62.37241
770.07        62.06293
770.49        61.49672
770.90        60.95892
771.32        61.53454
771.73        62.29489
772.15        62.74105
772.56        62.61581
772.97        61.94894
773.39        62.11322
773.80        62.03074
774.22        62.09516
774.63        62.33599
775.05        62.62015
775.46        62.76678
775.88        62.69302
776.29         62.4926
776.70         62.2575
777.12        62.16222
777.53        62.25467
777.95        62.43272
778.36        62.65153
778.77        62.78026
779.19        62.80592
779.60        62.84685
780.02        62.83648
780.43        62.67599
780.84        62.55446
781.26        62.08863
781.67        62.18955
782.09        62.88256
782.50        64.16026
782.91        63.47379
783.33        63.14466
783.74         62.7388
784.15        62.96217
784.57        63.07669
784.98        63.05664
785.39         62.8564
785.81        62.60707
786.22        63.05424
786.63        63.98982
787.04        64.28645
787.46        63.93065
787.87        63.69633
788.28        63.70565
788.70        63.65919
789.11        63.57105
789.52        63.72707
789.93        64.01758
790.35        63.96048
790.76         63.6311
791.17        63.56632
791.58        63.80619
792.00        63.95732
792.41        63.97335
792.82          64.123
793.23        64.29697
793.65        63.96844
794.06        63.39584
794.47        63.47422
794.88         64.0088
795.29        64.77914
795.71         64.1324
796.12        64.05384
796.53        64.15808
796.94        64.16488
797.35        64.13863
797.76        64.47906
798.18        65.05463
798.59        65.33265
799.00        65.22952
799.41         64.9903
799.82        64.73733
800.23        64.58746
800.64        64.59219
801.06        64.68861
801.47        64.83418
801.88        64.87102
802.29        64.75602
802.70        64.53635
803.11        64.28605
803.52        64.12305
803.93        64.10247
804.34        64.19695
804.75        64.35439
805.17        64.57131
805.58        64.86904
805.99        64.93951
806.40        64.85439
806.81        65.43538
807.22        66.35967
807.63         66.0021
808.04        64.60343
808.45        63.96737
808.86        64.25005
809.27        64.50062
809.68        64.55466
810.09        64.59657
810.50        64.57975
810.91        64.41701
811.32        64.26313
811.73        64.45231
812.14        64.98034
812.55        65.57708
812.96        66.05257
813.37        66.22176
813.78        66.02216
814.19        65.54979
814.60        64.98456
815.01        64.55225
815.42        64.31807
815.83        64.24174
816.24        64.29758
816.65        64.40665
817.05        64.53688
817.46        64.69996
817.87        64.86519
818.28        64.92899
818.69        64.87692
819.10         64.7101
819.51         64.5331
819.92        64.54958
820.33        64.79965
820.74        65.21394
821.14        65.64333
821.55        65.84156
821.96        65.75375
822.37        65.46282
822.78        65.08523
823.19        64.82121
823.60        64.74047
824.00        64.79884
824.41        64.91833
824.82        65.06456
825.23        65.19621
825.64        65.33711
826.04        65.44012
826.45        65.38416
826.86        65.17274
827.27        64.84371
827.68        64.49451
828.08        64.32407
828.49        64.33797
828.90        64.49609
829.31        64.75584
829.72        65.04197
830.12        65.33215
830.53        65.59152
830.94        65.75159
831.35        65.65639
831.75        65.30878
832.16        64.74315
832.57        64.15143
832.97         63.8204
833.38        63.82463
833.79        64.07054
834.20        64.45726
834.60        64.81416
835.01        65.07661
835.42        65.32183
835.82        65.52368
836.23        65.56413
836.64        65.46322
837.04        65.21707
837.45        64.99646
837.86        65.14748
838.26        65.74896
838.67         66.6636
839.08        67.58453
839.48        67.91519
839.89        67.49461
840.29         66.5313
840.70        65.49034
841.11        64.87634
841.51        64.83118
841.92        65.18908
842.33        65.77287
842.73        66.27062
843.14        66.46693
843.54        66.50661
843.95        66.48365
844.35         66.5984
844.76        66.87153
845.17         67.2096
845.57        67.49679
845.98        67.53255
846.38        67.29465
846.79        66.85744
847.19        66.34366
847.60        65.91962
848.00        65.66259
848.41        65.51649
848.81        65.48192
849.22        65.47683
849.62        65.50717
850.03        65.57447
850.43        65.68418
850.84        65.77677
851.24         65.8722
851.65        65.90865
852.05        65.95142
852.46        66.02071
852.86        66.12683
853.27        66.26669
853.67        66.32727
854.07        66.28661
854.48        66.12617
854.88        65.83057
855.29        65.42942
855.69        65.43838
856.10        65.32188
856.50         65.5258
856.90        65.77144
857.31        65.89316
857.71        65.88043
858.12        65.71068
858.52        65.50748
858.92        65.35918
859.33        65.28439
859.73        65.30641
860.13        65.30187
860.54        65.08865
860.94        64.68505
861.34        64.14821
861.75        63.66957
862.15        63.59184
862.55        63.96584
862.96        64.65355
863.36        65.46645
863.76        66.00134
864.17        66.11307
864.57         65.9304
864.97         65.5505
865.38        65.14565
865.78        64.82027
866.18        64.53001
866.58        64.30804
866.99        64.21689
867.39        64.29109
867.79        64.51942
868.19        64.86804
868.60         65.2457
869.00        65.63762
869.40        66.02073
869.80        66.34075
870.21        66.50324
870.61        66.53632
871.01        66.42885
871.41        66.18491
871.81         65.8129
872.22        65.33303
872.62        64.74645
873.02        64.21751
873.42        64.01151
873.82        64.18592
874.22        64.67864
874.63        65.22302
875.03        65.40554
875.43        65.12033
875.83        64.48029
876.23        63.78094
876.63        63.48875
877.03        63.70987
877.44         64.2824
877.84         64.9338
878.24        65.21669
878.64        64.97332
879.04        64.22755
879.44        63.36195
879.84         63.0598
880.24        63.41744
880.64        64.17288
881.04        64.93536
881.44        65.09447
881.84        64.51211
882.24         63.4282
882.65        62.24372
883.05        61.56483
883.45        61.56502
883.85        62.06101
884.25        62.82988
884.65        63.48908
885.05        63.88203
885.45        64.10679
885.85        64.22388
886.25        64.32871
886.65        64.45037
887.05        64.52415
887.45        64.51717
887.85        64.40344
888.25        64.18861
888.65        63.92121
889.04        63.63824
889.44        63.40682
889.84        63.23714
890.24        63.11175
890.64         63.0507
891.04        63.08176
891.44        63.19735
891.84        63.39396
892.24        63.58353
892.64        63.62867
893.04        63.52143
893.44        63.31248
893.83        63.14964
894.23          63.229
894.63        63.60816
895.03        64.19151
895.43        64.85089
895.83        65.38131
896.23        65.69074
896.63          65.813
897.02        65.73789
897.42        65.48479
897.82        65.09514
898.22        64.61165
898.62        64.10433
899.01        63.66861
899.41        63.35837
899.81        63.14496
900.21        63.08154
900.61        63.23666
901.00        63.59016
901.40        64.10453
901.80        64.59492
902.20        64.76436
902.59        64.56651
902.99        64.07922
903.39         63.5132
903.79         63.2245
904.18        63.29116
904.58         63.5917
904.98        64.00361
905.38        64.34457
905.77        64.55545
906.17        64.73188
906.57        64.80383
906.96        64.65324
907.36        64.28174
907.76        63.72923
908.15        63.27806
908.55        63.36476
908.95        64.05946
909.34        65.22239
909.74        66.43404
910.14        67.07591
910.53        66.94823
910.93        66.26447
911.33        65.27149
911.72        64.35024
912.12        63.71767
912.52          63.286
912.91         63.0462
913.31        63.00113
913.70        63.12399
914.10        63.38799
914.49        63.82108
914.89         64.3588
915.29        64.96095
915.68        65.61707
916.08        66.07027
916.47        65.99535
916.87        65.37716
917.26        64.31162
917.66        63.25438
918.05        62.74858
918.45        62.90898
918.84        63.63997
919.24        64.53588
919.64        64.99477
920.03        64.85452
920.42        64.26147
920.82        63.62593
921.21        63.53594
921.61        64.10034
922.00        65.14861
922.40         66.2603
922.79        66.83846
923.19        66.67539
923.58        66.02224
923.98         65.2022
924.37        64.61523
924.77        64.40141
925.16        64.39025
925.55        64.54414
925.95        64.78619
926.34        65.06161
926.74        65.37829
927.13        65.58735
927.52        65.37223
927.92        64.75297
928.31        63.83149
928.70        62.88528
929.10        62.31813
929.49         62.2184
929.89        62.42251
930.28        62.90634
930.67        63.50253
931.07        64.08047
931.46        64.74897
931.85        65.24419
932.24         65.1889
932.64        64.58739
933.03        63.51752
933.42        62.47452
933.82        62.18958
934.21        62.80374
934.60        64.16388
934.99        65.75838
935.39        66.64497
935.78         66.5833
936.17         65.7457
936.56        64.65324
936.96        64.13168
937.35        64.38021
937.74        65.14094
938.13        65.91799
938.53        65.95847
938.92        65.12247
939.31        63.73293
939.70        62.29222
940.09        61.49112
940.49        61.46758
940.88        62.04131
941.27        62.92297
941.66        63.57919
942.05        63.82395
942.44        63.83719
942.84        63.79398
943.23         63.9547
943.62        64.39317
944.01        64.94441
944.40        65.54207
944.79        66.12949
945.18        66.62421
945.57        67.01375
945.97        67.11516
946.36        66.73072
946.75        65.82735
947.14        64.57864
947.53        63.21869
947.92         62.0477
948.31        61.18047
948.70        60.57901
949.09        60.30769
949.48        60.45197
949.87        60.99026
950.26        61.87046
950.65        62.89479
951.04        63.73286
951.43        64.24615
951.82        64.44889
952.21        64.39359
952.60        64.21465
952.99        63.99259
953.38        63.73539
953.77        63.45921
954.16        63.19051
954.55        62.93937
954.94        62.68634
955.33        62.55272
955.72        62.71717
956.11        63.19024
956.50        63.94251
956.89        64.59399
957.28        64.51117
957.66          63.592
958.05         62.0922
958.44        60.60374
958.83        59.98926
959.22        60.39548
959.61         61.5593
960.00        62.97191
960.39         63.6745
960.78        63.36217
961.16        62.35883
961.55        61.11221
961.94        60.18323
962.33        59.74722
962.72        59.63845
963.11        59.78536
963.49         60.0979
963.88        60.42515
964.27         60.8027
964.66        61.22946
965.04        61.72092
965.43        62.22197
965.82        62.75039
966.21        63.07693
966.60        62.83112
966.98        61.95512
967.37         60.6431
967.76         59.4155
968.15        58.92138
968.53        59.27254
968.92         60.3651
969.31         61.6834
969.69        62.18306
970.08        61.51012
970.47        60.02633
970.86        58.59169
971.24        58.43129
971.63         59.7803
972.02        62.30956
972.40        65.22928
972.79         66.6683
973.17        66.07508
973.56        64.07623
973.95        61.68064
974.33        60.20011
974.72        59.93519
975.11        60.47423
975.49        61.42726
975.88        62.00259
976.26        61.95231
976.65        61.53058
977.04        60.97847
977.42        60.58766
977.81        60.42891
978.19        60.35532
978.58        60.42173
978.96          60.718
979.35        61.19245
979.74        61.82797
980.12        62.50835
980.51        62.78112
980.89        62.66386
981.28         62.2784
981.66        61.79451
982.05        61.42625
982.43        61.26398
982.82        61.20286
983.20        61.47101
983.59        62.37445
983.97        63.98083
984.35        66.15298
984.74        68.16423
985.12        69.03803
985.51        68.46025
985.89         66.7263
986.28         64.6489
986.66        63.39088
987.04        63.30808
987.43         64.0885
987.81        65.20784
988.20        65.53616
988.58        64.76871
988.96        63.25087
989.35           61.61
989.73        60.69779
990.12          60.684
990.50         61.3355
990.88        62.14125
991.27        62.24036
991.65        61.43903
992.03        60.07983
992.42        58.80963
992.80        58.48578
993.18        59.29385
993.56        60.96604
993.95        62.91701
994.33         64.1942
994.71        64.32236
995.10         63.6968
995.48        62.74364
995.86        62.19085
996.24        62.23334
996.63        62.46527
997.01        62.95767
997.39         63.5414
997.77        64.03438
998.15        64.58596
998.54        64.76271
998.92        63.75725
999.30        61.68262
999.68        58.91923
1000.06         56.4369
1000.45        55.58684
1000.83        56.73703
1001.21        59.58313
1001.59        63.48339
1001.97        66.67601
1002.35        68.26497
1002.73        68.66692
1003.12        68.41466
1003.50        68.17612
1003.88        68.30173
1004.26        68.35535
1004.64        68.54977
1005.02         69.3493
1005.40        70.72943
1005.78        72.72026
1006.16        74.25677
1006.54        73.59576
1006.92        70.66193
1007.30        66.18137
1007.69        61.82991
1008.07        59.80373
1008.45        60.73211
1008.83        64.07912
1009.21         68.7609
1009.59        72.00092
1009.97        72.35751
1010.35        70.60184
1010.73        67.61182
1011.11        64.69544
1011.49        62.44139
1011.86        60.54314
1012.24        59.20282
1012.62        58.69727
1013.00         59.0009
1013.38        60.13515
1013.76        61.91705
1014.14         63.6049
1014.52        64.71268
1014.90         65.2728
1015.28        65.25768
1015.66        64.80369
1016.04        64.01701
1016.41        62.79542
1016.79        61.48588
1017.17        60.83445
1017.55        61.02387
1017.93        61.91955
1018.31        62.92464
1018.69        63.10575
1019.06        62.28355
1019.44        60.63328
1019.82        58.71284
1020.20        57.91008
1020.58        58.64531
1020.95         60.1659
1021.33        61.82389
1021.71        62.79797
1022.09        62.98574
1022.46        62.91766
1022.84        62.19765
1023.22        60.21603
1023.60        57.25417
1023.97        53.53523
1024.35        51.00994
1024.73        51.85912
