SpectraSmart Spectrum 2.9.0.0
--------- Device Information -----------
Spectrum Name :  反射率_0
Saving Time :  2024/04/26 23:37:06
Spectro-Module Model Name : SE2030-DUVN
Spectro-Module Serial Number : OS361AC55029948
Wavelength Start : 200
Wavelength End : 1025
Wavelength Unit : Wavelength(nm)
Spectrum Unit : Reflectance(%)
-----------Spectrum Setting ------------
Integration Time : 20ms
Average : 10
Boxcar : 0
Background removal :  enabled
linearity correction :  enabled
SC :  disabled
Intensity correction :  disabled
DWT denoise :  enabled
savitzky-golay :  disabled
FFT :  disabled
Running average :  disabled
Kalman :  disabled
High pass :  disabled
---------------BEGIN--------------------
Wavelength(nm)             Reflectance(%)
200.29               0
200.75        31.79489
201.21        33.30421
201.67         35.3283
202.13        36.97613
202.58        38.14917
203.04         39.7089
203.50        41.83976
203.96         44.1542
204.42        46.19047
204.88        47.38523
205.34        47.87221
205.80        48.59724
206.26        49.55754
206.72        50.18466
207.18        50.07632
207.64        48.70629
208.10        45.85693
208.55        41.46645
209.01        34.91543
209.47        29.44661
209.93        28.52621
210.39        30.84061
210.85        33.81721
211.31        36.41432
211.77        39.30461
212.23        44.08675
212.69        56.57301
213.14        87.13995
213.60           101.8
214.06        92.83067
214.52        80.70332
214.98        70.18132
215.44         59.5741
215.90        47.11398
216.36        35.55301
216.81        29.90701
217.27        32.38058
217.73        43.95694
218.19        63.50994
218.65        75.76366
219.11        72.13811
219.57        61.49574
220.02        54.22953
220.48        56.79233
220.94        69.37091
221.40        93.15527
221.86        128.0959
222.32        153.3861
222.77        148.9032
223.23         127.967
223.69        105.6544
224.15        90.72192
224.61        82.40429
225.06        76.94322
225.52        74.09692
225.98        73.39813
226.44        74.30455
226.90         76.9577
227.36        80.00176
227.81        80.91428
228.27        79.50107
228.73        76.46197
229.19        73.73814
229.65        73.68893
230.10        76.30061
230.56        80.71578
231.02        85.00752
231.48        86.13817
231.93        83.68513
232.39        79.45561
232.85        75.19946
233.31        73.17332
233.77        73.62679
234.22        75.62675
234.68        78.38776
235.14         80.8252
235.60        82.46529
236.05        83.78036
236.51        84.27347
236.97        83.13327
237.43        80.26563
237.88        75.86732
238.34        71.12159
238.80        68.29385
239.26        68.15083
239.71        71.09139
240.17        76.26133
240.63        81.02214
241.08        83.54157
241.54        83.20174
242.00        81.78725
242.46        83.49553
242.91        91.24895
243.37        106.0157
243.83        126.9766
244.28        140.5209
244.74        130.2864
245.20        100.1871
245.66        69.81327
246.11        53.71223
246.57         51.0326
247.03        56.72134
247.48        64.85164
247.94        65.36153
248.40        58.56015
248.85        50.26392
249.31        43.95265
249.77        41.21917
250.22        41.54958
250.68        43.89403
251.14        48.40948
251.59        54.25398
252.05        59.58663
252.51        64.17913
252.96         65.8922
253.42        63.58015
253.88        58.47419
254.33        51.76053
254.79        46.97756
255.25         46.9021
255.70        51.08962
256.16        58.24179
256.62         65.1206
257.07        66.72356
257.53        63.89899
257.99        59.45993
258.44        55.69876
258.90        54.80322
259.35        55.83989
259.81        58.00207
260.27         59.9663
260.72        60.17334
261.18        58.88371
261.63        56.70496
262.09        54.78551
262.55        53.82427
263.00        53.71293
263.46        54.18536
263.91         54.6184
264.37        54.54396
264.83        53.87354
265.28        52.82403
265.74        51.88071
266.19        51.32327
266.65        51.26312
267.11        51.46441
267.56         51.7158
268.02        51.69931
268.47        51.32362
268.93        50.74125
269.38        50.01722
269.84        49.31059
270.30        48.66023
270.75        47.99571
271.21        47.40124
271.66        46.94695
272.12        46.62838
272.57        46.39174
273.03        46.09235
273.48        45.47237
273.94        44.56099
274.39        43.43876
274.85        42.33447
275.31        41.40458
275.76        40.67422
276.22        40.13044
276.67        39.71478
277.13        39.45508
277.58        39.25735
278.04         39.1279
278.49        38.92532
278.95        38.57503
279.40        38.00831
279.86        37.34745
280.31        36.58093
280.77        35.82553
281.22        35.07789
281.68        34.38798
282.13        33.78044
282.59        33.39056
283.04        33.17101
283.50        33.09398
283.95        33.02731
284.41        32.78267
284.86         32.3177
285.32        31.73069
285.77        31.09443
286.22        30.57771
286.68        30.21414
287.13        29.91365
287.59        29.66359
288.04        29.39598
288.50        29.11612
288.95        28.82648
289.41        28.52176
289.86         28.1179
290.32        27.65182
290.77        27.13111
291.22        26.65826
291.68        26.37334
292.13        26.28546
292.59        26.36227
293.04        26.51276
293.50        26.61417
293.95        26.62114
294.40        26.57343
294.86         26.5209
295.31        26.53506
295.77        26.64218
296.22        26.80669
296.68        27.00464
297.13        27.18625
297.58        27.34677
298.04        27.51183
298.49        27.69864
298.95        27.94523
299.40         28.2521
299.85        28.60312
300.31        28.98141
300.76        29.35716
301.21        29.71414
301.67         30.0591
302.12        30.36662
302.58        30.65303
303.03        30.89688
303.48        31.11785
303.94        31.31367
304.39        31.45263
304.84        31.55058
305.30        31.62967
305.75        31.71681
306.20        31.90123
306.66        32.19738
307.11        32.56029
307.57        32.92659
308.02        33.15655
308.47        33.23402
308.93        33.20565
309.38        33.13544
309.83        33.16821
310.29        33.33343
310.74        33.58143
311.19        33.83007
311.65        33.94151
312.10        33.87799
312.55        33.68484
313.00        33.45342
313.46        33.31774
313.91        33.29669
314.36        33.35887
314.82        33.42169
315.27        33.36205
315.72        33.15164
316.18        32.84651
316.63        32.52552
317.08        32.32256
317.53        32.26455
317.99        32.29764
318.44        32.35669
318.89        32.32639
319.35        32.17162
319.80        31.92892
320.25          31.636
320.70        31.35171
321.16        31.09991
321.61        30.87934
322.06        30.68052
322.51        30.49253
322.97        30.30952
323.42        30.13986
323.87        30.01131
324.32        29.97048
324.78        30.00494
325.23         30.1084
325.68        30.18188
326.13         30.0712
326.59        29.74637
327.04        29.27037
327.49        28.75966
327.94        28.40152
328.39         28.2408
328.85        28.21254
329.30        28.26981
329.75        28.26672
330.20          28.154
330.66        27.97302
331.11        27.76275
331.56        27.56008
332.01        27.38323
332.46        27.20811
332.92         27.0333
333.37        26.91025
333.82        26.83274
334.27        26.80392
334.72        26.79617
335.17        26.75438
335.63        26.66465
336.08        26.55659
336.53         26.4612
336.98        26.44233
337.43        26.51228
337.88         26.6385
338.34        26.78692
338.79        26.92948
339.24        27.03283
339.69        27.10617
340.14        27.11844
340.59        27.02384
341.05         26.8358
341.50        26.57336
341.95        26.31285
342.40        26.17078
342.85        26.17312
343.30        26.28494
343.75        26.44992
344.20        26.57187
344.66        26.61963
345.11        26.61702
345.56        26.57481
346.01        26.51299
346.46        26.44806
346.91        26.37563
347.36        26.31157
347.81         26.2875
348.26        26.30514
348.72        26.35109
349.17        26.41215
349.62        26.47544
350.07         26.5322
350.52        26.59498
350.97        26.62038
351.42        26.54118
351.87        26.35892
352.32        26.09614
352.77        25.85813
353.22         25.8027
353.67        25.94881
354.13        26.24454
354.58        26.55852
355.03         26.6696
355.48        26.52458
355.93        26.20126
356.38        25.81803
356.83        25.55422
357.28        25.45475
357.73        25.45451
358.18        25.50341
358.63        25.52168
359.08        25.47598
359.53        25.39876
359.98        25.27598
360.43        25.07889
360.88        24.81119
361.33        24.47655
361.78        24.13194
362.23        23.87602
362.68        23.73494
363.13        23.69161
363.58         23.6832
364.03        23.60429
364.48        23.43072
364.93        23.19023
365.38        22.95247
365.83        22.83272
366.28        22.85206
366.73        22.96534
367.18        23.08646
367.63        23.08386
368.08        22.92936
368.53        22.67011
368.98        22.37686
369.43        22.16165
369.88        22.05588
370.33        22.02014
370.78        22.01962
371.23         21.9981
371.68        21.93184
372.13         21.8417
372.58        21.72408
373.03        21.56854
373.48        21.38169
373.93        21.16822
374.38        20.95623
374.83        20.79598
375.28        20.69805
375.72        20.63948
376.17        20.61527
376.62        20.58869
377.07         20.5482
377.52        20.50655
377.97        20.44797
378.42        20.35102
378.87        20.21662
379.32        20.04481
379.77        19.88485
380.22        19.80924
380.67        19.82725
381.11        19.93128
381.56        20.03149
382.01        19.99356
382.46        19.79583
382.91        19.48914
383.36        19.19156
383.81        19.06846
384.26        19.14174
384.71        19.35383
385.15        19.59399
385.60        19.67954
386.05        19.56286
386.50        19.30965
386.95        19.00904
387.40        18.79907
387.85        18.71597
388.29        18.69557
388.74           18.72
389.19        18.72392
389.64        18.68661
390.09        18.62801
390.54        18.54257
390.98         18.4139
391.43        18.26131
391.88        18.09123
392.33        17.92953
392.78        17.81423
393.23        17.75112
393.67        17.71913
394.12        17.72177
394.57        17.72754
395.02        17.72493
395.47        17.71311
395.91        17.69091
396.36         17.6466
396.81        17.59214
397.26        17.53608
397.71        17.47629
398.15        17.42185
398.60        17.39637
399.05        17.32275
399.50        17.23925
399.95        17.32817
400.39         17.5358
400.84        17.54219
401.29        17.34085
401.74         17.1976
402.18        17.12641
402.63        16.95831
403.08        16.74954
403.53         16.6636
403.97        16.71661
404.42        16.86454
404.87        17.02604
405.32        17.06698
405.76        16.95615
406.21        16.74547
406.66        16.51794
407.11         16.4039
407.55        16.43881
408.00        16.57501
408.45        16.74595
408.90        16.82428
409.34        16.77129
409.79         16.6351
410.24        16.47755
410.68        16.37949
411.13        16.36505
411.58        16.40209
412.03        16.45928
412.47        16.48679
412.92         16.4617
413.37        16.41042
413.81        16.34493
414.26         16.2931
414.71        16.25619
415.15        16.22654
415.60        16.19978
416.05        16.18676
416.49        16.18863
416.94        16.20274
417.39        16.21461
417.83        16.19762
418.28        16.14746
418.73        16.07185
419.17        15.99492
419.62        15.95666
420.07        15.96659
420.51        16.00753
420.96        16.06102
421.41        16.09431
421.85        16.09254
422.30        16.06132
422.74        16.00492
423.19        16.00334
423.64        16.03526
424.08        15.99319
424.53        15.88722
424.98        15.86122
425.42         15.9337
425.87        15.99458
426.31        16.01646
426.76        16.07192
427.21        16.10542
427.65        15.90744
428.10        15.58377
428.54        15.46197
428.99        15.57397
429.44        15.80911
429.88        16.05595
430.33        16.07946
430.77        15.90981
431.22        15.88857
431.66        16.01283
432.11        16.02907
432.56        15.95357
433.00        15.90081
433.45        15.85341
433.89        15.90467
434.34        16.06499
434.78        15.73059
435.23        15.82859
435.67        15.77579
436.12        15.80808
436.57        15.70582
437.01        15.51021
437.46         15.4278
437.90        15.47063
438.35        15.53721
438.79        15.59347
439.24        15.64222
439.68        15.67261
440.13        15.68557
440.57        15.69004
441.02        15.71531
441.46        15.76205
441.91        15.77581
442.35        15.74912
442.80        15.83015
443.24        15.95025
443.69        15.84842
444.13         15.5774
444.58        15.46624
445.02        15.53515
445.47        15.61657
445.91        15.67901
446.36        15.74929
446.80        15.81041
447.24        15.85561
447.69        15.88812
448.13         15.9061
448.58        15.91427
449.02        15.90892
449.47        15.89539
449.91        15.87593
450.36        15.85699
450.80        15.83631
451.25        15.82003
451.69        15.80628
452.13         15.7957
452.58        15.78532
453.02        15.77082
453.47        15.74697
453.91        15.71391
454.36        15.67994
454.80        15.63997
455.24        15.58451
455.69        15.52131
456.13        15.44332
456.58        15.39092
457.02        15.39953
457.46        15.47739
457.91        15.60792
458.35        15.73141
458.79        15.75704
459.24        15.68315
459.68         15.5323
460.13        15.38194
460.57        15.30807
461.01        15.34035
461.46        15.43777
461.90        15.57216
462.34        15.68189
462.79        15.73839
463.23          15.767
463.68        15.75573
464.12         15.6959
464.56        15.59402
465.01        15.47438
465.45        15.35357
465.89        15.29806
466.34        15.31466
466.78        15.38374
467.22        15.47977
467.67        15.53968
468.11        15.55282
468.55        15.52916
468.99        15.49003
469.44        15.46892
469.88        15.47717
470.32        15.50185
470.77        15.53344
471.21         15.5614
471.65        15.57903
472.10        15.59297
472.54        15.60208
472.98        15.60905
473.42        15.61504
473.87        15.62423
474.31        15.62522
474.75        15.61678
475.20        15.60383
475.64        15.58228
476.08        15.56777
476.52        15.57524
476.97        15.60698
477.41        15.66583
477.85        15.73944
478.29        15.78346
478.74        15.80388
479.18        15.84895
479.62        15.91553
480.06         15.9725
480.50        16.02168
480.95        16.06021
481.39        16.07684
481.83        16.20975
482.27         16.2213
482.72        16.31061
483.16        16.40604
483.60        16.46411
484.04         16.4634
484.48        16.52814
484.93        16.71741
485.37        16.59683
485.81        16.68987
486.25         17.0881
486.69        16.93376
487.14        16.97232
487.58        17.39838
488.02        17.49586
488.46        17.17525
488.90        17.33177
489.34        17.41863
489.79        17.63926
490.23        17.75349
490.67        17.78387
491.11        17.75889
491.55        17.80557
491.99        17.93626
492.43         18.0319
492.88        18.09083
493.32         18.1867
493.76        18.31868
494.20        18.45327
494.64         18.5919
495.08        18.72859
495.52         18.8447
495.96        18.98561
496.41        19.13042
496.85        19.10458
497.29        18.96912
497.73        19.17123
498.17        19.43464
498.61        19.67915
499.05        19.77918
499.49        19.87212
499.93        19.91367
500.37        20.02511
500.82        20.18228
501.26        20.29248
501.70        20.35108
502.14        20.42399
502.58        20.53152
503.02        20.66553
503.46        20.82409
503.90        21.00888
504.34        21.17456
504.78        21.24502
505.22        21.20774
505.66        21.08811
506.10        20.94724
506.54        20.88314
506.98        20.92208
507.42        21.03808
507.86        21.19067
508.30        21.31014
508.74         21.3748
509.18        21.40668
509.62        21.42617
510.06        21.46617
510.50        21.53472
510.94        21.61316
511.38        21.69254
511.82        21.76203
512.26        21.81751
512.70        21.86905
513.14        21.90942
513.58        21.92449
514.02        21.91681
514.46        21.89044
514.90        21.87523
515.34        21.91996
515.78        22.02959
516.22        22.18413
516.66        22.34043
517.10        22.42916
517.54        22.43266
517.98        22.37328
518.42        22.27837
518.86         22.1936
519.30        22.13636
519.74        22.09342
520.18        22.06601
520.62        22.05503
521.06        22.05757
521.50        22.07836
521.93        22.10205
522.37        22.09243
522.81        22.04613
523.25        21.96936
523.69        21.88786
524.13        21.84358
524.57        21.84345
525.01        21.87318
525.45        21.90364
525.89        21.88808
526.32        21.81385
526.76         21.7027
527.20        21.58023
527.64        21.48748
528.08        21.43586
528.52        21.41282
528.96        21.40293
529.40        21.38244
529.83        21.34353
530.27        21.29536
530.71          21.245
531.15        21.20485
531.59          21.179
532.03        21.16265
532.46        21.14472
532.90        21.12402
533.34         21.0962
533.78        21.05183
534.22        21.00192
534.66        20.98915
535.09        21.00017
535.53        20.97873
535.97        20.92286
536.41         20.8847
536.85        20.86764
537.28        20.84365
537.72        20.82198
538.16        20.83239
538.60        20.87719
539.04        20.94513
539.47        21.02378
539.91        21.10781
540.35        21.18832
540.79        21.26917
541.22        21.34286
541.66        21.40799
542.10        21.46905
542.54        21.51292
542.97        21.54709
543.41        21.64711
543.85        21.82532
544.29        21.85893
544.72        22.09982
545.16        22.23896
545.60        22.37535
546.04        22.50618
546.47        22.64013
546.91        22.77975
547.35        22.92013
547.79        23.06248
548.22        23.19875
548.66        23.31316
549.10        23.43257
549.53        23.55252
549.97        23.68023
550.41        23.77186
550.84        23.85416
551.28        23.99142
551.72        24.16102
552.15        24.34621
552.59        24.56982
553.03        24.47306
553.46        24.79288
553.90        24.89056
554.34         24.9831
554.77        25.07265
555.21        25.17127
555.65        25.27713
556.08        25.38042
556.52        25.46581
556.96         25.5339
557.39         25.6557
557.83        25.81011
558.27        25.84461
558.70        25.77143
559.14        25.76692
559.57        25.82282
560.01        25.82145
560.45        25.77883
560.88        25.79844
561.32        25.90005
561.75        26.02588
562.19        26.16676
562.63        26.30224
563.06        26.41821
563.50        26.52392
563.93        26.59966
564.37        26.68394
564.80        26.78919
565.24        26.83923
565.68        26.78876
566.11        27.15182
566.55        26.95608
566.98        27.01137
567.42        27.07088
567.85         27.1696
568.29        27.31911
568.72        27.52875
569.16         27.7963
569.60        27.96344
570.03         28.1226
570.47        28.25376
570.90        28.40574
571.34        28.41635
571.77        28.62841
572.21        28.81806
572.64        29.03268
573.08        29.07766
573.51        29.00927
573.95        29.12623
574.38        29.46119
574.82        29.50818
575.25        29.39001
575.69        29.41786
576.12        29.59265
576.56        29.61217
576.99        29.61493
577.42        29.43419
577.86        29.76209
578.29        30.02543
578.73        29.84966
579.16        29.75232
579.60        29.54014
580.03        29.58426
580.47         29.4967
580.90        29.64142
581.33        29.40913
581.77        29.72523
582.20        29.29988
582.64        29.19042
583.07        29.11276
583.51        28.89865
583.94        28.63544
584.37        28.62546
584.81        28.61756
585.24        28.55852
585.68        28.35915
586.11        28.43784
586.54        28.25245
586.98        28.11407
587.41        27.91554
587.85        27.91317
588.28         27.6719
588.71        27.93027
589.15        27.73956
589.58        27.65125
590.01        27.73838
590.45        27.83086
590.88        27.96811
591.31        27.87158
591.75        27.64029
592.18        27.51691
592.61        27.54111
593.05        27.99508
593.48        28.37758
593.91        28.23726
594.35        28.16724
594.78        28.06411
595.21        28.17614
595.65        28.34332
596.08        28.61522
596.51        28.81724
596.94        28.84994
597.38        28.99123
597.81        29.19138
598.24        29.63317
598.68        29.69929
599.11        29.87954
599.54        30.54408
599.97        30.34955
600.41        30.83911
600.84        30.83103
601.27          31.197
601.70        31.46686
602.14        31.74078
602.57        32.04676
603.00        32.46004
603.43        32.52319
603.87        33.43099
604.30        33.80345
604.73        34.09986
605.16         34.0147
605.60        34.46552
606.03        34.69542
606.46          34.976
606.89        35.09116
607.32        35.86864
607.76        36.16183
608.19        36.49564
608.62         36.8093
609.05        37.27114
609.48        37.41083
609.92        37.67968
610.35        38.20467
610.78        38.02216
611.21        38.06507
611.64        38.60308
612.07        39.04363
612.50         39.2947
612.94        39.60946
613.37         39.9222
613.80        39.98348
614.23        39.88793
614.66        40.09708
615.09        40.59653
615.52         40.9091
615.96        40.99549
616.39        41.22729
616.82        41.63094
617.25        41.58816
617.68        41.86794
618.11        42.01669
618.54        42.25795
618.97        42.44977
619.40        42.58204
619.84         42.8129
620.27        42.74504
620.70        42.93045
621.13        43.21115
621.56        42.95101
621.99        42.77515
622.42        42.67735
622.85         42.8022
623.28        42.92473
623.71        42.94493
624.14        43.27035
624.57        43.35134
625.00        43.10621
625.43        43.38091
625.86        43.35477
626.29        43.35925
626.72        42.98507
627.15        43.14047
627.58        42.99387
628.01        42.73285
628.44        42.72562
628.87        42.36678
629.30         42.0158
629.73        41.49243
630.16        41.64698
630.59        41.18965
631.02        41.15209
631.45        41.11611
631.88         40.9798
632.31        40.69418
632.74        40.54193
633.17        40.11028
633.60        39.74548
634.03         39.3358
634.46        38.88968
634.89        38.43119
635.32        38.01875
635.75         37.6712
636.18        37.33491
636.61        37.00534
637.04        36.69026
637.47        36.37962
637.89        36.06594
638.32        35.73258
638.75        35.39177
639.18        35.05175
639.61        34.71581
640.04        34.40065
640.47        34.12896
640.90        33.90462
641.33         33.7235
641.76        33.57454
642.18        33.44321
642.61        33.31358
643.04        33.19128
643.47        33.08358
643.90        33.00256
644.33        32.95013
644.76         32.9252
645.18        32.91394
645.61        32.88536
646.04        32.84438
646.47        32.80809
646.90        32.81342
647.33        32.91528
647.75        33.10989
648.18        33.39637
648.61        33.75893
649.04        34.06758
649.47        34.26127
649.89        34.84676
650.32        34.90247
650.75        35.16138
651.18        35.39527
651.61        35.71801
652.03        36.16167
652.46        36.65482
652.89        37.13431
653.32        37.54239
653.74        37.99689
654.17        37.81945
654.60        38.79712
655.03        38.88681
655.46        38.98641
655.88        39.30534
656.31        41.12232
656.74        42.31499
657.16        42.55402
657.59        42.79265
658.02        41.61277
658.45        41.84333
658.87        41.99493
659.30        42.69199
659.73        42.45121
660.15         43.3226
660.58        43.04585
661.01        43.12178
661.44        43.12651
661.86        43.30892
662.29        43.60644
662.72        44.28037
663.14        44.40793
663.57        44.45116
664.00        44.30212
664.42        44.45393
664.85        44.95113
665.27        45.53244
665.70        46.02786
666.13           46.32
666.55        46.36398
666.98        46.15019
667.41        45.81093
667.83        45.85705
668.26        45.87205
668.69        46.17966
669.11        46.55228
669.54        46.84939
669.96        47.02659
670.39         47.1271
670.82        47.20272
671.24        47.31109
671.67        47.46735
672.09        47.63367
672.52        47.79298
672.94        47.89767
673.37        47.94612
673.80        47.95384
674.22        47.96117
674.65        48.00206
675.07        48.10154
675.50        48.24038
675.92        48.38974
676.35        48.49353
676.77        48.54085
677.20        48.55024
677.62        48.57073
678.05        48.63867
678.47        48.75634
678.90        48.98153
679.32        49.28481
679.75        49.23929
680.17        49.43004
680.60          49.426
681.02        49.44699
681.45        49.46529
681.87        49.54369
682.30        49.80986
682.72        50.19329
683.15        50.42074
683.57        50.46424
684.00        50.43072
684.42        50.38703
684.85        50.44826
685.27        50.64083
685.70        50.85747
686.12        51.00294
686.54        51.35202
686.97        51.23339
687.39        51.19627
687.82        51.11019
688.24        51.10349
688.66        51.20271
689.09        51.38418
689.51        51.59948
689.94        51.75009
690.36        51.82213
690.78        51.76569
691.21        51.67581
691.63        51.85091
692.06        52.24539
692.48        52.47653
692.90        52.49118
693.33        52.52192
693.75        52.55945
694.17        52.40928
694.60        52.20269
695.02        52.23882
695.44        52.53151
695.87        53.04201
696.29        53.58249
696.71        53.57221
697.14        53.10093
697.56        52.92054
697.98        53.10366
698.41        53.17821
698.83        53.14704
699.25         53.3833
699.68        53.78887
700.10        53.98246
700.52        53.88187
700.94        53.91496
701.37        53.63612
701.79        53.68179
702.21        53.92193
702.64        54.28967
703.06        54.67964
703.48        54.92378
703.90        54.97911
704.33        54.89784
704.75        54.75238
705.17        54.64921
705.59        54.63088
706.01        54.66565
706.44        54.74532
706.86         54.8693
707.28        55.01608
707.70        55.19746
708.12        55.39574
708.55        55.54818
708.97         55.6535
709.39        55.75293
709.81        55.84087
710.23        55.88749
710.66        55.89286
711.08        55.89165
711.50         55.8776
711.92        55.84814
712.34        55.81352
712.76        55.78631
713.19        55.77816
713.61        55.83614
714.03        55.95528
714.45        56.12752
714.87        56.33613
715.29        56.56002
715.71        56.78367
716.13         56.9849
716.56        57.14279
716.98        57.32183
717.40        57.49213
717.82        57.57715
718.24        57.64447
718.66        57.51321
719.08        57.23263
719.50        56.85978
719.92        56.51225
720.34        56.36168
720.76        56.44509
721.19         56.6909
721.61         57.0579
722.03        57.42684
722.45        57.73504
722.87        58.00528
723.29        58.18847
723.71        58.17743
724.13        57.96949
724.55        57.66009
724.97        57.38659
725.39        57.05119
725.81        57.23849
726.23         57.4487
726.65        57.74594
727.07        58.08533
727.49        58.21072
727.91         58.3268
728.33        58.39515
728.75        58.47774
729.17        58.58614
729.59        58.68805
730.01        58.77613
730.43        58.84107
730.85        58.87931
731.27        58.90674
731.69        58.91129
732.10          58.862
732.52         58.7593
732.94        58.63072
733.36        58.53055
733.78        58.42669
734.20        58.32589
734.62        58.46366
735.04        58.87308
735.46        58.48782
735.88        59.04779
736.30        59.17882
736.72         59.4037
737.13        59.72528
737.55         60.0285
737.97        60.20079
738.39        60.18125
738.81        59.86163
739.23        59.40187
739.65         59.3962
740.06         59.7823
740.48         59.9782
740.90        59.93703
741.32        60.03699
741.74        60.27523
742.16        60.42508
742.57        60.47035
742.99        60.48194
743.41        60.45988
743.83        60.36554
744.25         60.2327
744.67        60.09015
745.08        60.01596
745.50        60.14665
745.92        60.44497
746.34        60.68071
746.75        60.78051
747.17        60.79668
747.59        60.72249
748.01        60.49287
748.42         60.1906
748.84         60.0438
749.26        60.11522
749.68        60.22715
750.09        60.35169
750.51        60.75336
750.93         61.2273
751.35        61.05306
751.76        60.36434
752.18        60.03454
752.60        60.12614
753.01        60.18374
753.43        60.16474
753.85        60.16843
754.27        60.17856
754.68        60.31297
755.10        60.60086
755.52        60.41505
755.93         60.7898
756.35        60.83943
756.77        60.93413
757.18        61.04109
757.60        61.16523
758.02        61.54919
758.43        61.96952
758.85        61.50227
759.26        60.86786
759.68        60.40715
760.10        60.43597
760.51        61.16951
760.93        61.86917
761.34        61.21263
761.76        61.53324
762.18        61.34122
762.59        61.50267
763.01        61.83983
763.42        62.29355
763.84        62.51792
764.26        62.43213
764.67        62.08253
765.09        61.67682
765.50        61.55304
765.92        61.71666
766.33         61.7956
766.75        61.68976
767.16         61.5819
767.58        61.49899
768.00        61.51255
768.41        61.67532
768.83        62.01445
769.24        62.36665
769.66        62.44112
770.07        62.22885
770.49        61.77536
770.90        61.31538
771.32        61.56023
771.73        62.36599
772.15        62.68449
772.56        62.45397
772.97        62.23073
773.39        62.13931
773.80        62.19587
774.22        62.37528
774.63        62.54905
775.05        62.62358
775.46          62.691
775.88        62.70835
776.29        62.61436
776.70        62.47154
777.12        62.46045
777.53        62.61322
777.95        62.82801
778.36        63.04398
778.77        63.12673
779.19        63.06561
779.60        62.93861
780.02        62.74747
780.43        62.59477
780.84          62.544
781.26        62.21806
781.67        61.81485
782.09         62.4674
782.50        63.81806
782.91          63.854
783.33        62.86068
783.74        62.53435
784.15        62.99027
784.57        63.25566
784.98        63.27577
785.39        63.12729
785.81        62.93799
786.22        63.37725
786.63        64.23656
787.04        64.37376
787.46        63.82522
787.87        63.50531
788.28        63.54012
788.70        63.50238
789.11        63.39867
789.52        63.61489
789.93        64.02079
790.35        63.99104
790.76        63.60292
791.17        63.56583
791.58         63.8949
792.00        63.94905
792.41        63.72144
792.82        63.81748
793.23        64.10805
793.65         63.7265
794.06        62.97433
794.47        63.06326
794.88         63.7705
795.29        64.78104
795.71        64.01305
796.12        64.07046
796.53         64.3801
796.94        64.12549
797.35        63.49918
797.76        63.77035
798.18        64.78755
798.59        65.21788
799.00          64.938
799.41        64.66395
799.82        64.54202
800.23        64.49361
800.64        64.56278
801.06        64.73563
801.47        64.94653
801.88        65.00364
802.29         64.8558
802.70        64.54411
803.11        64.17914
803.52        63.94585
803.93        63.91723
804.34        64.06324
804.75        64.28021
805.17        64.46828
805.58        64.64545
805.99        64.54396
806.40        64.30949
806.81        64.92004
807.22        66.04309
807.63        65.86919
808.04        64.59251
808.45        64.08531
808.86        64.48123
809.27        64.74993
809.68        64.75864
810.09         64.7877
810.50        64.80679
810.91        64.73485
811.32        64.67601
811.73        64.79964
812.14        65.12693
812.55        65.60947
812.96        66.08305
813.37        66.23473
813.78        65.98669
814.19        65.46662
814.60        64.85046
815.01        64.36746
815.42        64.07919
815.83         63.9228
816.24        63.88189
816.65        63.92347
817.05        64.02864
817.46        64.19106
817.87        64.38187
818.28        64.50302
818.69        64.53863
819.10        64.49242
819.51        64.43837
819.92        64.53693
820.33        64.81627
820.74        65.17333
821.14        65.51186
821.55        65.76926
821.96        65.86169
822.37        65.63097
822.78        65.17448
823.19        64.85398
823.60        64.74403
824.00        64.70518
824.41        64.67037
824.82        64.68822
825.23        64.73694
825.64        64.81172
826.04        64.90656
826.45        64.96461
826.86        64.98798
827.27        64.99949
827.68        64.98365
828.08         64.9455
828.49        64.84716
828.90        64.69854
829.31        64.60084
829.72        64.72353
830.12        65.10646
830.53        65.64288
830.94        66.13723
831.35        66.20782
831.75        65.78767
832.16        64.99098
832.57         64.0913
832.97        63.50176
833.38        63.34672
833.79         63.4926
834.20        63.84011
834.60        64.22341
835.01         64.5707
835.42        64.97134
835.82        65.35673
836.23        65.52617
836.64        65.47383
837.04        65.19812
837.45         64.9284
837.86         65.1177
838.26         65.8655
838.67        67.00492
839.08        68.13748
839.48        68.50386
839.89        67.91446
840.29        66.65197
840.70        65.30087
841.11         64.5261
841.51        64.50249
841.92        65.01132
842.33        65.81844
842.73        66.50437
843.14        66.80086
843.54        66.87968
843.95        66.83556
844.35        66.87019
844.76        67.02025
845.17        67.19836
845.57        67.32075
845.98        67.24549
846.38        66.97095
846.79        66.55664
847.19        66.12721
847.60        65.84927
848.00        65.77511
848.41        65.82658
848.81        65.94756
849.22        65.95957
849.62        65.85837
850.03        65.70499
850.43        65.53784
850.84        65.35107
851.24        65.20552
851.65        65.01994
852.05          64.991
852.46        65.35268
852.86        66.09534
853.27        67.09559
853.67         67.9521
854.07        68.22678
854.48        67.83589
854.88        66.94229
855.29        65.80433
855.69        65.03535
856.10        64.78828
856.50        64.98421
856.90        65.40006
857.31        65.66322
857.71        65.69157
858.12        65.52976
858.52        65.31808
858.92        65.17014
859.33        65.11646
859.73        65.15556
860.13        65.15392
860.54        64.93647
860.94        64.52227
861.34        63.96114
861.75        63.48267
862.15        63.48648
862.55        64.02676
862.96        64.95431
863.36        65.98283
863.76        66.54036
864.17        66.45532
864.57        65.91655
864.97        65.16465
865.38        64.60018
865.78        64.37321
866.18        64.35495
866.58           64.47
866.99        64.58501
867.39        64.65992
867.79        64.75374
868.19        64.84863
868.60        64.86601
869.00        64.82275
869.40        64.69638
869.80        64.55157
870.21        64.52945
870.61        64.72049
871.01        65.03805
871.41        65.33708
871.81        65.41417
872.22        65.22699
872.62        64.81771
873.02        64.36372
873.42        64.16142
873.82        64.28731
874.22        64.66444
874.63        65.04858
875.03        65.07359
875.43        64.65294
875.83        63.90404
876.23        63.13206
876.63        62.80234
877.03        63.01779
877.44         63.6243
877.84        64.32043
878.24         64.6067
878.64        64.32133
879.04         63.5062
879.44        62.59257
879.84        62.34482
880.24        62.86719
880.64         63.8535
881.04        64.87171
881.44        65.24342
881.84        64.79208
882.24        63.76814
882.65        62.54822
883.05        61.70425
883.45        61.41846
883.85        61.52877
884.25        61.88546
884.65        62.23036
885.05        62.45671
885.45        62.65195
885.85        62.83568
886.25        63.02678
886.65        63.22928
887.05        63.39163
887.45        63.50323
887.85        63.57574
888.25        63.60534
888.65        63.60098
889.04        63.54415
889.44        63.42714
889.84        63.25072
890.24        63.03595
890.64        62.83826
891.04        62.74719
891.44        62.78212
891.84         62.9142
892.24        63.09452
892.64        63.24085
893.04        63.34013
893.44        63.43745
893.83        63.55756
894.23        63.68742
894.63        63.84984
895.03        64.00808
895.43        64.22071
895.83        64.59928
896.23        65.11718
896.63        65.69476
897.02         66.1326
897.42        66.14005
897.82        65.67799
898.22        64.90993
898.62        64.00121
899.01        63.18729
899.41        62.58245
899.81        62.10732
900.21        61.87225
900.61        62.04456
901.00        62.60313
901.40        63.48927
901.80         64.3697
902.20        64.69742
902.59        64.37136
902.99         63.5344
903.39        62.55281
903.79        62.04947
904.18        62.17524
904.58         62.7267
904.98        63.45878
905.38        64.00354
905.77        64.24946
906.17        64.34576
906.57        64.29732
906.96        64.10606
907.36        63.80381
907.76        63.38475
908.15        63.04998
908.55        63.11509
908.95        63.62581
909.34        64.48765
909.74        65.37652
910.14        65.83057
910.53        65.69346
910.93        65.12984
911.33        64.30772
911.72        63.48001
912.12        62.83541
912.52        62.34342
912.91        62.03331
913.31        61.96329
913.70        62.12662
914.10        62.46147
914.49        63.01915
914.89        63.78369
915.29        64.69753
915.68        65.72015
916.08        66.48211
916.47        66.47074
916.87        65.64474
917.26        64.18847
917.66        62.67875
918.05        61.82551
918.45        61.79937
918.84        62.46517
919.24        63.43045
919.64        64.10734
920.03            64.3
920.42        64.12256
920.82        63.89495
921.21        64.07053
921.61        64.72113
922.00        65.70495
922.40         66.6077
922.79         66.8761
923.19        66.34996
923.58        65.28372
923.98        64.10852
924.37        63.36656
924.77        63.21595
925.16        63.47593
925.55        63.95732
925.95        64.30577
926.34        64.40869
926.74        64.35391
927.13        64.20844
927.52        64.00638
927.92        63.82275
928.31        63.61311
928.70        63.42859
929.10        63.33946
929.49        63.34449
929.89         63.3816
930.28        63.54018
930.67        63.85009
931.07        64.26928
931.46        64.85944
931.85        65.34051
932.24         65.3093
932.64        64.75368
933.03        63.76716
933.42        62.84511
933.82        62.70817
934.21        63.48249
934.60        64.99887
934.99        66.69371
935.39        67.54475
935.78        67.29695
936.17        66.15237
936.56        64.70251
936.96        63.88531
937.35        63.93725
937.74        64.57845
938.13        65.29867
938.53        65.31062
938.92        64.45947
939.31        63.08502
939.70        61.66168
940.09        60.83656
940.49        60.73787
940.88        61.17819
941.27        61.92037
941.66        62.53101
942.05        62.84787
942.44         63.0292
942.84        63.14634
943.23         63.2996
943.62        63.52416
944.01        63.68295
944.40        63.85933
944.79        64.23671
945.18        64.79959
945.57        65.51154
945.97         65.9791
946.36        65.63171
946.75        64.38289
947.14        62.54195
947.53        60.69934
947.92        59.68117
948.31        59.67225
948.70        60.43654
949.09        61.65249
949.48        62.74124
949.87        63.45742
950.26        63.91954
950.65        64.18847
951.04        64.39017
951.43        64.56179
951.82        64.60472
952.21        64.48609
952.60        64.19984
952.99        63.79017
953.38        63.35248
953.77        62.96632
954.16        62.72338
954.55        62.64069
954.94        62.65052
955.33        62.79378
955.72        63.12719
956.11        63.61641
956.50        64.25726
956.89        64.72244
957.28         64.4805
957.66        63.46639
958.05        61.90717
958.44        60.37957
958.83         59.7174
959.22        60.06035
959.61        61.17232
960.00         62.5351
960.39        63.16962
960.78        62.77523
961.16        61.67505
961.55        60.37308
961.94        59.51375
962.33        59.28696
962.72          59.522
963.11        60.04524
963.49        60.56367
963.88        60.86007
964.27        61.00689
964.66         61.1806
965.04        61.67099
965.43        62.47501
965.82        63.54623
966.21        64.43165
966.60         64.3185
966.98        63.04637
967.37        61.00616
967.76        59.02187
968.15        58.11728
968.53        58.46524
968.92        59.83471
969.31        61.58578
969.69        62.41988
970.08        61.85358
970.47        60.32284
970.86        58.70502
971.24        58.23709
971.63        59.17303
972.02        61.16547
972.40        63.50506
972.79        64.53098
973.17        63.79507
973.56        61.90014
973.95        59.76499
974.33        58.56725
974.72        58.55916
975.11        59.33213
975.49        60.52222
975.88        61.37462
976.26        61.62634
976.65        61.51725
977.04        61.14425
977.42        60.59872
977.81        59.94255
978.19        59.08674
978.58        58.39853
978.96        58.46618
979.35        59.34944
979.74        60.92031
980.12        62.65635
980.51        63.35465
980.89        62.84498
981.28        61.50285
981.66        59.97211
982.05        59.15226
982.43        59.28247
982.82        60.04766
983.20        61.37022
983.59        62.98063
983.97        64.72188
984.35        66.63498
984.74        68.17867
985.12        68.69263
985.51         67.9988
985.89        66.28887
986.28        64.34823
986.66        63.32111
987.04        63.54058
987.43        64.71796
987.81        66.29065
988.20        67.01078
988.58        66.49992
988.96        65.08603
989.35        63.39625
989.73        62.30085
990.12         61.9977
990.50        62.27792
990.88        62.65713
991.27         62.3449
991.65        61.19421
992.03        59.52876
992.42        58.06868
992.80         57.7564
993.18        58.76682
993.56        60.83731
993.95        63.15882
994.33        64.34686
994.71        63.84674
995.10        62.20935
995.48        60.28004
995.86        59.38552
996.24         59.8518
996.63        61.15354
997.01         63.0309
997.39         64.5816
997.77        65.31046
998.15        65.55672
998.54        65.19212
998.92        63.89709
999.30        61.88786
999.68        59.32766
1000.06        57.06157
1000.45        56.26607
1000.83        57.27075
1001.21        59.92846
1001.59        63.51863
1001.97        66.13642
1002.35         66.9438
1002.73        66.38236
1003.12         65.4726
1003.50        65.55585
1003.88        67.06214
1004.26        69.48576
1004.64         72.2361
1005.02        74.06594
1005.40         74.3891
1005.78        73.70583
1006.16        72.22854
1006.54        70.25291
1006.92        68.11617
1007.30        65.83914
1007.69        64.01612
1008.07         63.2775
1008.45        63.80822
1008.83        65.44319
1009.21         67.6062
1009.59        68.80547
1009.97        68.33016
1010.35        66.65884
1010.73        64.22108
1011.11        61.65013
1011.49        59.36052
1011.86        57.29856
1012.24        55.91487
1012.62        55.81407
1013.00        57.02973
1013.38        59.46601
1013.76        62.61081
1014.14        64.95263
1014.52        65.64156
1014.90        64.92987
1015.28         63.3241
1015.66         61.6668
1016.04        60.26897
1016.41        58.93359
1016.79        57.82517
1017.17        57.33881
1017.55        57.54627
1017.93        58.37526
1018.31        59.52272
1018.69        60.51191
1019.06        61.23471
1019.44        61.79657
1019.82        62.11628
1020.20        62.07171
1020.58         61.6525
1020.95        60.80849
1021.33        60.03024
1021.71        59.79247
1022.09        60.18011
1022.46         61.2938
1022.84        62.64338
1023.22        63.02335
1023.60        62.06121
1023.97        60.05814
1024.35         58.4481
1024.73        58.78857
