SpectraSmart Spectrum 2.9.0.0
--------- Device Information -----------
Spectrum Name :  反射率_0
Saving Time :  2024/04/26 23:41:13
Spectro-Module Model Name : SE2030-DUVN
Spectro-Module Serial Number : OS361AC55029948
Wavelength Start : 200
Wavelength End : 1025
Wavelength Unit : Wavelength(nm)
Spectrum Unit : Reflectance(%)
-----------Spectrum Setting ------------
Integration Time : 20ms
Average : 10
Boxcar : 0
Background removal :  enabled
linearity correction :  enabled
SC :  disabled
Intensity correction :  disabled
DWT denoise :  enabled
savitzky-golay :  disabled
FFT :  disabled
Running average :  disabled
Kalman :  disabled
High pass :  disabled
---------------BEGIN--------------------
Wavelength(nm)             Reflectance(%)
200.29               0
200.75        75.77048
201.21        66.91382
201.67        59.37963
202.13         56.2424
202.58        57.45141
203.04        62.77403
203.50        71.74326
203.96        80.52947
204.42        85.90562
204.88         88.2567
205.34        87.41077
205.80        84.82304
206.26        81.68684
206.72        77.24389
207.18        73.79545
207.64        73.53713
208.10        76.65354
208.55        84.84184
209.01        95.45131
209.47        96.67431
209.93        85.82494
210.39        71.96803
210.85        63.19805
211.31        63.52024
211.77         74.0838
212.23        102.4514
212.69        176.4113
213.14          301.99
213.60        299.4608
214.06          213.79
214.52        154.1904
214.98        125.1471
215.44        109.9993
215.90        98.37388
216.36        90.88261
216.81        90.89626
217.27        100.0266
217.73        122.3982
218.19        155.6088
218.65        172.3066
219.11        160.1494
219.57        136.0515
220.02        118.7786
220.48        118.8712
220.94        135.1398
221.40        168.6357
221.86        218.9296
222.32        254.9071
222.77        247.3122
223.23        216.3298
223.69        184.0192
224.15        163.0385
224.61        152.1113
225.06        145.4503
225.52         142.839
225.98        143.4967
226.44        146.7031
226.90        152.7481
227.36        159.6169
227.81        163.3184
228.27        163.3215
228.73        160.4974
229.19        157.8001
229.65        158.9541
230.10        163.9927
230.56        171.7333
231.02        178.9976
231.48        180.8421
231.93        176.5977
232.39        169.2405
232.85        161.8678
233.31        158.4846
233.77         159.491
234.22        163.2687
234.68        168.1447
235.14        171.5309
235.60        172.4701
236.05        171.9235
236.51        169.6378
236.97        165.8766
237.43        161.1048
237.88        155.3575
238.34        149.5956
238.80        145.8243
239.26        144.6288
239.71        146.8758
240.17         151.376
240.63        155.6187
241.08        158.1151
241.54        157.8457
242.00        157.2722
242.46        161.7667
242.91        175.5772
243.37        200.5292
243.83        236.6804
244.28        265.3909
244.74        259.7138
245.20        221.1491
245.66        176.8195
246.11        149.0991
246.57        137.7188
247.03        135.9098
247.48        135.5906
247.94        125.7206
248.40        109.3018
248.85        93.75975
249.31        82.99929
249.77        77.88343
250.22        77.18632
250.68        79.50802
251.14         85.0957
251.59        92.84174
252.05        100.4955
252.51        107.9604
252.96        112.3322
253.42        112.4463
253.88        109.4826
254.33        104.0536
254.79        101.2416
255.25        105.2772
255.70        115.4329
256.16        130.0878
256.62        142.9453
257.07        144.3458
257.53        136.9767
257.99        126.9156
258.44        119.0496
258.90        117.8945
259.35         121.434
259.81        127.7973
260.27        134.1642
260.72        137.0796
261.18        136.7728
261.63        134.2111
262.09        131.5963
262.55        130.1329
263.00        129.6546
263.46        129.9187
263.91        129.7291
264.37         128.416
264.83        125.9192
265.28        122.7313
265.74         119.968
266.19        118.2986
266.65        117.9562
267.11        118.3992
267.56        119.1439
268.02        119.4803
268.47         119.141
268.93        118.4454
269.38        117.3873
269.84        116.1192
270.30        114.6877
270.75        112.9562
271.21        111.3053
271.66        110.1925
272.12        109.6751
272.57        109.5666
273.03        109.3073
273.48         107.915
273.94        105.4155
274.39        102.1608
274.85        99.00638
275.31        96.79495
275.76        95.61235
276.22        95.21497
276.67        95.10111
277.13        94.85377
277.58        94.15599
278.04         93.2054
278.49        91.93999
278.95        90.54564
279.40        88.97279
279.86        87.37825
280.31        85.60754
280.77         83.7519
281.22        81.77142
281.68        79.87737
282.13         78.2096
282.59        77.18834
283.04        76.71798
283.50        76.70733
283.95        76.77613
284.41        76.40305
284.86        75.44848
285.32        74.14691
285.77        72.74115
286.22        71.72666
286.68        71.18517
287.13        70.87481
287.59        70.62032
288.04        70.05158
288.50        69.15556
288.95         68.0161
289.41        66.82629
289.86         65.6952
290.32        64.75048
290.77        63.90116
291.22        63.16694
291.68        62.54436
292.13        61.99226
292.59        61.54998
293.04        61.20651
293.50        60.98622
293.95        60.86362
294.40        60.82345
294.86        60.83205
295.31        60.81898
295.77        60.78619
296.22        60.73727
296.68         60.7108
297.13        60.72753
297.58        60.81427
298.04        60.96761
298.49        61.18547
298.95        61.49961
299.40        61.88242
299.85        62.31208
300.31        62.75526
300.76        63.12889
301.21        63.41367
301.67        63.63826
302.12        63.76264
302.58        63.83215
303.03        63.82472
303.48        63.78597
303.94        63.76379
304.39        63.75386
304.84        63.78913
305.30        63.87449
305.75        63.99104
306.20        64.19547
306.66        64.49043
307.11        64.81811
307.57         65.1087
308.02        65.16673
308.47        64.99091
308.93        64.65431
309.38        64.25918
309.83        64.04709
310.29        64.06668
310.74        64.23637
311.19        64.43484
311.65        64.45488
312.10        64.23295
312.55        63.83585
313.00        63.37813
313.46        63.02413
313.91        62.79314
314.36        62.65212
314.82        62.50745
315.27        62.23354
315.72         61.8048
316.18        61.29332
316.63        60.79264
317.08        60.46846
317.53        60.34717
317.99        60.35406
318.44        60.40026
318.89        60.32589
319.35        60.08085
319.80        59.71697
320.25        59.27275
320.70        58.81245
321.16        58.36649
321.61         57.9383
322.06        57.54601
322.51        57.22943
322.97         56.9851
323.42        56.80682
323.87        56.67994
324.32        56.58278
324.78        56.47579
325.23        56.39692
325.68        56.24894
326.13        55.89737
326.59        55.33596
327.04        54.62778
327.49        53.94401
327.94        53.56226
328.39         53.5346
328.85        53.76499
329.30        54.12088
329.75        54.23868
330.20        54.00952
330.66        53.52049
331.11        52.95694
331.56        52.58116
332.01        52.46838
332.46        52.52089
332.92        52.60822
333.37        52.59509
333.82        52.40073
334.27        52.10541
334.72        51.75777
335.17        51.42202
335.63         51.1343
336.08        50.90361
336.53        50.76674
336.98        50.80812
337.43        51.02848
337.88        51.38467
338.34        51.78648
338.79        52.13035
339.24        52.33916
339.69        52.43583
340.14        52.38886
340.59        52.16767
341.05        51.81033
341.50        51.33357
341.95        50.87634
342.40        50.64772
342.85        50.68976
343.30        50.94962
343.75        51.29463
344.20        51.49502
344.66        51.48906
345.11        51.33954
345.56         51.1319
346.01         51.0088
346.46         51.0132
346.91        51.09324
347.36        51.20498
347.81        51.28941
348.26        51.32341
348.72        51.32896
349.17        51.31401
349.62        51.30656
350.07        51.31068
350.52        51.31629
350.97        51.28806
351.42        51.17583
351.87         50.9784
352.32        50.72113
352.77        50.46867
353.22         50.3085
353.67        50.25623
354.13        50.28591
354.58        50.33902
355.03        50.31063
355.48        50.17183
355.93        49.94909
356.38        49.70893
356.83        49.55181
357.28        49.49166
357.73        49.48785
358.18        49.46125
358.63        49.29052
359.08        48.95146
359.53        48.49036
359.98        47.98689
360.43        47.55258
360.88        47.21402
361.33        46.94148
361.78        46.68505
362.23        46.36601
362.68        45.97411
363.13        45.54805
363.58        45.13601
364.03        44.80629
364.48        44.56811
364.93        44.38339
365.38        44.22434
365.83        44.05094
366.28        43.84635
366.73        43.63011
367.18        43.37782
367.63        43.04907
368.08        42.65036
368.53         42.1978
368.98        41.76913
369.43        41.48911
369.88        41.37923
370.33        41.39948
370.78        41.46183
371.23         41.4164
371.68        41.21877
372.13         40.9115
372.58        40.55001
373.03        40.22707
373.48        39.97061
373.93        39.74384
374.38         39.5331
374.83        39.32167
375.28        39.09935
375.72        38.87199
376.17         38.6427
376.62        38.36095
377.07        38.03101
377.52        37.67573
377.97        37.33968
378.42        37.10397
378.87        36.98323
379.32        36.93317
379.77        36.93309
380.22        36.95062
380.67        36.96099
381.11        36.98671
381.56        36.93151
382.01        36.68283
382.46        36.24706
382.91        35.68254
383.36        35.15086
383.81         34.8725
384.26        34.87632
384.71        35.09647
385.15        35.38899
385.60        35.50496
386.05        35.37509
386.50        35.07033
386.95        34.70602
387.40        34.46411
387.85        34.38708
388.29        34.38747
388.74        34.42295
389.19        34.35474
389.64        34.15933
390.09        33.88078
390.54        33.58761
390.98        33.38103
391.43        33.30714
391.88         33.3208
392.33        33.35902
392.78        33.33402
393.23        33.22821
393.67        33.05804
394.12          32.898
394.57        32.79021
395.02        32.74405
395.47        32.72892
395.91        32.72287
396.36        32.67696
396.81        32.59702
397.26          32.508
397.71        32.41167
398.15        32.32766
398.60        32.29956
399.05        32.18553
399.50         32.0361
399.95        32.16314
400.39        32.46425
400.84        32.35186
401.29        31.86844
401.74         31.5911
402.18        31.56255
402.63        31.44572
403.08        31.26022
403.53         31.1747
403.97        31.19234
404.42        31.27577
404.87        31.36196
405.32        31.34563
405.76        31.20316
406.21         30.9796
406.66        30.75826
407.11        30.67364
407.55        30.76146
408.00        30.96858
408.45        31.20513
408.90        31.29481
409.34        31.18701
409.79        30.94578
410.24        30.67391
410.68        30.50834
411.13        30.48832
411.58        30.56922
412.03        30.68246
412.47          30.713
412.92        30.61952
413.37        30.45684
413.81        30.28374
414.26        30.20947
414.71        30.24197
415.15        30.35211
415.60        30.47983
416.05        30.55467
416.49        30.55374
416.94        30.50124
417.39        30.42023
417.83        30.34062
418.28        30.27609
418.73        30.20995
419.17        30.16642
419.62        30.18705
420.07        30.27299
420.51        30.40598
420.96        30.53254
421.41        30.56049
421.85        30.46527
422.30        30.26506
422.74        30.02007
423.19        29.95296
423.64        30.03895
424.08        30.06343
424.53        29.99028
424.98        29.98774
425.42        30.06659
425.87        30.04649
426.31        29.95577
426.76         30.0539
427.21        30.26194
427.65        30.14045
428.10        29.78763
428.54        29.67442
428.99        29.83451
429.44        30.11728
429.88        30.38533
430.33        30.30473
430.77        29.95831
431.22        29.94532
431.66          30.242
432.11        30.33236
432.56         30.2242
433.00         30.2214
433.45         30.2421
433.89         30.2108
434.34        30.19933
434.78        29.49585
435.23        29.70418
435.67        29.68196
436.12         29.8311
436.57        29.90156
437.01        29.86989
437.46        29.84797
437.90         29.8135
438.35        29.66982
438.79        29.46271
439.24        29.35211
439.68        29.35596
440.13        29.43281
440.57        29.53783
441.02        29.60974
441.46        29.62095
441.91        29.55456
442.35        29.43802
442.80        29.51829
443.24        29.71676
443.69        29.70534
444.13        29.50069
444.58        29.43018
445.02        29.49984
445.47        29.53049
445.91        29.51339
446.36        29.52774
446.80        29.56407
447.24        29.60199
447.69        29.62684
448.13        29.60443
448.58        29.53765
449.02        29.43531
449.47        29.32713
449.91        29.24254
450.36        29.20125
450.80        29.18878
451.25        29.20181
451.69        29.21257
452.13        29.21727
452.58        29.21572
453.02        29.21231
453.47        29.21834
453.91        29.23394
454.36        29.25947
454.80        29.26788
455.24        29.21771
455.69        29.11596
456.13        28.96154
456.58        28.82913
457.02        28.78535
457.46        28.85179
457.91         29.0011
458.35         29.1497
458.79         29.1757
459.24        29.07946
459.68        28.88954
460.13        28.70609
460.57        28.60982
461.01        28.64325
461.46        28.75113
461.90        28.91514
462.34        29.08458
462.79        29.22247
463.23        29.34994
463.68        29.41812
464.12        29.36548
464.56        29.18915
465.01        28.95357
465.45        28.69264
465.89         28.5304
466.34        28.48465
466.78        28.51533
467.22        28.60133
467.67        28.67456
468.11         28.7259
468.55        28.76271
468.99        28.78009
469.44        28.76615
469.88        28.72655
470.32        28.65828
470.77         28.5898
471.21        28.57556
471.65        28.62224
472.10         28.7164
472.54        28.81988
472.98        28.87945
473.42        28.88128
473.87        28.85246
474.31        28.79474
474.75        28.73863
475.20        28.70157
475.64        28.66309
476.08        28.63914
476.52        28.63994
476.97        28.66437
477.41        28.72498
477.85        28.80563
478.29        28.83506
478.74        28.82754
479.18        28.86773
479.62        28.94779
480.06        29.00481
480.50        29.04511
480.95        29.07651
481.39        29.07356
481.83        29.27261
482.27        29.23799
482.72        29.32704
483.16        29.43619
483.60        29.50244
484.04        29.51785
484.48         29.7059
484.93        30.03904
485.37        29.69699
485.81        29.88908
486.25        29.80409
486.69        30.48348
487.14        30.86798
487.58        30.63893
488.02        30.72509
488.46        30.15858
488.90        30.25617
489.34        30.44993
489.79        30.68655
490.23        30.78478
490.67         30.8148
491.11        30.81551
491.55         30.8333
491.99        30.90241
492.43        30.98403
492.88        31.09281
493.32        31.28933
493.76        31.52876
494.20        31.72037
494.64        31.85227
495.08        31.88657
495.52        31.87163
495.96        32.06084
496.41        32.39476
496.85        32.45328
497.29        32.24786
497.73        32.35582
498.17        32.37836
498.61        32.57886
499.05        32.76939
499.49        32.84502
499.93        32.73333
500.37        32.86037
500.82        33.16811
501.26        33.35076
501.70        33.38488
502.14        33.42866
502.58        33.52146
503.02        33.65718
503.46        33.84037
503.90         34.0629
504.34           34.27
504.78        34.37498
505.22        34.36045
505.66        34.25602
506.10         34.1211
506.54        34.05143
506.98        34.07508
507.42        34.16528
507.86        34.29498
508.30        34.41785
508.74        34.51465
509.18        34.59913
509.62        34.67102
510.06        34.72848
510.50         34.7734
510.94        34.80266
511.38        34.82358
511.82        34.85117
512.26        34.89164
512.70        34.94534
513.14        35.00941
513.58        35.07821
514.02         35.1459
514.46        35.20539
514.90        35.25991
515.34        35.31529
515.78        35.36882
516.22        35.42082
516.66        35.44262
517.10        35.38907
517.54        35.26142
517.98         35.0815
518.42        34.91076
518.86        34.84582
519.30        34.90498
519.74         35.0538
520.18          35.234
520.62        35.35239
521.06        35.38137
521.50        35.34899
521.93        35.27863
522.37         35.1991
522.81        35.13233
523.25        35.06602
523.69        35.01098
524.13        34.98769
524.57        34.99289
525.01        35.01658
525.45        35.03794
525.89        35.01876
526.32         34.9469
526.76        34.84937
527.20         34.7236
527.64         34.5705
528.08        34.40213
528.52        34.21981
528.96        34.07275
529.40        34.03704
529.83        34.11697
530.27        34.28812
530.71        34.46816
531.15        34.52688
531.59        34.43534
532.03        34.23319
532.46        33.98683
532.90        33.82768
533.34         33.7838
533.78        33.79693
534.22        33.82957
534.66        33.86585
535.09        33.86366
535.53        33.76696
535.97         33.6045
536.41        33.50574
536.85        33.48761
537.28        33.48136
537.72        33.49038
538.16        33.54813
538.60        33.64895
539.04          33.782
539.47        33.91137
539.91        34.00255
540.35        34.04149
540.79        34.04294
541.22          34.032
541.66        34.06152
542.10        34.14116
542.54        34.25621
542.97        34.38766
543.41        34.52073
543.85        34.64343
544.29        34.76601
544.72        34.88284
545.16        35.00737
545.60        35.13702
546.04        35.27164
546.47        35.42096
546.91         35.6005
547.35        35.80616
547.79        36.01861
548.22        36.21891
548.66         36.4007
549.10        36.58534
549.53         36.6992
549.97        36.76868
550.41        36.81542
550.84        36.89192
551.28        37.05216
551.72        37.25743
552.15        37.49378
552.59        37.79491
553.03        37.60837
553.46         38.0641
553.90         38.1754
554.34        38.27306
554.77        38.35867
555.21        38.45607
555.65        38.57194
556.08        38.69453
556.52        38.80219
556.96        38.88322
557.39        39.02472
557.83        39.19388
558.27        39.16695
558.70        38.99274
559.14        38.98426
559.57        39.13396
560.01        39.24417
560.45        39.29768
560.88         39.3913
561.32         39.5395
561.75        39.66845
562.19         39.7931
562.63        39.93024
563.06        40.06977
563.50        40.21073
563.93        40.30118
564.37        40.36549
564.80        40.42139
565.24        40.37704
565.68        40.18811
566.11        40.66566
566.55        40.36393
566.98        40.45334
567.42        40.56368
567.85        40.81156
568.29        41.16804
568.72        41.50413
569.16        41.85239
569.60        42.05448
570.03        42.23803
570.47        42.48517
570.90        42.87627
571.34        42.40493
571.77        43.00547
572.21        43.22087
572.64        43.12098
573.08        43.73692
573.51         43.2935
573.95        43.52956
574.38        43.85882
574.82        44.14769
575.25        43.81263
575.69        43.86007
576.12         44.2035
576.56        43.84245
576.99        44.01847
577.42        44.22651
577.86        44.13059
578.29        44.60738
578.73        44.61313
579.16        44.42409
579.60         43.8171
580.03        43.74101
580.47        43.66187
580.90        44.07445
581.33        44.21219
581.77        44.13083
582.20        43.62445
582.64        43.85229
583.07        43.64737
583.51        43.40094
583.94        42.95853
584.37        42.85315
584.81         43.1007
585.24        43.14309
585.68        43.00244
586.11        42.60556
586.54        42.76843
586.98        42.44525
587.41        41.86246
587.85        42.34895
588.28         41.8921
588.71         42.0909
589.15           41.72
589.58        41.79004
590.01        41.52289
590.45        41.65105
590.88        41.94354
591.31         41.9726
591.75         41.7771
592.18        41.67353
592.61        41.75048
593.05        42.13589
593.48        42.52525
593.91        42.59993
594.35        42.48113
594.78          42.241
595.21        42.06538
595.65        42.43108
596.08        43.26077
596.51        43.42933
596.94        42.87741
597.38        42.79947
597.81        43.18918
598.24        44.07183
598.68        44.16817
599.11        44.23843
599.54        45.28612
599.97        44.65287
600.41        45.45031
600.84        45.36354
601.27         45.8996
601.70        46.06793
602.14        46.59763
602.57        46.93627
603.00        47.36633
603.43        47.27437
603.87        48.43334
604.30        48.84579
604.73        49.17178
605.16        48.93646
605.60        49.67299
606.03        49.86295
606.46        49.94774
606.89        50.37754
607.32        51.11571
607.76        51.53436
608.19        51.88947
608.62        52.13305
609.05        52.43637
609.48        52.76601
609.92         53.8236
610.35        53.88563
610.78        53.39618
611.21        54.24764
611.64        54.17997
612.07         54.7459
612.50        54.94732
612.94        55.19048
613.37        55.32019
613.80         55.8518
614.23        55.46676
614.66        55.79375
615.09         56.4338
615.52        56.84351
615.96        56.89142
616.39        57.45494
616.82        57.83704
617.25        57.35874
617.68        57.72121
618.11        57.91901
618.54        58.43489
618.97        58.60702
619.40        58.46185
619.84        58.71753
620.27        58.81945
620.70        59.09087
621.13        59.28734
621.56        59.04872
621.99        58.48051
622.42        58.47212
622.85        58.88434
623.28        58.63265
623.71        58.87536
624.14        58.67284
624.57        59.15827
625.00        58.96803
625.43        59.05648
625.86        59.03918
626.29        59.19158
626.72        58.53936
627.15        58.79855
627.58        58.55666
628.01        58.29507
628.44        58.11255
628.87        58.05689
629.30        57.58879
629.73         57.4166
630.16        57.41466
630.59        57.07201
631.02        56.88805
631.45        56.66375
631.88        56.34027
632.31        55.87734
632.74         55.8134
633.17           55.15
633.60         54.7626
634.03        54.37966
634.46        53.75726
634.89        53.36736
635.32        52.88201
635.75        52.46225
636.18        52.02647
636.61        51.60048
637.04        51.24162
637.47        50.94318
637.89        50.68266
638.32        50.41366
638.75         50.1147
639.18        49.77994
639.61        49.42131
640.04        49.06467
640.47        48.74723
640.90         48.4809
641.33        48.26138
641.76        48.07847
642.18        47.92148
642.61        47.77354
643.04        47.64439
643.47        47.55287
643.90        47.52734
644.33        47.56794
644.76        47.66348
645.18        47.77431
645.61        47.82589
646.04        47.81359
646.47        47.76556
646.90        47.74313
647.33        47.84193
647.75        48.07187
648.18         48.4346
648.61        48.90524
649.04        49.32203
649.47         49.5933
649.89        50.35786
650.32        50.32656
650.75        50.78166
651.18        51.33002
651.61        51.82025
652.03        52.25385
652.46        52.76655
652.89        53.33239
653.32        53.76284
653.74        54.23127
654.17        54.57659
654.60        55.03926
655.03        56.02165
655.46        55.75551
655.88        55.82376
656.31        58.61671
656.74        62.01401
657.16        62.27496
657.59        61.85471
658.02         59.5482
658.45        59.87354
658.87         59.6007
659.30        60.34154
659.73         60.1573
660.15        61.40014
660.58         60.8313
661.01         61.1006
661.44        61.39138
661.86        61.48333
662.29         61.3576
662.72        61.85288
663.14        61.82706
663.57        62.05156
664.00        62.22862
664.42        62.54513
664.85        63.00543
665.27        63.52964
665.70        63.98492
666.13        64.24383
666.55         64.2808
666.98        64.07056
667.41        63.72219
667.83        63.81306
668.26        63.70706
668.69        63.98109
669.11         64.4147
669.54        64.66216
669.96         64.6225
670.39        65.55303
670.82         65.3409
671.24        65.63764
671.67        65.81461
672.09         65.9528
672.52        66.06152
672.94        66.12168
673.37        66.16907
673.80        66.20938
674.22        66.25938
674.65        66.28756
675.07        66.31554
675.50        66.34757
675.92        66.40356
676.35        66.49892
676.77        66.63691
677.20          66.802
677.62        66.98955
678.05        67.19084
678.47        67.39492
678.90        67.61069
679.32            67.8
679.75        67.91878
680.17        67.95454
680.60        67.91753
681.02         67.8819
681.45        67.94331
681.87        68.13258
682.30        68.46976
682.72        68.85766
683.15        68.96127
683.57        68.81528
684.00        68.75099
684.42        68.84933
684.85        68.99106
685.27        69.18391
685.70        69.54481
686.12        69.94905
686.54        70.14668
686.97        70.09541
687.39        69.88326
687.82        69.62095
688.24        69.51011
688.66         69.6013
689.09        69.82449
689.51        70.12241
689.94        70.34521
690.36        70.43997
690.78        70.47903
691.21        70.54465
691.63        70.35873
692.06        70.63795
692.48         70.7998
692.90        70.97441
693.33        71.04717
693.75        70.99561
694.17        70.80923
694.60        70.63264
695.02        70.68648
695.44        70.97086
695.87           71.54
696.29        72.15518
696.71        71.98753
697.14        71.26016
697.56        71.14307
697.98        71.58695
698.41        72.20539
698.83        71.77782
699.25        71.95741
699.68        72.30936
700.10        72.45652
700.52        72.33769
700.94        72.10097
701.37        71.89039
701.79        71.90739
702.21        72.19171
702.64        72.64593
703.06        73.14399
703.48        73.46926
703.90        73.55578
704.33        73.46842
704.75        73.28559
705.17        73.12656
705.59        73.04922
706.01        73.02477
706.44         73.0565
706.86        73.18681
707.28        73.40034
707.70        73.63877
708.12        73.89169
708.55        74.23714
708.97        74.60316
709.39        74.71406
709.81        74.59061
710.23        74.54728
710.66         74.6087
711.08        74.61327
711.50        74.53635
711.92        74.44086
712.34        74.33939
712.76          74.244
713.19        74.16134
713.61        74.13834
714.03        74.17226
714.45        74.25677
714.87        74.42069
715.29        74.70976
715.71        75.11044
716.13        75.58419
716.56        76.01467
716.98        76.30933
717.40        76.38663
717.82        76.28373
718.24        76.05237
718.66         75.7827
719.08        75.53502
719.50        75.31922
719.92         75.1741
720.34         75.1488
720.76        75.24678
721.19        75.42904
721.61        75.71002
722.03        76.04737
722.45        76.39909
722.87        76.75079
723.29        77.00352
723.71        77.00774
724.13         76.7534
724.55        76.30388
724.97         75.8129
725.39        75.53067
725.81        75.52527
726.23        75.71812
726.65        76.02968
727.07        76.38225
727.49        76.62082
727.91        76.86693
728.33        77.06663
728.75        77.18232
729.17        77.20952
729.59        77.13622
730.01        77.03498
730.43        77.03613
730.85        77.16419
731.27        77.38573
731.69        77.60497
732.10        77.67013
732.52        77.54707
732.94        77.29172
733.36        77.03381
733.78         76.8527
734.20        76.79935
734.62        77.10806
735.04         77.7295
735.46        77.36796
735.88        78.04065
736.30        77.88682
736.72        77.94914
737.13        78.45764
737.55        79.23905
737.97        79.40528
738.39        78.91987
738.81        78.20786
739.23        77.58276
739.65         77.7774
740.06        78.57309
740.48        78.88195
740.90        78.61061
741.32        78.45719
741.74        78.52662
742.16        78.61353
742.57        78.73888
742.99        78.94051
743.41        79.14204
743.83        79.19854
744.25        79.08952
744.67        78.84871
745.08        78.59713
745.50        78.50897
745.92        78.63214
746.34        78.89404
746.75        79.18997
747.17        79.33887
747.59        79.30988
748.01         79.1738
748.42        78.98356
748.84        78.87582
749.26        78.89914
749.68        78.84056
750.09        78.75136
750.51        79.11678
750.93        79.73382
751.35        79.70576
751.76        79.11002
752.18        78.83794
752.60         78.9301
753.01        78.90352
753.43        78.71545
753.85        78.57294
754.27        78.49716
754.68        78.45853
755.10        78.48756
755.52        78.62251
755.93        78.83919
756.35        79.09417
756.77        79.39378
757.18        79.61707
757.60        79.74732
758.02        80.07353
758.43        80.44151
758.85        79.77995
759.26        79.49735
759.68        78.64182
760.10        79.14672
760.51        79.58889
760.93        80.03931
761.34        80.02265
761.76        79.92721
762.18        79.88927
762.59         80.1556
763.01        80.48625
763.42        80.93504
763.84        81.22707
764.26        81.29794
764.67        80.85886
765.09        80.19241
765.50        80.02481
765.92        80.35239
766.33        80.39999
766.75        80.04922
767.16        79.95453
767.58        80.07895
768.00        79.83739
768.41        79.43568
768.83        79.84044
769.24        80.78295
769.66        81.07028
770.07        80.66084
770.49        80.00743
770.90         79.4691
771.32        79.96974
771.73        81.24905
772.15         81.7196
772.56        81.28388
772.97        80.77704
773.39        80.45463
773.80        80.51991
774.22          80.918
774.63        81.20991
775.05        81.25445
775.46        81.36127
775.88        81.46651
776.29        81.36368
776.70        81.11498
777.12         80.9966
777.53        81.05972
777.95        81.15959
778.36        81.28249
778.77        81.36137
779.19        81.40423
779.60        81.48009
780.02        81.50818
780.43        81.49361
780.84        81.47951
781.26         80.9827
781.67          80.326
782.09        81.12399
782.50        82.91054
782.91         83.0318
783.33        81.60764
783.74        81.10479
784.15        81.62446
784.57        81.78789
784.98        81.58776
785.39        81.50061
785.81        81.62666
786.22         82.2099
786.63        83.05856
787.04        83.48024
787.46        83.40884
787.87        83.16223
788.28        82.90591
788.70         82.7492
789.11        82.72387
789.52        82.83392
789.93        82.99184
790.35        83.03049
790.76        82.92779
791.17        82.74809
791.58        82.57864
792.00        82.44681
792.41        82.39124
792.82        82.58225
793.23        82.89068
793.65        82.69144
794.06        82.18798
794.47        82.37618
794.88        83.08454
795.29        83.65026
795.71        83.18698
796.12        83.07191
796.53        83.13892
796.94        83.01972
797.35        82.82362
797.76        83.11506
798.18        83.75522
798.59        84.07696
799.00        83.98096
799.41        83.80474
799.82        83.65564
800.23        83.57643
800.64        83.60364
801.06        83.67928
801.47        83.77579
801.88        83.74407
802.29          83.547
802.70         83.2286
803.11        82.86739
803.52        82.58952
803.93        82.46886
804.34         82.4931
804.75        82.61732
805.17        82.88979
805.58        83.34937
805.99        83.51155
806.40        83.47125
806.81        84.45479
807.22        85.95953
807.63        85.52065
808.04        83.48563
808.45        82.57858
808.86        83.02696
809.27        83.36333
809.68        83.39645
810.09        83.49558
810.50        83.60305
810.91        83.62951
811.32        83.66368
811.73        83.84264
812.14        84.18305
812.55        84.63366
812.96        85.07546
813.37        85.28214
813.78        85.18801
814.19        84.88708
814.60         84.4768
815.01        84.07693
815.42        83.73064
815.83        83.40738
816.24        83.15221
816.65        83.05138
817.05        83.13683
817.46        83.36747
817.87         83.6697
818.28        83.86068
818.69        83.89696
819.10        83.79966
819.51        83.69059
819.92        83.79813
820.33        84.16265
820.74        84.69402
821.14        85.20951
821.55        85.41479
821.96        85.25058
822.37        84.81821
822.78        84.28358
823.19        83.92791
823.60        83.84663
824.00        83.98815
824.41        84.21767
824.82        84.43333
825.23        84.56995
825.64        84.67233
826.04        84.73223
826.45        84.67961
826.86        84.53661
827.27        84.32256
827.68        84.10038
828.08        84.01876
828.49        84.05675
828.90        84.19389
829.31        84.42356
829.72        84.73083
830.12        85.11131
830.53        85.48994
830.94        85.76152
831.35        85.69553
831.75        85.28162
832.16        84.58352
832.57        83.82487
832.97         83.3353
833.38        83.21083
833.79        83.33734
834.20        83.65501
834.60         84.0537
835.01        84.47328
835.42        84.99539
835.82        85.48597
836.23        85.61534
836.64        85.36237
837.04         84.7548
837.45        84.15896
837.86        84.25921
838.26        85.20785
838.67        86.76974
839.08        88.34673
839.48        88.81181
839.89        87.88797
840.29        85.99207
840.70        83.98917
841.11        82.89528
841.51        82.96181
841.92        83.86024
842.33        85.18465
842.73        86.20406
843.14        86.51423
843.54         86.3922
843.95        86.07169
844.35        85.99039
844.76        86.24216
845.17        86.65833
845.57        87.04094
845.98        87.06393
846.38        86.68219
846.79        86.01782
847.19        85.30528
847.60        84.86648
848.00        84.80801
848.41        85.01151
848.81         85.3395
849.22        85.45969
849.62        85.33765
850.03        85.06274
850.43        84.79756
850.84        84.71676
851.24        84.92736
851.65        85.26982
852.05        85.77558
852.46        86.34779
852.86        86.90838
853.27        87.46558
853.67        87.81097
854.07        87.81049
854.48        87.43385
854.88        86.76078
855.29        85.93426
855.69        85.40269
856.10        85.22455
856.50         85.3961
856.90        85.71834
857.31        85.86411
857.71         85.7929
858.12        85.51257
858.52        85.18938
858.92        84.96171
859.33        84.86281
859.73        84.90382
860.13        84.94276
860.54        84.78118
860.94         84.4423
861.34        83.98412
861.75         83.6056
862.15        83.67467
862.55        84.23194
862.96        85.10622
863.36        86.09075
863.76        86.72633
864.17        86.84586
864.57        86.59322
864.97        86.05838
865.38        85.40627
865.78        84.75525
866.18        84.06947
866.58        83.43913
866.99        83.02934
867.39        82.92632
867.79        83.10887
868.19        83.48117
868.60        83.83078
869.00        84.12116
869.40        84.35623
869.80        84.55702
870.21        84.77451
870.61        85.06979
871.01        85.33108
871.41        85.44551
871.81        85.27229
872.22        84.79682
872.62        84.07929
873.02        83.32142
873.42         82.8546
873.82        82.78191
874.22        83.02747
874.63        83.39065
875.03        83.55575
875.43        83.42245
875.83        83.08133
876.23        82.70476
876.63        82.55826
877.03        82.70039
877.44        83.01617
877.84        83.36069
878.24        83.46761
878.64        83.24541
879.04        82.71509
879.44        82.11156
879.84        81.83754
880.24         81.9483
880.64        82.30042
881.04        82.63464
881.44        82.53975
881.84        81.94336
882.24        81.02397
882.65        80.08377
883.05         79.5729
883.45        79.61867
883.85        80.08086
884.25        80.79146
884.65        81.45897
885.05        81.94474
885.45        82.30045
885.85        82.53461
886.25        82.67154
886.65         82.7302
887.05        82.68663
887.45        82.54066
887.85         82.3185
888.25        82.04619
888.65        81.74592
889.04        81.47364
889.44        81.33237
889.84        81.31999
890.24        81.40891
890.64        81.52561
891.04        81.54471
891.44        81.43899
891.84        81.26332
892.24        81.06529
892.64        80.90838
893.04        80.83625
893.44        80.85539
893.83        81.01744
894.23        81.34311
894.63        81.83794
895.03        82.43619
895.43        83.09626
895.83        83.76434
896.23        84.35577
896.63        84.81508
897.02        84.98492
897.42        84.66252
897.82        83.86257
898.22        82.75668
898.62        81.53728
899.01        80.46304
899.41        79.67403
899.81        79.10387
900.21         78.8776
900.61        79.17613
901.00        79.95814
901.40        81.11693
901.80        82.28208
902.20        82.85604
902.59         82.7083
902.99        81.99017
903.39        81.00463
903.79         80.2783
904.18        79.98484
904.58        79.99367
904.98        80.24117
905.38        80.63069
905.77        81.10353
906.17        81.72356
906.57         82.3472
906.96        82.71498
907.36        82.74844
907.76        82.49764
908.15         82.2066
908.55        82.26592
908.95        82.76134
909.34        83.57938
909.74        84.39257
910.14        84.76968
910.53        84.57096
910.93        83.97048
911.33        83.16571
911.72        82.43787
912.12        81.96645
912.52          81.681
912.91        81.53936
913.31        81.50492
913.70        81.55704
914.10        81.69034
914.49        81.98939
914.89        82.47419
915.29        83.13501
915.68        83.91221
916.08        84.55657
916.47        84.76788
916.87        84.49396
917.26        83.80913
917.66          83.007
918.05        82.36419
918.45        81.98373
918.84        81.85156
919.24        81.82707
919.64        81.81831
920.03        81.80611
920.42        81.78681
920.82        81.88027
921.21        82.20488
921.61        82.73911
922.00         83.4695
922.40        84.13939
922.79        84.48605
923.19        84.40668
923.58        84.01775
923.98        83.55712
924.37         83.3042
924.77        83.35003
925.16        83.54633
925.55        83.82966
925.95        84.05798
926.34        84.17968
926.74        84.23077
927.13        84.07343
927.52         83.4134
927.92        82.32268
928.31         80.9215
928.70        79.61686
929.10        78.98995
929.49        79.14526
929.89        79.85072
930.28        80.91984
930.67        81.86678
931.07        82.45658
931.46        82.89809
931.85        83.03507
932.24        82.69585
932.64        81.97409
933.03        80.88296
933.42        79.93207
933.82        79.87453
934.21        80.83208
934.60        82.64864
934.99        84.71979
935.39        85.91562
935.78        85.94604
936.17        85.00264
936.56         83.6642
936.96        82.86717
937.35         82.8623
937.74        83.37401
938.13         83.9349
938.53        83.83483
938.92        82.94393
939.31         81.6014
939.70        80.26588
940.09        79.55283
940.49         79.5687
940.88        80.12968
941.27        81.00769
941.66        81.78131
942.05        82.27703
942.44        82.64598
942.84        82.89599
943.23        83.03091
943.62         83.0905
944.01        82.98899
944.40        82.92999
944.79        83.29551
945.18        84.11046
945.57        85.25216
945.97        86.23175
946.36        86.32748
946.75         85.3535
947.14        83.65479
947.53        81.76025
947.92        80.41087
948.31        79.81184
948.70        79.75784
949.09        80.11572
949.48         80.6418
949.87        81.19817
950.26        81.85114
950.65        82.48479
951.04        82.89558
951.43        83.02935
951.82        82.88462
952.21        82.58266
952.60        82.36805
952.99        82.33528
953.38        82.46309
953.77        82.69289
954.16        82.92401
954.55        83.11127
954.94        83.23777
955.33        83.39847
955.72        83.74447
956.11         84.2731
956.50        84.94287
956.89        85.39666
957.28        85.05891
957.66        83.86426
958.05        82.10359
958.44        80.38429
958.83        79.56706
959.22        79.79771
959.61        80.81237
960.00        82.12924
960.39        82.83771
960.78         82.6265
961.16        81.78005
961.55        80.68371
961.94        79.77997
962.33        79.24185
962.72        78.96732
963.11        78.94546
963.49        79.21893
963.88        79.66108
964.27        80.24295
964.66        81.02151
965.04        82.13155
965.43        83.49698
965.82        85.11314
966.21        86.42804
966.60        86.43034
966.98        84.91943
967.37         82.3799
967.76        79.83092
968.15         78.5482
968.53        78.76573
968.92         80.1981
969.31        82.15888
969.69        83.23959
970.08        82.86021
970.47         81.4702
970.86        79.95734
971.24        79.57863
971.63         80.5973
972.02        82.65881
972.40        84.97834
972.79        85.70425
973.17        84.41422
973.56         81.8104
973.95        79.05723
974.33        77.64173
974.72        77.85126
975.11        79.19753
975.49         81.0788
975.88        82.21068
976.26        82.18839
976.65        81.38778
977.04        80.19832
977.42        79.16441
977.81         78.4719
978.19        77.90843
978.58         77.6552
978.96        78.01218
979.35         78.9436
979.74        80.43467
980.12        82.09912
980.51        82.92259
980.89        82.78076
981.28        81.91728
981.66        80.86911
982.05        80.43765
982.43        80.83234
982.82         81.7917
983.20        83.20939
983.59        84.69271
983.97        86.11061
984.35        87.47969
984.74        88.48135
985.12        88.85431
985.51         88.4925
985.89        87.51115
986.28        86.32156
986.66        85.47942
987.04        85.21225
987.43        85.34083
987.81        85.77842
988.20        86.11906
988.58        86.24377
988.96        86.15527
989.35        85.90691
989.73        85.52682
990.12        85.03202
990.50        84.46201
990.88         83.6834
991.27        82.56518
991.65         81.1944
992.03        79.65145
992.42        78.43864
992.80        78.14309
993.18        78.87846
993.56        80.56667
993.95         82.4239
994.33        83.18472
994.71        82.36463
995.10        80.45215
995.48        78.48854
995.86        78.14564
996.24        79.77145
996.63        82.73962
997.01         86.3493
997.39        88.62695
997.77        88.75272
998.15        87.47847
998.54        85.29668
998.92        82.78831
999.30        80.41679
999.68        77.98678
1000.06        76.29738
1000.45        76.48412
1000.83        78.76638
1001.21        83.08533
1001.59        88.11995
1001.97        90.61555
1002.35        89.43933
1002.73           85.61
1003.12        81.26619
1003.50        79.16523
1003.88        80.01457
1004.26        82.89001
1004.64        86.99666
1005.02        90.51496
1005.40         92.4231
1005.78        93.39645
1006.16        93.04734
1006.54        90.76694
1006.92        86.92673
1007.30        81.84879
1007.69        77.27395
1008.07        75.56819
1008.45         77.3609
1008.83        82.25336
1009.21        88.81408
1009.59        93.24113
1009.97        93.61091
1010.35         90.8558
1010.73        86.42274
1011.11        82.51958
1011.49        79.93993
1011.86        78.11276
1012.24        76.95282
1012.62        76.26239
1013.00        75.90257
1013.38        76.00106
1013.76        76.64095
1014.14         77.7365
1014.52        79.07191
1014.90         80.4472
1015.28        81.35626
1015.66         81.2626
1016.04        80.15719
1016.41        78.21326
1016.79        75.99007
1017.17         74.6801
1017.55        74.64735
1017.93        75.52988
1018.31        76.82426
1018.69         77.7865
1019.06        78.24161
1019.44        78.40744
1019.82        78.24798
1020.20         77.7242
1020.58         76.9017
1020.95        75.63885
1021.33        74.53388
1021.71        74.11508
1022.09        74.46687
1022.46        75.83727
1022.84        77.41985
1023.22         77.4263
1023.60        75.40703
1023.97        71.84284
1024.35        69.07915
1024.73        69.87021
