SpectraSmart Spectrum 2.9.0.0
--------- Device Information -----------
Spectrum Name :  反射率_0
Saving Time :  2024/04/26 23:33:47
Spectro-Module Model Name : SE2030-DUVN
Spectro-Module Serial Number : OS361AC55029948
Wavelength Start : 200
Wavelength End : 1025
Wavelength Unit : Wavelength(nm)
Spectrum Unit : Reflectance(%)
-----------Spectrum Setting ------------
Integration Time : 20ms
Average : 10
Boxcar : 0
Background removal :  enabled
linearity correction :  enabled
SC :  disabled
Intensity correction :  disabled
DWT denoise :  enabled
savitzky-golay :  disabled
FFT :  disabled
Running average :  disabled
Kalman :  disabled
High pass :  disabled
---------------BEGIN--------------------
Wavelength(nm)             Reflectance(%)
200.29               0
200.75        26.37013
201.21        26.04968
201.67        26.14538
202.13         25.9088
202.58        25.05982
203.04        24.05578
203.50        22.95355
203.96        22.01576
204.42        21.63085
204.88        21.61486
205.34        22.43316
205.80        24.75763
206.26        28.05219
206.72        31.42003
207.18         33.8227
207.64        34.58181
208.10        33.82462
208.55        31.85531
209.01        28.28766
209.47        25.10286
209.93        24.43419
210.39        25.48017
210.85        27.18876
211.31        29.39395
211.77        32.82969
212.23        39.80957
212.69        56.95873
213.14        87.82712
213.60        89.13544
214.06         69.7732
214.52         55.3528
214.98        47.44799
215.44        42.23981
215.90        37.20292
216.36        33.27304
216.81        32.35834
217.27         35.5751
217.73        44.47589
218.19        57.33919
218.65        61.93541
219.11        54.00735
219.57          41.529
220.02         33.5136
220.48        34.60423
220.94        44.32734
221.40        63.99416
221.86        91.93934
222.32        107.0199
222.77        94.03212
223.23        68.21792
223.69        46.14108
224.15        36.72969
224.61        36.94743
225.06        41.33955
225.52        46.79601
225.98        50.40898
226.44        51.90466
226.90        52.65091
227.36        52.90445
227.81        52.76435
228.27        52.49638
228.73        51.72751
229.19        51.05448
229.65        51.33233
230.10        52.51781
230.56        54.45561
231.02        56.18244
231.48        56.12899
231.93        54.17167
232.39        51.32542
232.85        48.68876
233.31        47.72716
233.77        48.53241
234.22         50.5039
234.68        52.91807
235.14        54.76404
235.60        55.66062
236.05        55.96733
236.51        55.54854
236.97        54.25775
237.43        52.23253
237.88        49.54966
238.34        46.92377
238.80        45.74221
239.26        46.49545
239.71        49.58883
240.17         54.4594
240.63        59.11391
241.08        62.07503
241.54        62.70485
242.00         62.2521
242.46        63.99273
242.91        70.23821
243.37        81.73254
243.83        98.04881
244.28        109.0911
244.74         102.773
245.20        82.23088
245.66        61.63367
246.11        51.78148
246.57        52.39112
247.03        59.28865
247.48        68.39657
247.94        72.06007
248.40        69.49704
248.85          64.799
249.31        60.47502
249.77        57.21923
250.22        54.52185
250.68         51.3091
251.14        47.82938
251.59        46.07642
252.05        47.45306
252.51        51.50162
252.96        55.16605
253.42         55.8136
253.88        53.84261
254.33        50.26276
254.79        47.96328
255.25        49.24125
255.70        53.69053
256.16        60.17759
256.62        65.64173
257.07        65.59363
257.53        61.37732
257.99        55.94585
258.44         51.4943
258.90        49.99582
259.35        50.50769
259.81        52.21897
260.27        53.97471
260.72        54.43644
261.18        53.71908
261.63        52.21606
262.09        50.81425
262.55        49.98656
263.00        49.65601
263.46        49.69851
263.91        49.59879
264.37        48.99679
264.83        47.87694
265.28        46.44106
265.74        45.21447
266.19        44.56695
266.65        44.57692
267.11        44.96627
267.56        45.42664
268.02        45.47172
268.47        44.97171
268.93        44.13798
269.38        43.08005
269.84        42.02089
270.30        41.04596
270.75        40.08025
271.21        39.27185
271.66        38.79409
272.12        38.64536
272.57        38.74422
273.03        38.83997
273.48        38.50241
273.94        37.70722
274.39        36.58629
274.85        35.43318
275.31        34.52331
275.76        33.90715
276.22        33.51583
276.67        33.26003
277.13        33.10611
277.58        32.95787
278.04        32.84584
278.49        32.65101
278.95         32.3082
279.40        31.76695
279.86        31.13653
280.31        30.42503
280.77        29.75937
281.22        29.13921
281.68        28.59049
282.13        28.12915
282.59        27.85791
283.04        27.73541
283.50        27.74811
283.95         27.7626
284.41        27.58124
284.86        27.16783
285.32        26.61347
285.77        26.04162
286.22        25.68511
286.68        25.58004
287.13        25.62041
287.59        25.70573
288.04        25.63812
288.50        25.39918
288.95        25.03736
289.41        24.65075
289.86        24.31733
290.32        24.09496
290.77        23.93835
291.22        23.84379
291.68        23.79594
292.13        23.77826
292.59        23.81544
293.04         23.9081
293.50        24.07322
293.95        24.29887
294.40        24.57294
294.86        24.87847
295.31        25.18428
295.77        25.48898
296.22        25.79715
296.68        26.11305
297.13        26.43152
297.58        26.75949
298.04        27.09039
298.49        27.44689
298.95        27.88279
299.40        28.38447
299.85        28.92615
300.31         29.4327
300.76         29.7812
301.21         29.9559
301.67        30.01716
302.12        30.01958
302.58        30.09976
303.03        30.27097
303.48        30.51185
303.94         30.8017
304.39        31.08043
304.84        31.33267
305.30        31.57481
305.75        31.77656
306.20        31.94068
306.66        32.07139
307.11        32.15331
307.57        32.18382
308.02         32.1223
308.47        31.98285
308.93        31.78906
309.38        31.58863
309.83         31.4932
310.29        31.52068
310.74        31.63849
311.19        31.75909
311.65          31.734
312.10        31.52727
312.55        31.18249
313.00        30.81095
313.46        30.57788
313.91        30.50621
314.36        30.55688
314.82        30.61572
315.27        30.50745
315.72         30.1945
316.18        29.74658
316.63         29.2877
317.08        29.02004
317.53        28.98178
317.99        29.09772
318.44         29.2494
318.89        29.23461
319.35        29.00021
319.80        28.61335
320.25         28.1638
320.70        27.79487
321.16        27.54843
321.61        27.38448
322.06        27.26102
322.51        27.11467
322.97        26.91805
323.42        26.70128
323.87        26.47607
324.32        26.25941
324.78        26.04779
325.23        25.84352
325.68        25.62281
326.13        25.36456
326.59        25.07079
327.04        24.76449
327.49        24.47712
327.94        24.25591
328.39        24.10574
328.85        24.00169
329.30        23.92912
329.75        23.81629
330.20        23.64726
330.66        23.43864
331.11        23.23201
331.56        23.07614
332.01        22.98289
332.46        22.92822
332.92        22.88099
333.37        22.82733
333.82        22.74445
334.27        22.64935
334.72        22.53708
335.17        22.39607
335.63        22.23168
336.08        22.06178
336.53         21.9235
336.98         21.8873
337.43        21.96332
337.88        22.12014
338.34        22.30543
338.79        22.45182
339.24         22.5162
339.69         22.5129
340.14        22.43028
340.59        22.25721
341.05        22.01859
341.50        21.73004
341.95        21.45122
342.40        21.27114
342.85        21.21217
343.30        21.24909
343.75        21.35384
344.20        21.47568
344.66         21.5876
345.11        21.69089
345.56        21.75638
346.01        21.74195
346.46        21.65043
346.91        21.50257
347.36        21.33663
347.81        21.21939
348.26        21.16843
348.72         21.1583
349.17        21.19082
349.62        21.27647
350.07        21.40093
350.52        21.56372
350.97        21.67971
351.42        21.61273
351.87        21.35055
352.32         20.9425
352.77        20.52689
353.22        20.30981
353.67        20.33137
354.13        20.53374
354.58        20.79474
355.03        20.90979
355.48        20.82258
355.93        20.59943
356.38         20.3382
356.83        20.18613
357.28         20.1754
357.73        20.24648
358.18         20.3333
358.63        20.33556
359.08        20.22296
359.53        20.03553
359.98        19.80646
360.43        19.57789
360.88        19.36698
361.33         19.1618
361.78        18.96494
362.23        18.78463
362.68        18.62491
363.13        18.49107
363.58        18.37964
364.03        18.27889
364.48        18.18334
364.93        18.09234
365.38        18.00637
365.83        17.92827
366.28        17.85864
366.73        17.79543
367.18        17.73211
367.63        17.66104
368.08         17.5784
368.53        17.48081
368.98        17.37893
369.43        17.29003
369.88        17.21548
370.33        17.15298
370.78        17.07558
371.23        16.93879
371.68        16.74055
372.13        16.50212
372.58        16.27464
373.03        16.13656
373.48        16.10477
373.93        16.15256
374.38        16.23447
374.83        16.27746
375.28        16.25426
375.72        16.17461
376.17         16.0665
376.62        15.95336
377.07        15.84562
377.52        15.73806
377.97        15.62107
378.42        15.48432
378.87        15.33234
379.32        15.17442
379.77         15.0409
380.22        14.97061
380.67        14.96475
381.11        15.01362
381.56        15.06241
382.01        15.03341
382.46        14.91187
382.91        14.72887
383.36        14.53757
383.81        14.41167
384.26        14.36388
384.71          14.368
385.15        14.39473
385.60        14.39985
386.05        14.36727
386.50        14.31567
386.95        14.25094
387.40        14.18156
387.85        14.11402
388.29        14.03398
388.74        13.97074
389.19         13.9355
389.64        13.92552
390.09        13.93232
390.54        13.93108
390.98        13.87762
391.43        13.77485
391.88        13.63969
392.33         13.4986
392.78        13.38747
393.23        13.31623
393.67         13.2699
394.12        13.25242
394.57         13.2421
395.02         13.2328
395.47        13.22466
395.91        13.22489
396.36        13.23592
396.81        13.26192
397.26        13.29549
397.71        13.31656
398.15        13.30673
398.60        13.28041
399.05        13.19204
399.50        13.07398
399.95        13.06747
400.39         13.1365
400.84        13.04005
401.29        12.80486
401.74        12.67587
402.18          12.672
402.63        12.65858
403.08        12.62914
403.53        12.62875
403.97        12.65186
404.42        12.68307
404.87        12.70809
405.32        12.70387
405.76        12.66257
406.21        12.59572
406.66        12.51858
407.11        12.45782
407.55        12.42427
408.00        12.40647
408.45        12.39203
408.90        12.35372
409.34        12.28621
409.79        12.20196
410.24        12.12367
410.68        12.07649
411.13        12.06835
411.58        12.09129
412.03        12.12004
412.47        12.11284
412.92        12.05742
413.37        11.97185
413.81        11.89001
414.26         11.8704
414.71        11.91771
415.15        12.01565
415.60         12.1238
416.05         12.1795
416.49        12.16312
416.94         12.0927
417.39        11.99858
417.83        11.92681
418.28        11.89145
418.73        11.87909
419.17        11.87983
419.62        11.87829
420.07        11.86858
420.51        11.85323
420.96        11.83782
421.41        11.82659
421.85        11.81439
422.30        11.79438
422.74        11.75388
423.19        11.72969
423.64         11.7031
424.08        11.60844
424.53        11.46713
424.98        11.40754
425.42        11.45167
425.87        11.51078
426.31          11.564
426.76         11.6632
427.21        11.76129
427.65        11.70149
428.10        11.53427
428.54        11.46117
428.99        11.50296
429.44         11.5941
429.88        11.67779
430.33        11.62403
430.77        11.46174
431.22        11.42038
431.66        11.49621
432.11        11.48046
432.56        11.37744
433.00        11.34673
433.45         11.3475
433.89        11.23117
434.34        11.08485
434.78        10.84577
435.23        11.12798
435.67        11.21818
436.12        11.26429
436.57        11.29493
437.01        11.30152
437.46        11.27636
437.90        11.21365
438.35        11.08741
438.79        10.94037
439.24        10.87246
439.68        10.89847
440.13        10.98978
440.57        11.10478
441.02        11.18207
441.46         11.1993
441.91        11.14681
442.35        11.05677
442.80        11.08145
443.24        11.18154
443.69        11.15396
444.13        11.01271
444.58         10.9589
445.02        10.99727
445.47        11.02185
445.91        11.02149
446.36        11.03054
446.80        11.04265
447.24        11.04719
447.69        11.04594
448.13        11.03693
448.58        11.02278
449.02        11.00357
449.47        10.97889
449.91        10.94336
450.36        10.90035
450.80        10.85006
451.25        10.80476
451.69        10.77676
452.13        10.76865
452.58        10.77575
453.02        10.78302
453.47        10.76754
453.91        10.72552
454.36        10.66704
454.80        10.60541
455.24        10.56049
455.69        10.54114
456.13         10.5316
456.58        10.53795
457.02        10.55191
457.46        10.57438
457.91        10.60645
458.35        10.62653
458.79        10.60148
459.24        10.53913
459.68        10.44447
460.13        10.36268
460.57        10.33302
461.01        10.37204
461.46        10.45571
461.90        10.56304
462.34        10.64669
462.79        10.68597
463.23         10.6969
463.68        10.67732
464.12        10.63345
464.56        10.57121
465.01        10.50327
465.45        10.43084
465.89        10.38551
466.34         10.3699
466.78        10.37472
467.22        10.39194
467.67        10.39599
468.11        10.38513
468.55        10.36185
468.99        10.33199
469.44        10.30345
469.88        10.28053
470.32        10.26158
470.77        10.24841
471.21         10.2466
471.65        10.25525
472.10        10.27437
472.54        10.29907
472.98        10.32603
473.42        10.35235
473.87        10.38069
474.31        10.40084
474.75        10.40865
475.20        10.40702
475.64        10.39432
476.08        10.38215
476.52        10.38255
476.97        10.39911
477.41        10.43402
477.85        10.48269
478.29        10.52132
478.74        10.55311
479.18        10.60584
479.62        10.67189
480.06        10.72207
480.50        10.75448
480.95        10.76992
481.39        10.75989
481.83        10.81517
482.27        10.77993
482.72         10.7923
483.16        10.81847
483.60        10.84109
484.04        10.83501
484.48        10.93055
484.93        11.19178
485.37        11.12753
485.81        11.02144
486.25        11.67728
486.69        11.48282
487.14        11.21686
487.58        11.82077
488.02        11.89036
488.46        11.45641
488.90         11.5353
489.34        11.37146
489.79        11.55168
490.23        11.76837
490.67        11.97568
491.11        12.10183
491.55          12.044
491.99        11.87237
492.43        11.82198
492.88        11.92535
493.32        12.04083
493.76        12.13955
494.20        12.25123
494.64        12.36992
495.08        12.46278
495.52        12.53721
495.96        12.68775
496.41        12.88783
496.85        12.93479
497.29        12.85404
497.73        12.99044
498.17        13.15506
498.61        13.26424
499.05        13.25224
499.49        13.26171
499.93        13.27475
500.37        13.36049
500.82        13.49467
501.26        13.60012
501.70        13.66709
502.14        13.74405
502.58          13.845
503.02        13.96383
503.46        14.09874
503.90        14.24885
504.34        14.38072
504.78         14.4402
505.22        14.41907
505.66        14.33602
506.10        14.23852
506.54        14.20237
506.98         14.2469
507.42        14.35122
507.86        14.48147
508.30        14.57943
508.74        14.62721
509.18        14.64356
509.62        14.64505
510.06         14.6586
510.50        14.69263
510.94        14.73385
511.38        14.77956
511.82        14.82756
512.26        14.87558
512.70        14.92896
513.14        14.97777
513.58        15.00398
514.02        15.00598
514.46        14.98701
514.90        14.96977
515.34        14.99201
515.78        15.05884
516.22        15.15656
516.66         15.2526
517.10        15.29487
517.54        15.27146
517.98        15.19972
518.42        15.10814
518.86        15.04225
519.30        15.01671
519.74        15.01947
520.18        15.03612
520.62        15.04359
521.06         15.0346
521.50        15.01675
521.93        14.99955
522.37        14.99095
522.81        14.99447
523.25        15.00332
523.69        15.00623
524.13        14.98792
524.57        14.94508
525.01        14.88235
525.45        14.81164
525.89        14.75238
526.32        14.70846
526.76        14.67844
527.20        14.65102
527.64        14.60918
528.08        14.55054
528.52        14.48295
528.96        14.41736
529.40        14.37027
529.83        14.34442
530.27        14.33209
530.71        14.32577
531.15        14.31531
531.59        14.29668
532.03         14.2739
532.46        14.24061
532.90        14.19705
533.34        14.14363
533.78        14.07477
534.22         14.0062
534.66        13.97928
535.09        13.98795
535.53        13.99197
535.97        13.98158
536.41        13.97816
536.85        13.97885
537.28        13.96523
537.72        13.94956
538.16        13.96161
538.60        14.00511
539.04        14.07152
539.47         14.1393
539.91        14.18518
540.35        14.20206
540.79        14.19893
541.22        14.19779
541.66        14.23859
542.10        14.32581
542.54        14.44551
542.97        14.56966
543.41        14.66025
543.85        14.70792
544.29        14.73024
544.72        14.74474
545.16        14.78877
545.60        14.86948
546.04         14.9765
546.47        15.10789
546.91        15.25688
547.35         15.4139
547.79         15.5796
548.22        15.73678
548.66        15.85556
549.10        15.95234
549.53        16.02895
549.97         16.1047
550.41        16.17515
550.84        16.26466
551.28        16.40859
551.72        16.58475
552.15        16.76959
552.59        16.97406
553.03        16.95506
553.46        17.21667
553.90        17.30746
554.34        17.37759
554.77        17.42779
555.21        17.48376
555.65         17.5726
556.08        17.69118
556.52        17.82154
556.96        17.93542
557.39        18.03791
557.83        18.10879
558.27        18.05837
558.70        17.93198
559.14        17.90889
559.57        17.99442
560.01        18.08538
560.45         18.1628
560.88        18.25232
561.32        18.35462
561.75        18.44914
562.19         18.5383
562.63          18.607
563.06        18.65865
563.50         18.7266
563.93        18.79248
564.37        18.84819
564.80        18.90275
565.24        18.92923
565.68         18.8932
566.11        19.14517
566.55        19.00301
566.98        19.03143
567.42        19.07412
567.85        19.21177
568.29        19.43875
568.72        19.68301
569.16        19.93601
569.60        20.13486
570.03        20.34487
570.47        20.50787
570.90        20.63783
571.34        20.70748
571.77        20.86697
572.21        20.95083
572.64        20.98611
573.08        21.23614
573.51         21.3231
573.95        21.51716
574.38        21.67577
574.82        21.92309
575.25        21.70847
575.69        21.71867
576.12        21.80799
576.56        21.84307
576.99        21.87126
577.42        21.95924
577.86        22.11889
578.29        22.34885
578.73        22.19124
579.16        22.09567
579.60        21.90225
580.03         21.8948
580.47        21.79452
580.90        21.84441
581.33        21.70774
581.77        21.93383
582.20        21.66037
582.64        21.81341
583.07        21.57763
583.51        21.36832
583.94        21.10609
584.37        20.98061
584.81         21.0228
585.24        20.99146
585.68        20.90225
586.11        20.73958
586.54        20.76649
586.98        20.60258
587.41        20.45388
587.85        20.37657
588.28        20.45066
588.71        20.14528
589.15        20.27666
589.58        20.18822
590.01        20.18453
590.45        20.19375
590.88        20.20373
591.31         20.0798
591.75        19.90173
592.18        19.81245
592.61        19.79937
593.05        20.35076
593.48        20.42973
593.91         20.3786
594.35        20.29023
594.78        20.23761
595.21        20.34837
595.65         20.5549
596.08        20.87125
596.51        20.95426
596.94         20.9221
597.38        21.02088
597.81        21.29416
598.24         21.5268
598.68         21.7429
599.11        21.88894
599.54        22.36901
599.97        22.29899
600.41        22.86381
600.84        22.97302
601.27        23.28903
601.70        23.53176
602.14        23.79586
602.57        24.13585
603.00        24.58405
603.43        24.70224
603.87        25.41879
604.30        25.75759
604.73           26.06
605.16        26.26679
605.60        26.74096
606.03         27.0016
606.46         27.1761
606.89        27.41249
607.32        28.12769
607.76        28.48125
608.19         28.8044
608.62        29.07929
609.05        29.44718
609.48        29.78956
609.92        30.45829
610.35        30.65362
610.78        30.67171
611.21         30.7382
611.64        31.24218
612.07        31.65847
612.50        31.87355
612.94        32.16002
613.37        32.45739
613.80        32.57319
614.23        32.57706
614.66        32.79308
615.09        33.22857
615.52        33.58761
615.96        33.81806
616.39          34.126
616.82         34.5302
617.25        34.53164
617.68        34.82994
618.11        35.06881
618.54        35.42746
618.97         35.6635
619.40        35.77233
619.84        36.02897
620.27        36.08704
620.70        36.27201
621.13        36.44137
621.56        36.27455
621.99        35.86667
622.42        35.92888
622.85        36.46643
623.28        36.44663
623.71        36.41229
624.14        36.75641
624.57        36.89079
625.00        36.82059
625.43         36.8169
625.86        36.66239
626.29        36.59723
626.72        36.11206
627.15        36.29171
627.58        36.27636
628.01        36.28115
628.44        36.08615
628.87        35.71183
629.30        35.31055
629.73        34.94645
630.16        34.78979
630.59        34.47901
631.02         34.3761
631.45         34.3068
631.88        34.13671
632.31        33.82832
632.74        33.42561
633.17        32.96546
633.60        32.49804
634.03        32.04793
634.46        31.59927
634.89        31.14595
635.32        30.68764
635.75        30.22841
636.18        29.74746
636.61        29.27378
637.04        28.86255
637.47        28.51729
637.89         28.2151
638.32        27.91933
638.75        27.60118
639.18         27.2546
639.61        26.89405
640.04        26.54362
640.47        26.23693
640.90        25.98273
641.33        25.77282
641.76        25.59591
642.18        25.43814
642.61        25.28797
643.04        25.15257
643.47        25.04389
643.90        24.97899
644.33        24.95961
644.76        24.98148
645.18        25.02136
645.61        25.03641
646.04        25.02438
646.47        25.00229
646.90        25.01282
647.33        25.11674
647.75        25.31842
648.18        25.62831
648.61        26.01551
649.04        26.32381
649.47        26.51244
649.89        27.03512
650.32        27.19619
650.75        27.54142
651.18        27.88249
651.61        28.33638
652.03        28.88622
652.46         29.3715
652.89        29.79565
653.32        30.24577
653.74        30.79361
654.17        31.13972
654.60        31.54336
655.03         31.9416
655.46        32.45724
655.88        33.07664
656.31        35.43777
656.74        38.54478
657.16        38.51123
657.59        38.13681
658.02        36.56641
658.45        36.61852
658.87        36.25187
659.30        36.72775
659.73        37.05686
660.15        37.64767
660.58        37.57739
661.01        37.88835
661.44        38.36868
661.86        38.62312
662.29        38.65771
662.72        39.24352
663.14        39.59667
663.57        39.87143
664.00        39.90872
664.42        40.16417
664.85        40.66656
665.27        41.19179
665.70        41.63337
666.13        41.95249
666.55        42.12439
666.98        42.11877
667.41        42.01211
667.83        42.20139
668.26         42.2847
668.69        42.58454
669.11        42.91998
669.54        43.19981
669.96        43.39917
670.39        43.56761
670.82        43.73998
671.24        43.90368
671.67        44.08704
672.09        44.35878
672.52        44.69153
672.94        44.93697
673.37        45.08595
673.80        45.20857
674.22        45.32845
674.65         45.4287
675.07        45.52895
675.50        45.62428
675.92        45.71894
676.35        45.81172
676.77        45.90638
677.20        46.00511
677.62        46.11555
678.05        46.24553
678.47        46.39465
678.90        46.56401
679.32        46.73891
679.75        46.90565
680.17        47.05552
680.60        47.19083
681.02        47.32701
681.45         47.4833
681.87        47.67056
682.30        47.88323
682.72        48.10286
683.15        48.24766
683.57        48.32759
684.00        48.39655
684.42         48.4842
684.85        48.60564
685.27        48.77063
685.70        48.97099
686.12        49.14565
686.54        49.30452
686.97        49.45293
687.39        49.27716
687.82        49.25843
688.24        49.45143
688.66        49.40847
689.09        49.58026
689.51        49.76662
689.94        49.91412
690.36        50.00167
690.78        50.05288
691.21        50.11398
691.63        50.21345
692.06        50.36017
692.48         50.6327
692.90        50.81205
693.33        50.92533
693.75        50.90941
694.17           50.78
694.60        50.64199
695.02        50.67627
695.44        50.89909
695.87        51.25276
696.29        51.62693
696.71        51.71202
697.14        51.55877
697.56        51.54459
697.98        51.69742
698.41        51.90102
698.83        51.89274
699.25        52.09114
699.68        52.34098
700.10        52.46395
700.52        52.41845
700.94        52.27681
701.37         52.1374
701.79        52.15546
702.21        52.35901
702.64        52.68237
703.06        53.04207
703.48        53.28672
703.90        53.37424
704.33        53.35992
704.75        53.28627
705.17        53.21404
705.59         53.1748
706.01        53.14618
706.44        53.16789
706.86        53.29904
707.28        53.52467
707.70        53.88631
708.12         54.2906
708.55        54.43013
708.97        54.34495
709.39        54.41285
709.81        54.62812
710.23        54.67968
710.66        54.56395
711.08        54.48973
711.50        54.47385
711.92        54.46357
712.34        54.46947
712.76        54.51721
713.19        54.59021
713.61         54.6862
714.03        54.78652
714.45        54.89075
714.87        55.00853
715.29        55.16194
715.71        55.34883
716.13        55.54708
716.56        55.71829
716.98        55.88326
717.40        56.00631
717.82        56.07325
718.24        56.07425
718.66        56.04269
719.08        55.97329
719.50        55.78334
719.92        55.55526
720.34        55.51035
720.76        55.67239
721.19        55.91733
721.61        56.22243
722.03        56.53462
722.45        56.80709
722.87        57.04493
723.29        57.18049
723.71        57.10662
724.13        56.82173
724.55        56.39127
724.97        55.96936
725.39        55.73852
725.81        55.74381
726.23        56.15841
726.65        56.48572
727.07        56.82614
727.49        57.05042
727.91        57.17531
728.33        57.24912
728.75        57.33864
729.17        57.46699
729.59        57.58979
730.01        57.69036
730.43        57.76051
730.85        57.79609
731.27        57.80333
731.69        57.78638
732.10        57.78164
732.52        57.73538
732.94        57.70477
733.36        57.70468
733.78        57.67428
734.20         57.6097
734.62        57.74047
735.04        58.10724
735.46        57.70811
735.88        58.24715
736.30        58.27131
736.72        58.33462
737.13        58.58095
737.55        58.89888
737.97        59.14504
738.39        59.20272
738.81        58.78536
739.23        58.13885
739.65        58.21207
740.06        58.83974
740.48        59.35594
740.90        58.96258
741.32        58.89684
741.74        59.00289
742.16        59.05928
742.57         59.0711
742.99        59.10339
743.41        59.14006
743.83        59.11479
744.25         59.0266
744.67        58.88317
745.08        58.75964
745.50        58.76159
745.92        58.91001
746.34        59.15687
746.75        59.41709
747.17        59.52985
747.59        59.47038
748.01        59.33838
748.42        59.18795
748.84        59.04837
749.26        59.01457
749.68        59.13397
750.09        59.36552
750.51        59.78983
750.93        60.19448
751.35        59.94773
751.76        59.20995
752.18        58.86966
752.60        58.99674
753.01        59.11512
753.43        59.15429
753.85        59.21846
754.27        59.28557
754.68        59.39139
755.10        59.54942
755.52        59.52229
755.93        59.69868
756.35        59.73266
756.77        59.82028
757.18        59.92242
757.60        60.05255
758.02        60.48453
758.43        61.06861
758.85        60.41751
759.26        60.69949
759.68        59.70919
760.10        59.63286
760.51         59.9866
760.93        60.87062
761.34        60.72501
761.76        61.14317
762.18         60.9258
762.59        60.75304
763.01        60.81474
763.42        61.15713
763.84        61.45446
764.26        61.57232
764.67        61.30711
765.09        60.83575
765.50        60.68599
765.92        60.86317
766.33        60.82743
766.75        60.50032
767.16        60.31696
767.58        60.28477
768.00        60.12752
768.41        59.98327
768.83        60.34447
769.24        61.02236
769.66        61.38266
770.07        61.35028
770.49        60.93833
770.90        60.52258
771.32        60.86808
771.73        61.83637
772.15        62.15735
772.56        61.76227
772.97        61.37854
773.39        61.17372
773.80        61.09252
774.22        61.15906
774.63        61.41264
775.05         61.7045
775.46        61.87351
775.88        61.84292
776.29        61.67519
776.70        61.46166
777.12         61.3852
777.53        61.49032
777.95        61.66834
778.36        61.87267
778.77        61.96999
779.19        61.94571
779.60         61.9543
780.02        61.94652
780.43        61.76817
780.84        61.54866
781.26        61.31948
781.67        61.24704
782.09         62.0491
782.50        63.32688
782.91          63.354
783.33        62.24861
783.74        61.81978
784.15        62.16419
784.57        62.19524
784.98        61.93369
785.39         61.9238
785.81         62.1812
786.22        62.56118
786.63        62.95755
787.04        63.19928
787.46        63.25021
787.87        63.14262
788.28        62.99017
788.70        62.93196
789.11        62.98495
789.52        63.17548
789.93        63.39406
790.35        63.37032
790.76        63.10499
791.17        62.82547
791.58        62.66298
792.00         62.5431
792.41        62.50172
792.82        62.90319
793.23        63.50414
793.65        63.22876
794.06        62.38731
794.47        62.50776
794.88        63.36325
795.29        64.35053
795.71        63.47726
796.12        63.42278
796.53          63.655
796.94        63.34217
797.35        62.67104
797.76        62.85065
798.18        63.76039
798.59        64.18102
799.00        63.99584
799.41        63.86479
799.82        63.86131
800.23        63.81495
800.64         63.7457
801.06        63.65606
801.47        63.58053
801.88        63.50291
802.29        63.41666
802.70        63.32291
803.11        63.21064
803.52        63.05171
803.93        62.87512
804.34        62.74297
804.75        62.68772
805.17        62.79252
805.58        63.15804
805.99        63.50774
806.40        63.83645
806.81        64.88564
807.22        66.17319
807.63        65.73489
808.04        63.92153
808.45        63.09376
808.86        63.46831
809.27        63.77849
809.68         63.8244
810.09        63.86196
810.50        63.83071
810.91        63.68404
811.32        63.54305
811.73        63.58689
812.14        63.84849
812.55         64.2738
812.96        64.73737
813.37        64.98292
813.78        64.93835
814.19        64.72674
814.60        64.42876
815.01        64.11689
815.42        63.82859
815.83        63.55182
816.24        63.32019
816.65        63.19409
817.05        63.20321
817.46        63.32669
817.87        63.51664
818.28        63.64038
818.69        63.66997
819.10         63.6224
819.51         63.5875
819.92        63.74658
820.33         64.1268
820.74        64.60517
821.14        65.04362
821.55        65.33518
821.96        65.37964
822.37        65.00252
822.78        64.36594
823.19        63.97245
823.60        63.92847
824.00        64.04822
824.41        64.19873
824.82        64.31997
825.23        64.35384
825.64        64.32397
826.04        64.28095
826.45        64.26141
826.86         64.2932
827.27        64.37072
827.68        64.43213
828.08         64.4059
828.49        64.23621
828.90        63.96504
829.31         63.7416
829.72        63.80772
830.12        64.22727
830.53         64.8758
830.94        65.52557
831.35        65.73975
831.75        65.42542
832.16        64.70031
832.57        63.85866
832.97        63.34885
833.38        63.29966
833.79        63.56533
834.20        63.99877
834.60        64.36386
835.01        64.58015
835.42         64.7577
835.82        64.90913
836.23        64.97369
836.64        64.97916
837.04        64.88571
837.45        64.81997
837.86        65.06439
838.26        65.67777
838.67        66.54773
839.08        67.36983
839.48        67.55643
839.89         66.9747
840.29        65.84512
840.70        64.68768
841.11        64.08505
841.51        64.18112
841.92         64.7784
842.33        65.63751
842.73        66.32331
843.14        66.57014
843.54        66.55692
843.95        66.38803
844.35        66.28818
844.76        66.30677
845.17        66.35079
845.57        66.38409
845.98        66.33318
846.38        66.20443
846.79        66.04945
847.19        65.88337
847.60         65.6954
848.00        65.50423
848.41        65.26937
848.81        65.09545
849.22        65.08057
849.62        65.27419
850.03        65.64609
850.43        66.02711
850.84        66.07435
851.24        65.76674
851.65        65.13338
852.05        64.54674
852.46        64.56023
852.86        65.27603
853.27        66.45982
853.67        67.62015
854.07        68.20163
854.48        68.07224
854.88        67.43118
855.29        66.49683
855.69         65.7989
856.10        65.46929
856.50         65.4401
856.90         65.5502
857.31        65.54601
857.71        65.39738
858.12        65.14629
858.52         64.9222
858.92        64.80615
859.33        64.81066
859.73         64.9314
860.13        65.05206
860.54        65.01961
860.94        64.84151
861.34        64.55158
861.75        64.27554
862.15         64.2586
862.55        64.52832
862.96        64.96859
863.36        65.46921
863.76        65.76325
864.17        65.75485
864.57         65.5554
864.97        65.18848
865.38        64.70307
865.78        64.17167
866.18        63.57512
866.58         63.0527
866.99        62.84742
867.39        63.03662
867.79        63.56509
868.19        64.22083
868.60        64.64543
869.00        64.77307
869.40        64.63879
869.80        64.42374
870.21        64.48138
870.61        64.93794
871.01         65.6047
871.41        66.15512
871.81        66.13906
872.22        65.49287
872.62        64.37572
873.02        63.15262
873.42        62.44674
873.82        62.44463
874.22        62.95789
874.63        63.66556
875.03        64.06545
875.43        63.99561
875.83        63.62245
876.23        63.13064
876.63        62.79801
877.03        62.71855
877.44        62.77139
877.84        62.89966
878.24        63.05033
878.64        63.13858
879.04        63.03384
879.44        62.87264
879.84        62.97158
880.24        63.33602
880.64        63.82346
881.04        64.16227
881.44        63.94519
881.84        63.12262
882.24        61.87796
882.65        60.60659
883.05        59.91161
883.45         59.9475
883.85        60.53516
884.25        61.42358
884.65        62.16555
885.05        62.58017
885.45        62.78102
885.85        62.81023
886.25        62.74049
886.65        62.62102
887.05        62.41145
887.45        62.17294
887.85        62.03448
888.25        62.03238
888.65        62.15582
889.04        62.34558
889.44         62.5211
889.84        62.63046
890.24        62.67138
890.64        62.66163
891.04        62.63559
891.44        62.60541
891.84        62.58461
892.24        62.50781
892.64        62.26978
893.04         61.8915
893.44        61.43799
893.83        61.11925
894.23        61.22303
894.63        61.81214
895.03        62.74842
895.43        63.80235
895.83        64.60172
896.23        64.99773
896.63        65.05889
897.02        64.81223
897.42        64.35349
897.82        63.76213
898.22        63.06356
898.62        62.35844
899.01        61.78638
899.41        61.40654
899.81         61.1926
900.21        61.15162
900.61        61.26887
901.00        61.50448
901.40        61.83863
901.80        62.14657
902.20        62.22768
902.59        62.06217
902.99        61.71332
903.39        61.31697
903.79        61.10637
904.18        61.13607
904.58        61.31523
904.98        61.63532
905.38        62.09114
905.77        62.64299
906.17        63.31581
906.57        63.87853
906.96        63.94727
907.36         63.4533
907.76        62.51897
908.15        61.57469
908.55        61.29309
908.95        61.82424
909.34        62.97911
909.74        64.26446
910.14        64.92976
910.53        64.73529
910.93        63.93615
911.33        62.85741
911.72        61.99153
912.12        61.56312
912.52        61.43346
912.91        61.47312
913.31        61.50967
913.70        61.49054
914.10        61.44915
914.49         61.5494
914.89        61.96507
915.29        62.71702
915.68        63.71285
916.08        64.58236
916.47        64.79722
916.87        64.27937
917.26        63.20871
917.66        62.06616
918.05        61.43168
918.45        61.44837
918.84        61.98648
919.24        62.74454
919.64        63.30862
920.03         63.5301
920.42         63.4916
920.82        63.38071
921.21        63.43539
921.61        63.69681
922.00        64.10065
922.40        64.44034
922.79        64.51798
923.19        64.26348
923.58        63.80209
923.98        63.32604
924.37        63.04559
924.77        63.02568
925.16        63.15303
925.55        63.36908
925.95        63.54825
926.34        63.64953
926.74        63.70763
927.13        63.63793
927.52        63.24144
927.92        62.57462
928.31        61.69941
928.70        60.91703
929.10        60.66429
929.49        61.00314
929.89        61.75204
930.28        62.72493
930.67        63.47217
931.07        63.80105
931.46        63.90537
931.85        63.72824
932.24        63.24945
932.64         62.5771
933.03        61.68368
933.42        60.94801
933.82        60.91804
934.21        61.66883
934.60        63.10857
934.99        64.71322
935.39        65.51073
935.78        65.27282
936.17        64.17647
936.56        62.81989
936.96        62.16436
937.35         62.4415
937.74        63.35952
938.13         64.3705
938.53        64.62469
938.92        63.93737
939.31        62.64419
939.70        61.23861
940.09        60.40368
940.49        60.27777
940.88        60.67221
941.27        61.31548
941.66        61.71827
942.05        61.72676
942.44        61.54162
942.84         61.3374
943.23        61.35719
943.62        61.67648
944.01        62.13704
944.40        62.71581
944.79        63.42243
945.18         64.1748
945.57        64.92984
945.97        65.40656
946.36        65.23502
946.75        64.34451
947.14        62.97017
947.53        61.44252
947.92        60.21361
948.31        59.43225
948.70        58.99352
949.09        58.94838
949.48        59.35477
949.87        60.15711
950.26        61.32413
950.65        62.54021
951.04        63.27757
951.43          63.381
951.82        62.92713
952.21        62.20535
952.60        61.73883
952.99        61.68847
953.38        61.94025
953.77        62.27639
954.16        62.34632
954.55        62.05806
954.94        61.50508
955.33         60.9436
955.72        60.79588
956.11        61.16655
956.50        61.94386
956.89        62.71246
957.28        62.78216
957.66        62.01275
958.05        60.68771
958.44        59.35681
958.83        58.81023
959.22        59.19064
959.61        60.24566
960.00        61.52429
960.39         62.1891
960.78        61.96155
961.16        61.11372
961.55        60.03922
961.94        59.22299
962.33        58.82155
962.72        58.71075
963.11        58.79965
963.49        58.96094
963.88         59.0711
964.27        59.19151
964.66        59.43367
965.04        59.98608
965.43        60.80674
965.82        61.83778
966.21        62.73267
966.60        62.85545
966.98        62.04804
967.37        60.63118
967.76        59.12191
968.15        58.15328
968.53        57.86375
968.92        58.09505
969.31        58.64613
969.69        59.10227
970.08        59.23291
970.47         59.1858
970.86        59.15231
971.24        59.41787
971.63        60.04182
972.02        60.89951
972.40        61.79349
972.79        62.13193
973.17        61.82272
973.56        61.08702
973.95        60.23976
974.33        59.66807
974.72        59.47115
975.11         59.4935
975.49        59.72276
975.88        60.06464
976.26         60.4884
976.65        60.99271
977.04        61.37113
977.42        61.26405
977.81        60.60506
978.19        59.48041
978.58        58.38857
978.96        58.10764
979.35        58.78176
979.74        60.20464
980.12        61.88457
980.51        62.69488
980.89        62.44038
981.28        61.45721
981.66        60.26519
982.05        59.57314
982.43        59.58611
982.82        60.05212
983.20        60.94157
983.59         62.0988
983.97        63.44761
984.35        65.01224
984.74        66.36755
985.12        67.03012
985.51        66.82195
985.89        65.85976
986.28        64.69459
986.66        64.12268
987.04        64.39095
987.43        65.27985
987.81        66.36291
988.20        66.68356
988.58        65.99559
988.96        64.56889
989.35        62.95083
989.73        61.88733
990.12        61.53708
990.50        61.72668
990.88        62.04766
991.27        61.82053
991.65        60.90687
992.03        59.58066
992.42        58.39874
992.80        58.08284
993.18        58.77931
993.56        60.27663
993.95        61.98252
994.33        62.94595
994.71        62.74044
995.10        61.76871
995.48        60.58746
995.86        60.11279
996.24        60.56849
996.63        61.52939
997.01        62.88468
997.39        64.04979
997.77        64.68325
998.15        65.04758
998.54        64.91081
998.92        63.79842
999.30        61.88595
999.68        59.38602
1000.06        57.21378
1000.45        56.65798
1000.83        58.04379
1001.21         61.1396
1001.59        65.09553
1001.97        67.72845
1002.35        68.12837
1002.73        66.93193
1003.12        65.19933
1003.50        64.27039
1003.88        64.57473
1004.26        65.49303
1004.64        66.90621
1005.02        68.51688
1005.40        69.99007
1005.78        71.63504
1006.16        72.50001
1006.54        71.05515
1006.92        67.37081
1007.30        62.03642
1007.69        57.11354
1008.07        55.41508
1008.45        57.66755
1008.83        63.34988
1009.21        70.59058
1009.59        74.71056
1009.97        73.59634
1010.35        68.62601
1010.73        62.18522
1011.11        57.70728
1011.49        56.07462
1011.86        56.17625
1012.24        57.18079
1012.62        58.06041
1013.00        58.48235
1013.38        58.83141
1013.76        59.28488
1014.14        59.96435
1014.52        60.84327
1014.90        61.69062
1015.28        62.10269
1015.66        61.70456
1016.04         60.4928
1016.41        58.56687
1016.79        56.62041
1017.17        55.95249
1017.55        56.84606
1017.93        58.89416
1018.31        61.06657
1018.69        61.86377
1019.06        60.99255
1019.44        58.80829
1019.82        56.08647
1020.20        54.75251
1020.58        55.51758
1020.95        57.44976
1021.33        59.79792
1021.71        61.70999
1022.09        63.05398
1022.46        64.39712
1022.84        65.16609
1023.22        64.11217
1023.60        61.17641
1023.97        56.79375
1024.35        53.13572
1024.73        52.56721
