SpectraSmart Spectrum 2.9.0.0
--------- Device Information -----------
Spectrum Name :  反射率_0
Saving Time :  2024/04/26 23:37:31
Spectro-Module Model Name : SE2030-DUVN
Spectro-Module Serial Number : OS361AC55029948
Wavelength Start : 200
Wavelength End : 1025
Wavelength Unit : Wavelength(nm)
Spectrum Unit : Reflectance(%)
-----------Spectrum Setting ------------
Integration Time : 20ms
Average : 10
Boxcar : 0
Background removal :  enabled
linearity correction :  enabled
SC :  disabled
Intensity correction :  disabled
DWT denoise :  enabled
savitzky-golay :  disabled
FFT :  disabled
Running average :  disabled
Kalman :  disabled
High pass :  disabled
---------------BEGIN--------------------
Wavelength(nm)             Reflectance(%)
200.29               0
200.75        34.68771
201.21        34.10424
201.67        34.01507
202.13        35.31493
202.58        38.09832
203.04        43.09034
203.50        49.40508
203.96        52.97193
204.42        50.99956
204.88        43.43534
205.34        34.13527
205.80        30.97101
206.26        35.33923
206.72        43.71494
207.18        51.31452
207.64        54.15087
208.10        51.99691
208.55        45.68276
209.01        35.30996
209.47        28.26033
209.93        29.77018
210.39        35.45834
210.85        40.82558
211.31        44.20583
211.77        46.30107
212.23        48.31456
212.69        52.34378
213.14        63.92231
213.60        70.17374
214.06        67.66801
214.52         62.8113
214.98        57.29683
215.44        50.84818
215.90        43.11139
216.36        36.19948
216.81        33.77145
217.27         37.5979
217.73        48.46671
218.19        65.65316
218.65        76.75533
219.11        74.25081
219.57        65.28004
220.02        58.33886
220.48        58.51057
220.94        65.42372
221.40        79.21552
221.86        99.50195
222.32        113.2715
222.77        108.7915
223.23        95.20563
223.69        81.27074
224.15        71.70023
224.61        66.05125
225.06        62.09671
225.52        60.22886
225.98        60.71909
226.44        63.11878
226.90        67.22688
227.36        71.43799
227.81        72.81612
228.27        71.11568
228.73        67.42722
229.19        63.87387
229.65        62.93157
230.10        64.68893
230.56        68.24658
231.02        72.02162
231.48        73.51471
231.93        72.22887
232.39        69.57489
232.85        66.76078
233.31        65.35857
233.77        65.56408
234.22        66.73373
234.68        68.31747
235.14        69.62536
235.60        70.35006
236.05        70.80209
236.51        70.70874
236.97        69.64533
237.43        67.61378
237.88        64.79933
238.34        61.82562
238.80        59.96575
239.26        59.63607
239.71        61.08207
240.17        63.90788
240.63        67.11691
241.08        69.96901
241.54        72.05341
242.00        73.79744
242.46        76.46061
242.91        81.33309
243.37        88.23366
243.83        97.07193
244.28        103.4229
244.74        100.6675
245.20        89.75005
245.66        77.41391
246.11        68.28495
246.57        62.55948
247.03        58.57272
247.48        55.16957
247.94        51.29868
248.40        47.70306
248.85        44.91056
249.31        43.00544
249.77        41.32394
250.22        39.37765
250.68        37.07962
251.14         34.5745
251.59        33.14327
252.05        34.07513
252.51        36.87464
252.96        40.28928
253.42        43.45217
253.88        46.12144
254.33        48.04872
254.79        50.27837
255.25        53.53011
255.70        57.71797
256.16        62.69863
256.62        66.62503
257.07        66.66969
257.53         63.9646
257.99        60.33418
258.44        57.35459
258.90        56.74089
259.35        57.62847
259.81        59.48774
260.27        61.21165
260.72        61.48572
261.18        60.53325
261.63        58.75949
262.09        57.15332
262.55        56.25471
263.00        55.96087
263.46        56.11049
263.91        56.15924
264.37        55.74314
264.83        54.81707
265.28        53.59071
265.74        52.52329
266.19        51.86131
266.65        51.70071
267.11        51.78494
267.56        51.97018
268.02        52.04077
268.47        51.90025
268.93        51.67093
269.38        51.21389
269.84        50.38425
270.30        49.19866
270.75        47.70172
271.21         46.2943
271.66        45.52246
272.12        45.46849
272.57        45.92727
273.03        46.43923
273.48        46.23847
273.94        45.23499
274.39          43.682
274.85        42.06425
275.31        40.89394
275.76        40.25486
276.22          39.987
276.67        39.86719
277.13          39.698
277.58        39.34589
278.04        38.92304
278.49        38.39032
278.95        37.81081
279.40        37.15442
279.86        36.48534
280.31        35.76304
280.77        35.06701
281.22        34.37339
281.68        33.74279
282.13        33.18199
282.59        32.79271
283.04          32.533
283.50        32.39309
283.95        32.26852
284.41         32.0189
284.86        31.61477
285.32        31.13077
285.77        30.64376
286.22        30.32839
286.68         30.2076
287.13        30.18653
287.59        30.19298
288.04        30.06708
288.50        29.80218
288.95        29.42723
289.41        29.02052
289.86        28.62343
290.32         28.2931
290.77        27.99541
291.22        27.75352
291.68        27.58662
292.13        27.48483
292.59        27.46735
293.04        27.51369
293.50        27.61017
293.95        27.73961
294.40        27.90144
294.86        28.10765
295.31        28.37024
295.77        28.69379
296.22        29.06295
296.68        29.44886
297.13        29.79273
297.58        30.09262
298.04        30.36688
298.49        30.66324
298.95        31.07425
299.40        31.60402
299.85        32.22026
300.31        32.85239
300.76        33.38245
301.21        33.78502
301.67        34.10474
302.12        34.37453
302.58        34.70533
303.03        35.09188
303.48        35.51704
303.94        35.94585
304.39        36.29276
304.84        36.55619
305.30        36.77641
305.75        36.96633
306.20        37.19939
306.66        37.49535
307.11        37.80952
307.57        38.11876
308.02         38.3395
308.47        38.46682
308.93         38.5325
309.38        38.55708
309.83        38.62288
310.29        38.74709
310.74        38.90094
311.19        39.03862
311.65        39.08058
312.10        39.00441
312.55        38.83657
313.00        38.64433
313.46        38.52465
313.91        38.48639
314.36        38.51472
314.82        38.53858
315.27        38.45533
315.72        38.23988
316.18        37.93381
316.63         37.6147
317.08          37.419
317.53        37.36993
317.99        37.41735
318.44        37.46959
318.89        37.36612
319.35        37.07018
319.80        36.63491
320.25        36.15471
320.70        35.78017
321.16        35.55009
321.61        35.43111
322.06        35.35249
322.51        35.20078
322.97         34.9402
323.42        34.61522
323.87        34.28561
324.32        34.04973
324.78        33.91962
325.23        33.87974
325.68        33.84782
326.13        33.70191
326.59        33.41185
327.04        33.02714
327.49        32.63018
327.94         32.3526
328.39         32.2207
328.85        32.18092
329.30        32.18043
329.75        32.06376
330.20        31.79133
330.66        31.40543
331.11        31.00597
331.56        30.72298
332.01        30.59244
332.46        30.57289
332.92        30.57697
333.37        30.50606
333.82        30.30996
334.27        30.02912
334.72        29.72994
335.17        29.51758
335.63        29.41972
336.08        29.41891
336.53        29.45767
336.98        29.45518
337.43        29.38257
337.88         29.2529
338.34        29.10744
338.79        29.04602
339.24        29.07806
339.69        29.18041
340.14        29.26532
340.59        29.19476
341.05        28.95803
341.50        28.60431
341.95        28.26173
342.40        28.12376
342.85        28.22692
343.30         28.4996
343.75        28.82516
344.20         29.0143
344.66        29.01064
345.11        28.86921
345.56        28.64652
346.01        28.43458
346.46         28.2752
346.91        28.14672
347.36        28.05045
347.81        27.99317
348.26           27.97
348.72        27.98111
349.17        28.01727
349.62        28.06993
350.07        28.12733
350.52        28.18773
350.97        28.20713
351.42        28.12153
351.87        27.92917
352.32        27.65569
352.77        27.38295
353.22        27.23035
353.67        27.22005
354.13         27.3199
354.58        27.45291
355.03        27.48995
355.48         27.3952
355.93         27.2067
356.38        26.99441
356.83        26.86307
357.28        26.83427
357.73        26.87081
358.18        26.90943
358.63        26.85239
359.08         26.6773
359.53        26.41916
359.98        26.14021
360.43        25.92897
360.88        25.80236
361.33        25.73042
361.78        25.66109
362.23        25.51314
362.68        25.27437
363.13        24.98399
363.58        24.69093
364.03        24.46573
364.48        24.32686
364.93        24.24654
365.38        24.20827
365.83        24.18722
366.28        24.16539
366.73         24.1459
367.18        24.10483
367.63        24.00433
368.08        23.84112
368.53        23.62769
368.98        23.39561
369.43        23.19814
369.88        23.05179
370.33        22.94338
370.78        22.86307
371.23        22.79235
371.68        22.72024
372.13        22.65032
372.58        22.57237
373.03        22.46818
373.48        22.33463
373.93        22.17594
374.38        22.00057
374.83        21.82763
375.28        21.66418
375.72        21.49819
376.17        21.35132
376.62        21.22685
377.07        21.12466
377.52        21.04954
377.97        20.97631
378.42         20.8646
378.87        20.71311
379.32        20.53434
379.77        20.37824
380.22        20.31938
380.67        20.36348
381.11        20.48682
381.56        20.61346
382.01        20.63315
382.46        20.52157
382.91        20.32862
383.36        20.10916
383.81        19.93758
384.26        19.83328
384.71        19.76657
385.15        19.74259
385.60        19.77425
386.05        19.84684
386.50        19.95047
386.95         20.0247
387.40        19.97712
387.85        19.79939
388.29        19.51818
388.74        19.22315
389.19        18.99074
389.64        18.83931
390.09        18.74286
390.54        18.67864
390.98        18.60542
391.43        18.52267
391.88        18.44327
392.33        18.37301
392.78        18.31585
393.23         18.2726
393.67        18.23006
394.12         18.2016
394.57        18.17376
395.02        18.14383
395.47         18.1067
395.91        18.07604
396.36        18.06383
396.81        18.08059
397.26        18.12236
397.71        18.15666
398.15         18.1478
398.60        18.11338
399.05        17.99108
399.50        17.83843
399.95        17.86936
400.39        18.03592
400.84        18.00002
401.29        17.76458
401.74        17.61614
402.18        17.56934
402.63        17.45065
403.08        17.29171
403.53        17.21711
403.97        17.23668
404.42        17.31763
404.87        17.40888
405.32         17.4272
405.76         17.3502
406.21        17.20847
406.66        17.05839
407.11        16.99013
407.55        17.02764
408.00        17.13813
408.45        17.25804
408.90        17.26732
409.34        17.13783
409.79        16.91685
410.24        16.68979
410.68        16.57007
411.13        16.58458
411.58        16.69541
412.03        16.83638
412.47        16.89318
412.92        16.82644
413.37        16.68141
413.81        16.51375
414.26        16.41505
414.71         16.3994
415.15        16.44224
415.60        16.50246
416.05        16.52563
416.49        16.49543
416.94        16.43143
417.39        16.36149
417.83        16.32335
418.28         16.3266
418.73        16.35561
419.17        16.39655
419.62        16.42951
420.07        16.44716
420.51        16.45196
420.96        16.44999
421.41        16.44646
421.85        16.43622
422.30        16.40932
422.74         16.3601
423.19        16.35625
423.64        16.37259
424.08        16.31029
424.53        16.17825
424.98        16.11805
425.42         16.1521
425.87        16.16997
426.31        16.16455
426.76        16.24207
427.21        16.34869
427.65        16.25626
428.10        16.03591
428.54        15.96766
428.99        16.07394
429.44        16.26324
429.88        16.43756
430.33        16.38296
430.77         16.1405
431.22        16.04657
431.66         16.1149
432.11        16.10259
432.56        16.02634
433.00        16.05672
433.45        16.12962
433.89        16.11171
434.34        16.06258
434.78        15.69487
435.23           15.93
435.67        15.95063
436.12        15.98865
436.57        15.96616
437.01        15.89615
437.46        15.86436
437.90        15.86719
438.35        15.83778
438.79         15.7793
439.24        15.74933
439.68        15.75154
440.13        15.77164
440.57        15.79591
441.02        15.81701
441.46        15.82849
441.91        15.79234
442.35        15.72488
442.80        15.80442
443.24        15.96592
443.69        15.93355
444.13        15.73695
444.58        15.67454
445.02        15.75626
445.47        15.82041
445.91        15.84601
446.36        15.87799
446.80        15.90607
447.24        15.92034
447.69        15.92076
448.13        15.90014
448.58        15.86464
449.02        15.81685
449.47        15.77239
449.91        15.74717
450.36        15.74948
450.80        15.77099
451.25        15.80644
451.69        15.83667
452.13        15.85694
452.58        15.86757
453.02        15.86821
453.47        15.86167
453.91        15.84886
454.36        15.83174
454.80         15.8033
455.24        15.75211
455.69        15.68502
456.13        15.59846
456.58        15.52789
457.02        15.49984
457.46        15.52452
457.91        15.59013
458.35        15.65456
458.79        15.65448
459.24        15.59251
459.68         15.4818
460.13        15.37932
460.57        15.33091
461.01        15.36002
461.46        15.43454
461.90        15.54031
462.34        15.64015
462.79        15.71165
463.23        15.76945
463.68        15.79131
464.12        15.75235
464.56        15.65324
465.01        15.52533
465.45        15.38613
465.89        15.30182
466.34        15.28149
466.78        15.30599
467.22        15.35879
467.67          15.394
468.11        15.40583
468.55        15.40023
468.99        15.38873
469.44        15.38769
469.88        15.40285
470.32        15.42526
470.77        15.44969
471.21          15.473
471.65        15.49122
472.10        15.50834
472.54        15.52115
472.98        15.53022
473.42        15.53545
473.87        15.54064
474.31        15.53789
474.75        15.53037
475.20        15.52381
475.64        15.51497
476.08        15.51016
476.52        15.50989
476.97        15.51559
477.41          15.534
477.85        15.57271
478.29        15.62013
478.74        15.68647
479.18        15.80766
479.62        15.95289
480.06        16.04631
480.50        16.08133
480.95        16.07329
481.39        16.03459
481.83        16.13622
482.27         16.1519
482.72        16.27153
483.16        16.41336
483.60        16.51731
484.04        16.56622
484.48        16.65802
484.93        16.81773
485.37        16.71331
485.81        16.94338
486.25        17.02977
486.69        17.02087
487.14        17.22682
487.58        17.34168
488.02        17.19384
488.46         17.1412
488.90        17.46442
489.34        17.30545
489.79        17.52662
490.23         17.7621
490.67        17.95726
491.11        18.06575
491.55        18.03375
491.99        17.93194
492.43          17.943
492.88        18.09849
493.32        18.29945
493.76         18.5018
494.20        18.68945
494.64        18.85002
495.08        18.94955
495.52        19.00984
495.96        19.18368
496.41        19.43622
496.85        19.48546
497.29        19.36065
497.73        19.50866
498.17        19.66863
498.61        19.84875
499.05        19.93514
499.49        19.99698
499.93        19.99512
500.37        20.10935
500.82         20.3105
501.26        20.46088
501.70        20.54813
502.14        20.65217
502.58         20.7868
503.02        20.93233
503.46        21.08535
503.90        21.24608
504.34         21.3821
504.78         21.4416
505.22        21.41737
505.66        21.32967
506.10        21.22162
506.54        21.16156
506.98        21.17111
507.42        21.23518
507.86        21.33586
508.30        21.44021
508.74        21.53416
509.18        21.62517
509.62        21.71364
510.06         21.8003
510.50        21.88374
510.94        21.95734
511.38        22.01689
511.82        22.05959
512.26        22.08665
512.70        22.10263
513.14        22.11459
513.58        22.13254
514.02        22.16051
514.46        22.19637
514.90        22.23936
515.34        22.28778
515.78        22.33735
516.22        22.38443
516.66        22.42212
517.10        22.43982
517.54        22.43543
517.98        22.41424
518.42        22.37701
518.86        22.32586
519.30        22.26605
519.74        22.19939
520.18        22.14294
520.62        22.12162
521.06        22.13899
521.50        22.18922
521.93        22.24896
522.37        22.27024
522.81        22.24544
523.25        22.18599
523.69        22.11746
524.13        22.08179
524.57        22.08534
525.01        22.10896
525.45        22.13108
525.89         22.1173
526.32        22.05749
526.76        21.97562
527.20        21.87514
527.64        21.76229
528.08        21.64596
528.52        21.52312
528.96        21.42403
529.40        21.39577
529.83        21.44017
530.27        21.54308
530.71        21.64679
531.15        21.65963
531.59        21.56319
532.03        21.38535
532.46        21.18234
532.90        21.05986
533.34        21.03872
533.78        21.07457
534.22        21.12548
534.66        21.15264
535.09        21.12431
535.53        21.01639
535.97        20.86282
536.41        20.76864
536.85        20.75162
537.28        20.76148
537.72        20.79396
538.16        20.85916
538.60        20.94871
539.04        21.05876
539.47        21.16621
539.91        21.24827
540.35        21.29596
540.79        21.31695
541.22        21.32783
541.66        21.36473
542.10        21.43447
542.54        21.52846
542.97        21.63424
543.41        21.74034
543.85        21.84042
544.29        21.94374
544.72         22.0496
545.16        22.17104
545.60          22.307
546.04        22.45529
546.47        22.62087
546.91        22.80823
547.35        23.00971
547.79        23.21855
548.22        23.41689
548.66        23.57385
549.10        23.71265
549.53        23.83282
549.97        23.94317
550.41        24.00395
550.84        24.04776
551.28        24.14111
551.72         24.2742
552.15        24.44924
552.59        24.69309
553.03        24.64097
553.46        25.01752
553.90        25.15316
554.34        25.25839
554.77        25.33805
555.21        25.42019
555.65        25.52905
556.08        25.65998
556.52        25.79207
556.96        25.89979
557.39         26.0154
557.83        26.11431
558.27        26.05761
558.70         25.9021
559.14        25.89284
559.57        26.03146
560.01        26.17253
560.45        26.28138
560.88        26.38777
561.32        26.49356
561.75        26.56217
562.19        26.61581
562.63        26.68404
563.06        26.76792
563.50        26.86169
563.93        26.93122
564.37        26.99388
564.80        27.05849
565.24        27.06194
565.68        26.97016
566.11        27.31364
566.55        27.11856
566.98         27.1945
567.42         27.2893
567.85         27.4322
568.29        27.62715
568.72        27.88934
569.16        28.23011
569.60        28.43213
570.03        28.57207
570.47        28.80061
570.90        29.12541
571.34        28.84223
571.77        29.24374
572.21        29.44908
572.64        29.51365
573.08        29.69743
573.51        29.65125
573.95        29.82665
574.38        30.12856
574.82        30.30631
575.25         30.1193
575.69        30.15261
576.12        30.32192
576.56        30.27727
576.99        30.20411
577.42        30.25816
577.86        30.31971
578.29        30.85527
578.73        30.63008
579.16        30.52337
579.60        30.18836
580.03         30.1835
580.47        30.14295
580.90        30.29978
581.33        30.25338
581.77        30.37459
582.20        30.14607
582.64        29.98665
583.07         29.7959
583.51        29.56141
583.94        29.38418
584.37        29.27858
584.81         29.2582
585.24         29.1379
585.68         28.9437
586.11        28.89098
586.54        28.72739
586.98        28.63088
587.41        28.53163
587.85        28.44692
588.28        28.42222
588.71        28.23244
589.15        28.26126
589.58        28.38054
590.01        28.30457
590.45        28.38869
590.88        28.47949
591.31        28.38007
591.75         28.1618
592.18        28.02947
592.61        28.03928
593.05        28.36653
593.48        28.83037
593.91        28.66017
594.35        28.76236
594.78         28.6499
595.21        28.66296
595.65        28.88283
596.08        29.31917
596.51        29.49242
596.94        29.31407
597.38        29.37228
597.81        29.65454
598.24        30.06618
598.68         30.1183
599.11        30.40277
599.54        31.15528
599.97        30.91941
600.41        31.43796
600.84        31.44453
601.27        31.89434
601.70        32.15394
602.14        32.49551
602.57        32.81225
603.00         33.2148
603.43        33.22104
603.87        34.08184
604.30        34.47306
604.73        34.52539
605.16        34.79254
605.60        35.21314
606.03        35.39067
606.46        35.50858
606.89        35.87987
607.32        36.75303
607.76        37.07419
608.19        37.46962
608.62        37.68604
609.05        37.99477
609.48        38.26765
609.92        38.99408
610.35        38.95388
610.78        39.10251
611.21        38.87794
611.64        39.52193
612.07        39.91335
612.50        40.10191
612.94        40.39862
613.37        40.71938
613.80        40.85989
614.23        40.86744
614.66        41.00439
615.09        41.30062
615.52        41.64633
615.96        41.97494
616.39        42.23228
616.82        42.40402
617.25        42.47409
617.68        42.51047
618.11        42.70578
618.54        43.04535
618.97        43.33054
619.40        43.50861
619.84        43.67824
620.27        43.58055
620.70        43.69466
621.13        43.91886
621.56        43.73344
621.99         43.5545
622.42        43.42371
622.85        43.56067
623.28        43.48513
623.71         43.7619
624.14        44.12623
624.57        44.16451
625.00        44.06113
625.43        44.13575
625.86         43.9649
626.29        43.78069
626.72        43.38437
627.15        43.50085
627.58        43.52779
628.01        43.56158
628.44        43.42388
628.87        43.14662
629.30        42.63316
629.73         42.5275
630.16        42.26053
630.59        42.02485
631.02        41.87975
631.45        41.79745
631.88        41.66854
632.31        41.46059
632.74        41.20703
633.17         40.9022
633.60         40.5389
634.03        40.12511
634.46        39.65993
634.89        39.16874
635.32        38.70591
635.75        38.28941
636.18        37.87096
636.61        37.46068
637.04        37.08961
637.47        36.75443
637.89         36.4457
638.32        36.13128
638.75        35.79648
639.18        35.44114
639.61        35.07113
640.04        34.72362
640.47        34.45415
640.90        34.27133
641.33        34.16242
641.76        34.07951
642.18        33.94747
642.61        33.74154
643.04        33.49016
643.47        33.25609
643.90        33.13971
644.33         33.1615
644.76        33.28907
645.18        33.45728
645.61        33.55137
646.04        33.54841
646.47        33.48964
646.90        33.43368
647.33        33.46875
647.75        33.61253
648.18        33.85944
648.61        34.19172
649.04        34.48707
649.47        34.70915
649.89        35.26548
650.32        35.51647
650.75        35.86109
651.18        36.13982
651.61        36.50879
652.03        36.98435
652.46         37.4695
652.89        37.95129
653.32        38.37925
653.74        38.80473
654.17        39.06464
654.60         39.5891
655.03        39.68578
655.46        39.79488
655.88        40.17764
656.31        42.52468
656.74        44.65489
657.16        45.06527
657.59        44.94459
658.02        43.21754
658.45        43.18952
658.87        43.14643
659.30         43.6507
659.73        43.66472
660.15        44.35651
660.58         44.1811
661.01        44.55587
661.44         45.0356
661.86        45.04644
662.29        44.66796
662.72        45.10736
663.14        45.48397
663.57        45.74836
664.00        45.69295
664.42        45.92216
664.85        46.45174
665.27        46.98009
665.70        47.38113
666.13        47.62149
666.55        47.67656
666.98        47.51434
667.41        47.22865
667.83        47.27822
668.26        47.21738
668.69        47.40498
669.11        47.65528
669.54        47.88152
669.96        48.05396
670.39        48.24889
670.82        48.46401
671.24        48.55437
671.67          48.575
672.09         48.7638
672.52        49.09501
672.94        49.31642
673.37        49.41086
673.80        49.44579
674.22        49.46431
674.65        49.56192
675.07        49.72644
675.50        49.75047
675.92        49.65857
676.35        49.65261
676.77        49.74802
677.20        49.83499
677.62        49.91027
678.05        50.01033
678.47        50.12493
678.90        50.26653
679.32        50.42725
679.75        50.54194
680.17        50.58722
680.60        50.81924
681.02        50.81318
681.45        50.93505
681.87        51.06474
682.30        51.23042
682.72        51.40665
683.15        51.46129
683.57        51.43315
684.00        51.47647
684.42        51.61546
684.85        51.76393
685.27        51.91389
685.70         52.1277
686.12        52.35836
686.54        52.50918
686.97        52.56076
687.39        52.55174
687.82        52.49506
688.24        52.42742
688.66        52.36821
689.09        52.31027
689.51        52.29527
689.94         52.3637
690.36        52.52517
690.78        52.75267
691.21        53.00744
691.63        53.21719
692.06        53.35973
692.48        53.45974
692.90        53.51031
693.33        53.49932
693.75        53.43359
694.17        53.32223
694.60        53.23754
695.02        53.23243
695.44        53.33543
695.87        53.69104
696.29        54.17047
696.71        54.21276
697.14        53.88611
697.56        53.82965
697.98        54.07974
698.41        54.21651
698.83        54.23598
699.25        54.42831
699.68         54.7056
700.10        54.83119
700.52        54.75813
700.94        54.56787
701.37        54.37107
701.79        54.35154
702.21        54.54354
702.64         54.8735
703.06        55.24043
703.48        55.46681
703.90        55.50281
704.33        55.40657
704.75        55.24882
705.17        55.13543
705.59        55.11128
706.01        55.14598
706.44        55.23186
706.86        55.37751
707.28        55.56231
707.70        55.76923
708.12        55.98554
708.55        56.21304
708.97        56.42321
709.39        56.52568
709.81        56.52567
710.23         56.5336
710.66        56.55917
711.08        56.55469
711.50        56.50744
711.92        56.44129
712.34        56.36489
712.76         56.2873
713.19        56.21668
713.61        56.19424
714.03        56.21891
714.45        56.28997
714.87        56.40764
715.29        56.57266
715.71        56.77249
716.13         56.9852
716.56        57.17699
716.98        57.37067
717.40        57.52443
717.82         57.6396
718.24        57.67366
718.66         57.5621
719.08        57.32132
719.50        57.00013
719.92        56.70847
720.34        56.61023
720.76        56.73981
721.19        57.02876
721.61         57.4281
722.03        57.80583
722.45        58.09814
722.87        58.32459
723.29        58.45032
723.71        58.42749
724.13        58.26603
724.55        57.98545
724.97        57.67189
725.39        57.47977
725.81        57.45283
726.23        57.53648
726.65        57.68064
727.07        57.92278
727.49         58.0226
727.91        58.17186
728.33        58.30185
728.75        58.40672
729.17        58.48237
729.59        58.51738
730.01        58.53706
730.43        58.58567
730.85        58.67409
731.27        58.79057
731.69         58.8849
732.10        58.92443
732.52        58.89878
732.94        58.73939
733.36        58.50425
733.78        58.61686
734.20        58.33352
734.62         58.5771
735.04        59.10158
735.46        58.51416
735.88        58.65715
736.30        58.69867
736.72        59.16227
737.13        59.60422
737.55        59.85757
737.97        59.96437
738.39        59.89986
738.81        59.61575
739.23        59.26706
739.65        59.31231
740.06        59.66545
740.48        59.84717
740.90         59.8206
741.32        59.76633
741.74        59.97757
742.16        60.07389
742.57        60.13298
742.99        60.18283
743.41         60.2182
743.83         60.1969
744.25        60.12362
744.67        60.02604
745.08        59.95699
745.50        59.95792
745.92        60.04488
746.34         60.2059
746.75        60.36999
747.17        60.40137
747.59        60.28345
748.01        60.06748
748.42        59.82738
748.84         59.6907
749.26         59.6952
749.68        59.76698
750.09        59.88319
750.51        60.08314
750.93        60.30286
751.35        60.39335
751.76        60.34343
752.18        60.28511
752.60        60.21928
753.01        60.07629
753.43        59.87642
753.85        59.72313
754.27        59.65324
754.68        59.67795
755.10        59.77378
755.52        59.87675
755.93        59.96104
756.35        60.04313
756.77        60.19026
757.18        60.38757
757.60        60.63448
758.02        61.15089
758.43        61.68713
758.85        61.33027
759.26        60.67907
759.68        59.99287
760.10        60.43104
760.51        60.75628
760.93        61.07235
761.34         61.1858
761.76         61.1161
762.18        61.11993
762.59        61.27077
763.01         61.4443
763.42           61.61
763.84        61.62609
764.26        61.50583
764.67        61.20993
765.09         60.9076
765.50        60.94138
765.92         61.2626
766.33        61.31381
766.75        61.01318
767.16        60.91581
767.58        61.00964
768.00        60.77479
768.41        60.38917
768.83         60.7366
769.24        61.60062
769.66        61.86425
770.07        61.51184
770.49        61.15687
770.90         61.0047
771.32        61.35995
771.73        62.05382
772.15        62.28696
772.56        62.01808
772.97        61.62761
773.39        61.27974
773.80        61.44336
774.22        61.57928
774.63        61.90571
775.05        62.10292
775.46        62.19606
775.88        62.11208
776.29        61.80751
776.70        61.43566
777.12        61.31901
777.53        61.53043
777.95        61.93273
778.36        62.38765
778.77        62.63155
779.19        62.60579
779.60        62.41463
780.02        62.13989
780.43        61.96622
780.84        61.96784
781.26        61.87009
781.67         61.7462
782.09        62.19401
782.50        62.96111
782.91        62.88815
783.33        62.09862
783.74        61.78837
784.15        62.01508
784.57        62.26097
784.98        62.43311
785.39        62.26439
785.81        61.92999
786.22        62.34177
786.63        63.32313
787.04        63.73847
787.46        63.51872
787.87        63.25348
788.28        63.08802
788.70        62.96948
789.11        62.92551
789.52        63.02847
789.93        63.19463
790.35        63.20002
790.76        63.04791
791.17        62.93182
791.58        62.91882
792.00        62.86749
792.41        62.79035
792.82        63.00841
793.23        63.37455
793.65        63.02226
794.06        62.21059
794.47         62.3228
794.88        63.19998
795.29        63.58615
795.71         63.2027
796.12        63.09891
796.53        63.27091
796.94         63.1616
797.35        62.89852
797.76         63.1927
798.18         63.8886
798.59        64.22541
799.00        64.11982
799.41        63.74815
799.82        63.66117
800.23        63.54856
800.64        63.58167
801.06        63.69993
801.47        63.86711
801.88        63.93542
802.29        63.85033
802.70        63.64449
803.11        63.37027
803.52        63.11563
803.93        62.94806
804.34        62.87675
804.75        62.86058
805.17        62.96317
805.58        63.23615
805.99        63.19428
806.40        63.00333
806.81        64.02426
807.22        65.75904
807.63        65.65548
808.04        63.95735
808.45        63.26928
808.86        63.77264
809.27        64.00108
809.68        63.84194
810.09        63.82927
810.50        63.94986
810.91        64.06514
811.32        64.18736
811.73        64.32546
812.14        64.46649
812.55        64.62402
812.96        64.75455
813.37        64.73367
813.78        64.56398
814.19         64.3699
814.60        64.17646
815.01        63.94046
815.42        63.67436
815.83        63.41474
816.24        63.20837
816.65        63.12085
817.05        63.18262
817.46        63.35479
817.87        63.57847
818.28        63.71427
818.69        63.72915
819.10        63.64428
819.51        63.55079
819.92        63.61699
820.33        63.87617
820.74        64.26339
821.14        64.65098
821.55        64.83611
821.96        64.77329
822.37        64.52728
822.78         64.2083
823.19        64.00407
823.60        63.97493
824.00        64.08511
824.41        64.22595
824.82        64.31021
825.23        64.29158
825.64        64.20762
826.04          64.085
826.45        63.92161
826.86        63.74995
827.27        63.58589
827.68        63.44029
828.08        63.35977
828.49        63.31132
828.90        63.29315
829.31         63.3646
829.72        63.62102
830.12        64.07727
830.53        64.64146
830.94        65.12853
831.35        65.18402
831.75        64.75446
832.16        63.94288
832.57        63.04001
832.97        62.48911
833.38        62.41528
833.79        62.67634
834.20        63.13741
834.60        63.57457
835.01        63.90046
835.42        64.21574
835.82         64.4805
836.23        64.54743
836.64        64.43101
837.04        64.12402
837.45        63.82947
837.86        63.95356
838.26        64.58717
838.67        65.57886
839.08        66.58237
839.48        66.92905
839.89         66.4414
840.29        65.35805
840.70        64.18263
841.11        63.47176
841.51        63.37945
841.92        63.72457
842.33        64.31705
842.73        64.82256
843.14        65.01786
843.54        65.05452
843.95        65.03068
844.35        65.14953
844.76        65.43391
845.17        65.78883
845.57        66.09276
845.98        66.13881
846.38        65.90398
846.79         65.4622
847.19        64.94718
847.60        64.54813
848.00        64.33543
848.41        64.23051
848.81        64.21371
849.22        64.16797
849.62         64.0985
850.03        64.05143
850.43        64.01653
850.84        63.90342
851.24        63.74993
851.65        63.50442
852.05        63.38515
852.46        63.67351
852.86         64.3825
853.27        65.36774
853.67        66.24958
854.07        66.62267
854.48        66.39823
854.88         65.7276
855.29        64.80612
855.69        64.12608
856.10        63.80616
856.50        63.79876
856.90        63.95247
857.31        64.01766
857.71         63.9606
858.12        63.81163
858.52        63.67794
858.92        63.61435
859.33        63.62652
859.73        63.71632
860.13        63.79005
860.54        63.73257
860.94         63.5646
861.34         63.3159
861.75        63.09856
862.15        63.13109
862.55        63.43586
862.96        63.90612
863.36        64.44592
863.76        64.81467
864.17         64.9133
864.57        64.82833
864.97        64.56568
865.38        64.14845
865.78        63.64695
866.18        63.07039
866.58        62.53563
866.99        62.24949
867.39        62.29652
867.79        62.62363
868.19        63.13459
868.60        63.64883
869.00        64.12139
869.40          64.548
869.80        64.90391
870.21        65.14318
870.61        65.29679
871.01        65.32565
871.41        65.17806
871.81         64.7928
872.22         64.1837
872.62        63.37463
873.02        62.59835
873.42        62.24289
873.82        62.39499
874.22        62.95048
874.63        63.57548
875.03        63.74041
875.43        63.32241
875.83        62.50681
876.23        61.61843
876.63        61.16212
877.03        61.27285
877.44        61.76125
877.84        62.44902
878.24        63.05304
878.64        63.39378
879.04        63.39746
879.44        63.22417
879.84        63.23219
880.24        63.46333
880.64         63.7648
881.04        63.92336
881.44        63.64248
881.84        62.89201
882.24        61.81887
882.65          60.766
883.05        60.24118
883.45        60.36597
883.85        60.99834
884.25        61.85573
884.65        62.44212
885.05        62.59772
885.45         62.4625
885.85         62.2087
886.25        62.10992
886.65         62.2399
887.05        62.48262
887.45        62.75297
887.85         62.9309
888.25        62.96378
888.65        62.90209
889.04        62.76004
889.44         62.5703
889.84        62.34832
890.24        62.10304
890.64        61.85348
891.04        61.64167
891.44        61.48649
891.84        61.37707
892.24        61.34809
892.64        61.43887
893.04         61.6465
893.44        61.97375
893.83        62.32166
894.23        62.47375
894.63        62.40707
895.03          62.152
895.43        61.90073
895.83        61.98339
896.23        62.44617
896.63        63.15928
897.02        63.83765
897.42        64.04845
897.82        63.70095
898.22        62.98536
898.62         62.1291
899.01        61.46086
899.41        61.10523
899.81        60.94857
900.21        60.98797
900.61        61.21677
901.00        61.58725
901.40        62.09912
901.80        62.59001
902.20        62.78586
902.59        62.64132
902.99        62.21071
903.39        61.67748
903.79        61.36298
904.18        61.33957
904.58        61.50643
904.98        61.75974
905.38        61.94056
905.77        62.00417
906.17        62.04563
906.57        62.01551
906.96        61.82804
907.36        61.48923
907.76        61.02726
908.15        60.69167
908.55        60.86523
908.95        61.60122
909.34        62.77122
909.74        63.96925
910.14        64.60077
910.53        64.47768
910.93        63.80511
911.33         62.8344
911.72        61.95764
912.12        61.38467
912.52        61.01642
912.91        60.83411
913.31        60.82185
913.70        60.94907
914.10        61.20422
914.49        61.59679
914.89        62.03456
915.29        62.48481
915.68        62.95139
916.08        63.25756
916.47        63.20454
916.87        62.79204
917.26        62.06178
917.66        61.36003
918.05         61.0817
918.45        61.30492
918.84        61.96982
919.24        62.72091
919.64        63.04897
920.03        62.82633
920.42        62.17376
920.82        61.47623
921.21         61.2812
921.61        61.68977
922.00        62.55531
922.40        63.48963
922.79        63.93989
923.19        63.71915
923.58        63.06702
923.98         62.2818
924.37         61.7321
924.77        61.54335
925.16        61.54667
925.55        61.71659
925.95        61.99724
926.34        62.33561
926.74        62.73571
927.13        63.01463
927.52        62.80599
927.92        62.12557
928.31        61.09196
928.70         60.0451
929.10        59.48652
929.49        59.51873
929.89        59.94633
930.28        60.66146
930.67        61.35511
931.07         61.8525
931.46        62.29955
931.85        62.51047
932.24         62.2346
932.64        61.52749
933.03        60.45438
933.42        59.45595
933.82        59.18077
934.21        59.74681
934.60         61.0038
934.99        62.53455
935.39        63.55756
935.78        63.84554
936.17         63.5156
936.56        62.86292
936.96        62.36431
937.35        62.16637
937.74        62.13328
938.13        62.06742
938.53        61.70145
938.92        61.00904
939.31        60.14696
939.70        59.36665
940.09         58.9857
940.49        59.04202
940.88        59.46845
941.27        60.07957
941.66        60.52675
942.05        60.69964
942.44        60.70765
942.84        60.69647
943.23        60.89559
943.62        61.35795
944.01        61.93775
944.40        62.56375
944.79        63.15416
945.18        63.62384
945.57        63.97306
945.97        64.00954
946.36        63.52325
946.75        62.49849
947.14        61.12019
947.53        59.68863
947.92        58.60213
948.31        57.97764
948.70         57.7329
949.09        57.83877
949.48        58.21627
949.87        58.78913
950.26        59.55202
950.65        60.35366
951.04        60.94981
951.43         61.2523
951.82        61.26403
952.21        61.07993
952.60        60.89904
952.99        60.80308
953.38        60.77762
953.77        60.77689
954.16        60.72215
954.55        60.59134
954.94        60.38962
955.33        60.24236
955.72        60.34724
956.11        60.73045
956.50        61.34755
956.89        61.87208
957.28        61.76587
957.66        60.93871
958.05        59.61937
958.44        58.31158
958.83        57.73702
959.22        58.02977
959.61         58.9922
960.00        60.19035
960.39        60.80967
960.78         60.5895
961.16        59.77292
961.55        58.81349
961.94        58.30071
962.33        58.39468
962.72        58.94936
963.11        59.69156
963.49        60.13776
963.88        60.05137
964.27        59.58729
964.66        59.13256
965.04        59.27757
965.43        60.08509
965.82        61.43423
966.21        62.76913
966.60        63.03337
966.98         61.9563
967.37        60.00805
967.76        58.02162
968.15        57.03944
968.53        57.25586
968.92        58.39676
969.31        59.93859
969.69        60.82285
970.08        60.60965
970.47         59.6619
970.86        58.59874
971.24        58.29146
971.63        58.92725
972.02        60.22895
972.40        61.73123
972.79        62.30806
973.17        61.68124
973.56        60.26717
973.95        58.67134
974.33        57.63513
974.72        57.33164
975.11        57.51794
975.49        57.98612
975.88        58.30129
976.26        58.34258
976.65        58.21766
977.04        58.03661
977.42        57.92204
977.81        57.87336
978.19         57.7929
978.58        57.76792
978.96        57.91685
979.35        58.22181
979.74        58.68776
980.12        59.16472
980.51        59.16753
980.89        58.73468
981.28        57.99496
981.66        57.30528
982.05        57.14231
982.43         57.6109
982.82         58.5423
983.20        59.80767
983.59        61.04174
983.97        62.12426
984.35        63.11951
984.74         63.7788
985.12        63.96131
985.51        63.60583
985.89        62.74499
986.28        61.86399
986.66        61.64135
987.04        62.26615
987.43        63.56819
987.81        65.01547
988.20        65.44501
988.58        64.56608
988.96        62.70292
989.35        60.60418
989.73        59.32378
990.12        59.08992
990.50          59.661
990.88        60.49543
991.27        60.64864
991.65        59.88324
992.03        58.54329
992.42        57.29283
992.80        57.01509
993.18        57.89211
993.56        59.65559
993.95        61.61081
994.33        62.62035
994.71        62.20012
995.10        60.82034
995.48        59.16984
995.86        58.33499
996.24        58.57081
996.63        59.41362
997.01        60.66294
997.39        61.57618
997.77        61.79762
998.15        61.69302
998.54        61.15701
998.92        59.88288
999.30         58.0692
999.68        55.84842
1000.06        54.07286
1000.45        53.95966
1000.83         55.8106
1001.21        59.43362
1001.59        63.90926
1001.97        66.88021
1002.35        67.34441
1002.73        65.92622
1003.12         63.8777
1003.50        62.82214
1003.88        63.26217
1004.26        64.58794
1004.64        66.42619
1005.02        67.97277
1005.40         68.7476
1005.78        69.15437
1006.16        68.85133
1006.54        67.23602
1006.92        64.49921
1007.30        60.96438
1007.69        57.77985
1008.07        56.40385
1008.45        57.25645
1008.83        60.00484
1009.21        63.83327
1009.59        66.57288
1009.97        67.05526
1010.35        65.81482
1010.73        63.42834
1011.11        60.81059
1011.49        58.47232
1011.86        56.28861
1012.24        54.58314
1012.62        53.77432
1013.00        53.87179
1013.38        54.82447
1013.76        56.43959
1014.14        58.00755
1014.52        59.03488
1014.90          59.543
1015.28        59.47348
1015.66        58.87378
1016.04        57.86329
1016.41        56.45081
1016.79        54.93482
1017.17        53.99256
1017.55        53.83063
1017.93        54.25211
1018.31        55.06113
1018.69        55.93553
1019.06        56.79918
1019.44        57.87238
1019.82        58.82504
1020.20        58.92997
1020.58        57.99449
1020.95        56.09881
1021.33        54.40759
1021.71        54.25412
1022.09        55.82588
1022.46        59.14522
1022.84        62.89837
1023.22        63.78101
1023.60        60.72485
1023.97        54.85656
1024.35        49.32708
1024.73        47.65675
