SpectraSmart Spectrum 2.9.0.0
--------- Device Information -----------
Spectrum Name :  反射率_0
Saving Time :  2024/04/26 23:36:13
Spectro-Module Model Name : SE2030-DUVN
Spectro-Module Serial Number : OS361AC55029948
Wavelength Start : 200
Wavelength End : 1025
Wavelength Unit : Wavelength(nm)
Spectrum Unit : Reflectance(%)
-----------Spectrum Setting ------------
Integration Time : 20ms
Average : 10
Boxcar : 0
Background removal :  enabled
linearity correction :  enabled
SC :  disabled
Intensity correction :  disabled
DWT denoise :  enabled
savitzky-golay :  disabled
FFT :  disabled
Running average :  disabled
Kalman :  disabled
High pass :  disabled
---------------BEGIN--------------------
Wavelength(nm)             Reflectance(%)
200.29               0
200.75        36.68407
201.21        35.43357
201.67        35.07986
202.13        35.20783
202.58         35.6102
203.04        36.85211
203.50        39.37578
203.96        43.29512
204.42        48.25401
204.88        53.74466
205.34        58.11876
205.80        59.38121
206.26        57.33226
206.72        52.73546
207.18         47.9979
207.64        44.96797
208.10        43.54477
208.55        43.72762
209.01          44.151
209.47        41.94728
209.93        37.67786
210.39        34.14347
210.85        32.79182
211.31        34.40611
211.77        39.92676
212.23        53.28313
212.69        88.74235
213.14        157.0427
213.60        169.6752
214.06        133.1587
214.52        104.0356
214.98        89.14961
215.44        80.97394
215.90        74.07068
216.36        68.65239
216.81        66.08058
217.27        67.15079
217.73        73.67741
218.19        84.93492
218.65        91.21807
219.11        88.00143
219.57        80.54898
220.02         76.0472
220.48        79.77666
220.94        91.90789
221.40        113.9769
221.86        145.1694
222.32         164.776
222.77        155.2815
223.23        131.1632
223.69        107.8021
224.15        93.54085
224.61         86.8699
225.06        83.71476
225.52        83.12905
225.98        83.89066
226.44         85.5415
226.90        88.51809
227.36        91.93015
227.81        93.94694
228.27        94.29969
228.73        93.13718
229.19        91.98251
229.65        92.81045
230.10        95.62665
230.56        99.89408
231.02         103.642
231.48        103.8173
231.93        100.1484
232.39        94.51131
232.85        89.18091
233.31        87.09069
233.77        88.45523
234.22        92.14841
234.68        96.55925
235.14        99.20356
235.60        99.26904
236.05        97.50415
236.51        94.37965
236.97        91.31481
237.43        89.08503
237.88        87.38038
238.34        86.13924
238.80        85.51328
239.26        85.50857
239.71        86.92325
240.17        89.22042
240.63        91.41537
241.08        93.06649
241.54        93.44689
242.00        94.24271
242.46        99.29059
242.91        111.7236
243.37        133.4652
243.83        165.3033
244.28        193.2624
244.74        194.9969
245.20        169.3131
245.66        134.8906
246.11        108.1562
246.57        90.07674
247.03        76.43027
247.48        64.98898
247.94        54.85784
248.40        47.75767
248.85        44.11319
249.31        43.21435
249.77        44.07781
250.22        46.28261
250.68        49.98576
251.14        55.28046
251.59        60.75437
252.05          64.841
252.51        67.79297
252.96        68.84586
253.42        68.28999
253.88        66.85506
254.33        64.47334
254.79        64.06429
255.25        68.06603
255.70        75.87864
256.16        86.37531
256.62        95.26154
257.07        95.95596
257.53         90.3875
257.99         82.8932
258.44        76.71357
258.90        74.75533
259.35        75.74847
259.81         78.5482
260.27        81.60673
260.72        83.10078
261.18        83.09574
261.63        81.96011
262.09        80.82462
262.55        80.20187
263.00        79.98151
263.46         80.1164
263.91        79.89446
264.37        78.91175
264.83        77.17307
265.28        74.96976
265.74        73.09863
266.19         72.1125
266.65        72.14562
267.11        72.80107
267.56        73.62117
268.02        73.89771
268.47        73.41048
268.93        72.43842
269.38        71.13776
269.84        69.84401
270.30        68.66409
270.75        67.48162
271.21        66.42746
271.66         65.6182
272.12        65.06322
272.57         64.7037
273.03        64.35446
273.48        63.66302
273.94        62.63853
274.39         61.3418
274.85        60.04657
275.31        58.93021
275.76        58.00805
276.22        57.28232
276.67        56.62202
277.13        56.00912
277.58        55.33304
278.04        54.64512
278.49        53.89327
278.95         53.1753
279.40        52.42163
279.86         51.7172
280.31        50.90482
280.77        49.93843
281.22        48.78004
281.68        47.58843
282.13        46.47905
282.59        45.74902
283.04        45.36457
283.50        45.25401
283.95         45.2298
284.41        45.03526
284.86         44.5888
285.32        44.00948
285.77        43.36997
286.22        42.86068
286.68        42.52061
287.13        42.24527
287.59        41.99512
288.04        41.64931
288.50        41.22263
288.95        40.72159
289.41        40.22875
289.86        39.76179
290.32        39.37564
290.77        39.02779
291.22        38.71775
291.68        38.42371
292.13        38.12651
292.59        37.86332
293.04        37.65523
293.50        37.56416
293.95        37.59128
294.40        37.72149
294.86        37.92986
295.31        38.16338
295.77        38.41216
296.22        38.67278
296.68        38.95493
297.13         39.2517
297.58        39.57045
298.04        39.90921
298.49        40.25987
298.95        40.63701
299.40        41.02696
299.85        41.42236
300.31        41.82096
300.76        42.20179
301.21        42.55932
301.67        42.90743
302.12        43.20263
302.58        43.45249
303.03        43.62861
303.48         43.7596
303.94        43.88285
304.39        44.00739
304.84        44.15503
305.30        44.33107
305.75        44.49631
306.20        44.65472
306.66        44.81251
307.11         44.9513
307.57        45.07738
308.02        45.13871
308.47        45.14357
308.93          45.108
309.38        45.04824
309.83        45.05086
310.29        45.12618
310.74        45.24217
311.19        45.33101
311.65        45.27594
312.10        45.05156
312.55        44.70194
313.00        44.32292
313.46        44.05395
313.91        43.91137
314.36         43.8652
314.82        43.83873
315.27        43.72107
315.72        43.47965
316.18        43.16352
316.63        42.82467
317.08        42.56135
317.53        42.39358
317.99        42.27978
318.44        42.17849
318.89        42.01126
319.35        41.75988
319.80        41.45709
320.25        41.13506
320.70        40.84396
321.16        40.59709
321.61        40.38642
322.06        40.20335
322.51        40.03971
322.97        39.88086
323.42        39.73363
323.87        39.58468
324.32        39.41804
324.78        39.21539
325.23        39.00299
325.68        38.75871
326.13        38.46657
326.59        38.13694
327.04        37.79347
327.49        37.48449
327.94        37.29024
328.39        37.21724
328.85        37.22182
329.30        37.26959
329.75        37.22086
330.20        37.03794
330.66          36.753
331.11        36.43395
331.56        36.16346
332.01        35.97066
332.46        35.82306
332.92        35.69516
333.37        35.60188
333.82        35.51699
334.27        35.45584
334.72        35.39072
335.17        35.26791
335.63          35.078
336.08        34.85311
336.53        34.64452
336.98        34.55388
337.43        34.60229
337.88        34.75011
338.34        34.93539
338.79        35.08894
339.24        35.15958
339.69        35.16627
340.14        35.09956
340.59        34.94984
341.05        34.74273
341.50        34.48781
341.95        34.23982
342.40        34.08291
342.85        34.03689
343.30        34.07472
343.75        34.17311
344.20        34.28893
344.66        34.39989
345.11        34.51253
345.56        34.58491
346.01        34.55478
346.46        34.42474
346.91        34.21953
347.36        34.01508
347.81        33.93615
348.26        34.00468
348.72        34.17537
349.17        34.38435
349.62        34.54189
350.07        34.61496
350.52        34.63704
350.97        34.59011
351.42         34.4493
351.87         34.2285
352.32        33.93507
352.77        33.66059
353.22        33.54079
353.67        33.59489
354.13        33.79055
354.58        34.01009
355.03        34.05123
355.48        33.86586
355.93          33.513
356.38        33.12854
356.83        32.91838
357.28        32.92196
357.73        33.06997
358.18        33.23176
358.63        33.19876
359.08         32.9213
359.53        32.47225
359.98        31.97516
360.43        31.60778
360.88        31.41105
361.33        31.33114
361.78        31.27569
362.23        31.10054
362.68        30.77919
363.13        30.37204
363.58         29.9711
364.03        29.71119
364.48        29.61935
364.93        29.64077
365.38         29.7044
365.83         29.6993
366.28        29.58946
366.73        29.41109
367.18        29.18901
367.63        28.96159
368.08        28.74637
368.53        28.52787
368.98         28.3196
369.43        28.14659
369.88        28.01006
370.33        27.90751
370.78         27.8112
371.23        27.67071
371.68        27.47608
372.13        27.24403
372.58        27.00418
373.03        26.80428
373.48        26.65683
373.93        26.54512
374.38        26.45425
374.83        26.36112
375.28        26.25566
375.72        26.13864
376.17        26.02195
376.62        25.89028
377.07        25.74621
377.52        25.59421
377.97        25.44602
378.42        25.32743
378.87        25.24034
379.32        25.16532
379.77        25.10042
380.22        25.04022
380.67        24.97565
381.11        24.92125
381.56        24.81841
382.01        24.60102
382.46        24.28014
382.91         23.8982
383.36        23.55992
383.81        23.40611
384.26        23.45161
384.71        23.64747
385.15        23.89721
385.60        24.03731
386.05         24.0154
386.50        23.87564
386.95        23.67435
387.40        23.50477
387.85        23.39557
388.29         23.3005
388.74        23.22803
389.19        23.13562
389.64        23.01472
390.09        22.88169
390.54        22.74642
390.98        22.61579
391.43        22.51116
391.88        22.42681
392.33         22.3608
392.78        22.31129
393.23         22.2737
393.67        22.23333
394.12         22.2114
394.57        22.19503
395.02        22.18022
395.47        22.16294
395.91        22.13599
396.36        22.07705
396.81         21.9996
397.26        21.91631
397.71        21.84219
398.15        21.81213
398.60        21.85332
399.05        21.85812
399.50        21.83719
399.95        21.96951
400.39        22.17921
400.84        22.07555
401.29        21.69901
401.74        21.46332
402.18        21.40681
402.63        21.29676
403.08        21.15368
403.53        21.10283
403.97        21.14493
404.42         21.2494
404.87        21.35768
405.32        21.37069
405.76        21.26582
406.21        21.08392
406.66        20.88995
407.11        20.78898
407.55        20.81221
408.00        20.91953
408.45         21.0603
408.90        21.13268
409.34        21.10269
409.79        21.00556
410.24        20.88919
410.68        20.81492
411.13        20.80304
411.58        20.83051
412.03        20.86301
412.47         20.8467
412.92        20.76397
413.37        20.64718
413.81        20.53163
414.26        20.48288
414.71        20.50466
415.15        20.58049
415.60        20.67423
416.05        20.74267
416.49         20.7682
416.94        20.76021
417.39        20.72714
417.83        20.68022
418.28        20.62651
418.73          20.561
419.17         20.4986
419.62        20.46503
420.07        20.46642
420.51        20.49378
420.96        20.53226
421.41        20.55155
421.85        20.53609
422.30        20.48475
422.74        20.40633
423.19        20.40718
423.64           20.46
424.08        20.43065
424.53        20.31513
424.98        20.26636
425.42        20.30447
425.87        20.29751
426.31        20.25027
426.76        20.31573
427.21        20.43416
427.65        20.31902
428.10        20.05123
428.54        19.96592
428.99        20.09112
429.44        20.32132
429.88        20.54803
430.33        20.52217
430.77        20.29128
431.22        20.26478
431.66        20.44917
432.11        20.50565
432.56        20.44054
433.00        20.52363
433.45        20.66048
433.89        20.54006
434.34        20.30002
434.78        19.84961
435.23        20.30728
435.67         20.3592
436.12        20.28716
436.57        20.14637
437.01         19.9892
437.46        19.91292
437.90        19.92651
438.35        19.95342
438.79        19.95786
439.24        19.95422
439.68        19.93494
440.13        19.89103
440.57        19.85817
441.02         19.9101
441.46        20.04601
441.91        20.19938
442.35         20.3033
442.80        20.43026
443.24        20.50409
443.69         20.3085
444.13        19.93992
444.58        19.77584
445.02        19.85164
445.47        19.99374
445.91        20.13063
446.36        20.22048
446.80         20.2316
447.24        20.18326
447.69        20.11261
448.13        20.06734
448.58        20.06691
449.02        20.08917
449.47        20.11938
449.91        20.12746
450.36        20.11102
450.80        20.07654
451.25        20.04296
451.69         20.0228
452.13        20.02264
452.58        20.03485
453.02        20.04497
453.47         20.0339
453.91        19.99883
454.36        19.95143
454.80        19.90184
455.24        19.86477
455.69        19.84982
456.13        19.83554
456.58        19.83926
457.02        19.85652
457.46        19.89205
457.91        19.94593
458.35        19.97835
458.79        19.93295
459.24        19.82286
459.68        19.65826
460.13        19.51564
460.57        19.46087
461.01        19.52117
461.46        19.65537
461.90        19.82866
462.34        19.96517
462.79        20.02965
463.23        20.04809
463.68        20.01206
464.12        19.92404
464.56        19.79534
465.01        19.65671
465.45        19.51533
465.89        19.43427
466.34        19.42114
466.78        19.45728
467.22        19.53292
467.67        19.60794
468.11        19.67623
468.55         19.7349
468.99        19.77941
469.44        19.80228
469.88        19.80511
470.32        19.78693
470.77        19.75663
471.21        19.73506
471.65        19.72705
472.10        19.73177
472.54        19.74552
472.98        19.76722
473.42        19.79451
473.87        19.83469
474.31        19.86743
474.75        19.88041
475.20        19.87643
475.64        19.85045
476.08        19.82555
476.52        19.82749
476.97         19.8611
477.41        19.92875
477.85        20.01148
478.29        20.04855
478.74        20.04688
479.18        20.06823
479.62        20.11555
480.06        20.16054
480.50        20.20718
480.95        20.24871
481.39        20.25905
481.83        20.39647
482.27         20.3603
482.72        20.40202
483.16        20.44999
483.60        20.50247
484.04        20.55897
484.48        20.67862
484.93        20.90204
485.37        20.87705
485.81        21.19726
486.25        21.23624
486.69        20.94337
487.14        20.85327
487.58        21.64305
488.02        21.74095
488.46        21.46681
488.90        21.44847
489.34        21.40189
489.79        21.64653
490.23        21.94331
490.67         22.0375
491.11        21.93953
491.55        21.93702
491.99        22.05359
492.43        22.11901
492.88        22.13794
493.32        22.19902
493.76        22.29948
494.20        22.41586
494.64        22.55456
495.08        22.67578
495.52        22.77868
495.96         23.0127
496.41        23.32502
496.85        23.35481
497.29        23.16203
497.73        23.38692
498.17        23.69132
498.61        23.91626
499.05        23.92591
499.49        23.95333
499.93        23.95719
500.37        24.06261
500.82        24.24403
501.26         24.3942
501.70        24.50223
502.14          24.651
502.58        24.83221
503.02        24.98078
503.46        25.08832
503.90        25.17317
504.34         25.2359
504.78        25.27851
505.22        25.30579
505.66        25.31617
506.10        25.32494
506.54        25.35748
506.98        25.41908
507.42        25.50566
507.86        25.59947
508.30         25.6689
508.74        25.70654
509.18        25.72144
509.62        25.73167
510.06        25.76743
510.50        25.83548
510.94        25.92453
511.38        26.01939
511.82        26.09564
512.26        26.14688
512.70        26.18316
513.14        26.21178
513.58        26.24405
514.02         26.2845
514.46        26.32674
514.90        26.37431
515.34        26.43445
515.78        26.50396
516.22        26.57784
516.66        26.63924
517.10        26.66109
517.54        26.63871
517.98        26.58267
518.42        26.50858
518.86        26.44174
519.30        26.39298
519.74         26.3581
520.18        26.33812
520.62         26.3328
521.06        26.33963
521.50        26.35884
521.93        26.38475
522.37        26.39709
522.81        26.39451
523.25        26.37959
523.69        26.35556
524.13        26.32991
524.57        26.30387
525.01        26.27128
525.45        26.23516
525.89        26.20143
526.32         26.1664
526.76        26.13583
527.20        26.09387
527.64         26.0172
528.08        25.90646
528.52        25.77404
528.96        25.64568
529.40         25.5609
529.83        25.52699
530.27        25.53095
530.71        25.55304
531.15        25.56376
531.59         25.5519
532.03        25.52475
532.46        25.47636
532.90        25.41629
533.34        25.34507
533.78        25.24749
534.22        25.14029
534.66        25.08071
535.09        25.05694
535.53        25.00704
535.97        24.92804
536.41        24.87879
536.85        24.86159
537.28        24.83898
537.72        24.82981
538.16         24.8823
538.60        24.99638
539.04        25.15235
539.47        25.30583
539.91        25.40653
540.35        25.43937
540.79          25.425
541.22        25.39625
541.66        25.41518
542.10        25.49403
542.54          25.612
542.97        25.74805
543.41        25.88018
543.85         25.9951
544.29        26.10609
544.72        26.20328
545.16        26.28757
545.60        26.35841
546.04        26.41995
546.47        26.49878
546.91        26.63436
547.35        26.82915
547.79        27.06952
548.22        27.31855
548.66        27.51365
549.10        27.67349
549.53         27.8019
549.97         27.9217
550.41        28.00562
550.84        28.08998
551.28        28.25262
551.72        28.46144
552.15        28.65519
552.59         28.8532
553.03        28.77676
553.46        29.07206
553.90        29.18583
554.34        29.30685
554.77        29.43506
555.21        29.57825
555.65         29.7286
556.08        29.87307
556.52        29.99616
556.96        30.08958
557.39        30.22275
557.83        30.37243
558.27        30.36403
558.70        30.23971
559.14        30.25027
559.57         30.3902
560.01        30.50242
560.45        30.56879
560.88        30.65637
561.32        30.77587
561.75        30.87644
562.19        30.96846
562.63        31.06238
563.06        31.15335
563.50        31.24146
563.93        31.30265
564.37        31.38059
564.80        31.48888
565.24        31.54518
565.68        31.48694
566.11        31.90078
566.55        31.64358
566.98        31.67069
567.42        31.71296
567.85        31.84614
568.29        32.08685
568.72        32.42684
569.16        32.82795
569.60        33.08074
570.03        33.29214
570.47        33.39475
570.90        33.44979
571.34        33.57361
571.77        33.70495
572.21        33.91656
572.64        34.12391
573.08        34.21892
573.51        34.26718
573.95        34.39453
574.38        34.59201
574.82         34.9451
575.25         34.4747
575.69        34.43008
576.12        34.50498
576.56        34.58595
576.99        34.86026
577.42        34.81423
577.86        34.63073
578.29        35.27225
578.73        34.81632
579.16        34.75417
579.60        34.47456
580.03        34.53381
580.47        34.49009
580.90        34.49919
581.33        34.61593
581.77        34.69984
582.20        34.27356
582.64        34.22859
583.07        34.04403
583.51        33.90156
583.94        33.78718
584.37        33.73335
584.81        33.71756
585.24        33.55936
585.68        33.34562
586.11        33.07417
586.54        33.13949
586.98        33.03615
587.41        32.83755
587.85         33.0187
588.28         32.7731
588.71        32.56947
589.15        32.81235
589.58        32.66397
590.01        32.79827
590.45        32.81185
590.88        32.84914
591.31        32.77113
591.75        32.66961
592.18        32.58553
592.61        32.52527
593.05        33.07908
593.48        33.55875
593.91        33.14995
594.35        33.16941
594.78        32.92575
595.21        32.93459
595.65        33.24843
596.08        33.83068
596.51         34.0746
596.94        33.89467
597.38         33.9173
597.81        34.07117
598.24        34.78394
598.68         34.8108
599.11        34.76149
599.54        35.40603
599.97        35.55704
600.41        35.98176
600.84         36.1046
601.27        36.61668
601.70        36.77145
602.14        37.29415
602.57        37.46143
603.00        38.00965
603.43        37.98408
603.87        38.93883
604.30        39.36893
604.73        39.59543
605.16        39.60823
605.60        39.96587
606.03        40.31648
606.46        40.80759
606.89         40.9222
607.32        41.85558
607.76        42.07674
608.19        42.53365
608.62        42.74575
609.05        43.03349
609.48        43.35126
609.92        44.22282
610.35        44.50656
610.78        44.58171
611.21        44.49534
611.64        45.10555
612.07        45.48556
612.50        45.62149
612.94        45.86761
613.37        46.13955
613.80        46.49595
614.23        46.37315
614.66        46.73137
615.09        47.33979
615.52        47.70889
615.96        47.81298
616.39        48.05245
616.82        48.45555
617.25        48.59375
617.68        48.79163
618.11        49.03068
618.54        49.38905
618.97        49.62434
619.40        49.70489
619.84        49.97501
620.27         49.9725
620.70        50.03043
621.13        50.02956
621.56        50.00055
621.99        49.97109
622.42        50.00681
622.85         50.1221
623.28        50.11238
623.71         50.3575
624.14        50.32882
624.57        50.70241
625.00        50.63636
625.43        50.60399
625.86        50.47435
626.29        50.42295
626.72        49.99253
627.15        50.11811
627.58        50.06152
628.01        50.01787
628.44        49.82398
628.87        49.50468
629.30        49.06295
629.73        48.84458
630.16        48.58135
630.59        48.37349
631.02        48.25707
631.45         48.1731
631.88        47.98196
632.31        47.64858
632.74        47.21348
633.17        46.71969
633.60        46.23965
634.03        45.80146
634.46         45.3848
634.89        44.96977
635.32        44.53506
635.75        44.08051
636.18        43.57647
636.61        43.07288
637.04        42.66806
637.47         42.3721
637.89        42.14588
638.32        41.92639
638.75        41.65555
639.18         41.3172
639.61        40.93554
640.04        40.55019
640.47        40.21901
640.90        39.95874
641.33        39.75507
641.76        39.58902
642.18        39.43548
642.61        39.27471
643.04        39.12093
643.47        38.99215
643.90        38.91333
644.33        38.88859
644.76        38.91205
645.18        38.95381
645.61          38.957
646.04        38.91936
646.47        38.86258
646.90         38.8456
647.33        38.95261
647.75        39.18837
648.18        39.57024
648.61        40.05325
649.04        40.41376
649.47        40.59461
649.89        41.25288
650.32        41.33189
650.75        41.75969
651.18        42.22061
651.61         42.6983
652.03        43.19341
652.46        43.72932
652.89        44.28889
653.32        44.74635
653.74        45.15397
654.17        45.43205
654.60        45.93845
655.03        46.23397
655.46        46.09499
655.88        46.81332
656.31        48.85207
656.74        50.80713
657.16        50.71087
657.59        50.76091
658.02        49.73995
658.45        50.75496
658.87        50.23214
659.30         50.9909
659.73        50.80222
660.15        52.23512
660.58        51.75775
661.01        52.04647
661.44        52.27797
661.86        52.39157
662.29        52.40291
662.72        53.05281
663.14        53.29649
663.57        53.51841
664.00        53.49519
664.42        53.71524
664.85        54.20562
665.27        54.70657
665.70        55.10902
666.13        55.40445
666.55        55.57157
666.98        55.55859
667.41        55.41957
667.83        55.60654
668.26        55.57687
668.69        55.77386
669.11        56.01756
669.54        56.29311
669.96        56.58804
670.39        56.90307
670.82         57.2163
671.24        57.47208
671.67        57.65422
672.09        57.73096
672.52        57.75126
672.94        57.83298
673.37        57.96581
673.80        57.97223
674.22        57.89565
674.65        57.92109
675.07        58.07889
675.50        58.25852
675.92        58.42857
676.35        58.56931
676.77        58.66951
677.20        58.73162
677.62        58.78957
678.05        58.89888
678.47        59.06894
678.90        59.28536
679.32        59.51103
679.75        59.69995
680.17        59.83453
680.60        59.93008
681.02        60.01502
681.45        60.13361
681.87        60.30938
682.30        60.50596
682.72        60.70392
683.15        60.87548
683.57        61.00137
684.00        60.99088
684.42         60.9259
684.85        61.02892
685.27        61.31946
685.70        61.68814
686.12        62.01088
686.54        62.20026
686.97        62.25601
687.39        61.91921
687.82        61.93052
688.24        61.81525
688.66        61.81137
689.09        61.90371
689.51        62.08709
689.94        62.28758
690.36        62.48051
690.78        62.67583
691.21        62.86253
691.63        63.01522
692.06        63.13054
692.48        63.21762
692.90        63.26221
693.33        63.25345
693.75        63.20351
694.17        63.09927
694.60        63.01922
695.02        63.12193
695.44        63.40565
695.87        63.75618
696.29        64.09131
696.71        64.25436
697.14        64.24333
697.56        64.18045
697.98        64.14748
698.41        64.17583
698.83        64.27932
699.25        64.51917
699.68        64.78506
700.10        64.91978
700.52        64.87108
700.94          64.702
701.37        64.53864
701.79        64.58876
702.21        64.88436
702.64        65.33833
703.06        65.82242
703.48        66.10961
703.90        66.13951
704.33        65.99087
704.75        65.75179
705.17        65.55435
705.59        65.45885
706.01        65.42976
706.44           65.48
706.86        65.64915
707.28        65.91302
707.70        66.25078
708.12        66.60632
708.55         66.8889
708.97        67.06532
709.39        67.11544
709.81        67.06145
710.23        66.99788
710.66        66.95061
711.08        66.90429
711.50        66.84514
711.92        66.78129
712.34        66.72048
712.76        66.67642
713.19        66.66567
713.61        66.74489
714.03         66.9045
714.45         67.1319
714.87        67.39194
715.29        67.63583
715.71        67.84226
716.13          68.001
716.56        68.11377
716.98        68.28307
717.40        68.48246
717.82        68.69212
718.24         68.8322
718.66        68.77603
719.08        68.52405
719.50        68.14786
719.92        67.78191
720.34        67.62611
720.76        67.72658
721.19        67.99995
721.61        68.39645
722.03        68.77534
722.45        69.06948
722.87        69.30507
723.29        69.44269
723.71        69.42457
724.13        69.25932
724.55        68.96619
724.97        68.64417
725.39        68.47145
725.81        68.49633
726.23         68.6549
726.65         68.8745
727.07        69.18131
727.49        69.28711
727.91        69.42368
728.33        69.53868
728.75        69.67641
729.17        69.83946
729.59        69.99521
730.01        70.12894
730.43        70.22355
730.85         70.2766
731.27        70.29945
731.69        70.27817
732.10        70.23196
732.52          70.089
732.94        69.91248
733.36        69.77856
733.78        69.69078
734.20        69.67252
734.62        70.03609
735.04        70.68054
735.46        70.15746
735.88        70.49519
736.30        70.07493
736.72        70.73278
737.13        71.21391
737.55        71.65308
737.97        71.85078
738.39        71.74198
738.81         71.2469
739.23        70.60163
739.65         70.6358
740.06        71.23411
740.48        71.50578
740.90        71.39016
741.32        71.47456
741.74        71.76897
742.16        71.95837
742.57        72.02275
742.99        72.03147
743.41        72.00949
743.83        71.97528
744.25        71.94279
744.67        71.89299
745.08        71.85919
745.50         71.8711
745.92        71.94012
746.34         72.0547
746.75        72.16861
747.17        72.18817
747.59        72.10706
748.01        71.96535
748.42        71.82007
748.84        71.76321
749.26        71.83096
749.68        71.96415
750.09        72.11901
750.51        72.34247
750.93        72.52898
751.35        72.39142
751.76         71.9962
752.18        71.74322
752.60         71.6653
753.01        71.58383
753.43        71.48415
753.85        71.42344
754.27         71.4063
754.68        71.60228
755.10        71.70143
755.52        71.91468
755.93        72.11282
756.35        72.26095
756.77        72.42785
757.18        72.58515
757.60        72.74284
758.02         73.2236
758.43        73.77988
758.85        73.05646
759.26        72.82673
759.68        71.79415
760.10        71.43113
760.51        72.70737
760.93        73.26069
761.34        73.60751
761.76          73.116
762.18        72.95462
762.59        73.27359
763.01        73.67365
763.42        74.08704
763.84        74.19298
764.26        73.97562
764.67         73.6384
765.09         73.3495
765.50        73.12782
765.92        73.05386
766.33        73.09489
766.75        73.12987
767.16        73.19108
767.58        73.20953
768.00        72.99751
768.41          72.715
768.83        73.05397
769.24        73.80194
769.66        73.88148
770.07        73.36258
770.49        73.04327
770.90        73.12553
771.32        73.74876
771.73        74.66376
772.15        75.06445
772.56        74.88411
772.97        74.42955
773.39        73.87136
773.80        74.05954
774.22        73.84682
774.63        74.21809
775.05        74.60955
775.46        74.79005
775.88        74.65014
776.29        74.32118
776.70         73.9743
777.12        73.86452
777.53        74.06844
777.95        74.45728
778.36        74.90203
778.77        75.12471
779.19        75.06372
779.60        74.89055
780.02        74.67563
780.43        74.40951
780.84        74.23466
781.26        74.28184
781.67        74.55365
782.09        75.07224
782.50        75.61324
782.91        75.53551
783.33        74.93593
783.74        74.66807
784.15         74.7864
784.57        74.84024
784.98        74.83074
785.39        74.84185
785.81        74.93891
786.22        75.38827
786.63        76.03215
787.04        76.36088
787.46        76.33385
787.87        76.09991
788.28        75.79652
788.70        75.87167
789.11        75.78114
789.52        76.01826
789.93        76.29269
790.35        76.30029
790.76        76.04535
791.17        75.82096
791.58        75.73459
792.00        75.62053
792.41        75.50764
792.82        75.76104
793.23        76.21767
793.65         75.9121
794.06        75.12412
794.47        75.36184
794.88        76.43041
795.29        76.93752
795.71        76.52879
796.12        76.31237
796.53         76.3278
796.94        76.33202
797.35        76.39063
797.76        76.65955
798.18        77.00728
798.59        77.26543
799.00        77.39021
799.41        76.97962
799.82        77.00943
800.23        76.88003
800.64         76.8926
801.06        76.95218
801.47        77.05098
801.88        77.06108
802.29        76.94053
802.70        76.73522
803.11        76.50005
803.52          76.323
803.93        76.25893
804.34        76.29687
804.75        76.40204
805.17        76.62119
805.58        76.99593
805.99        77.11517
806.40         77.0514
806.81         77.8433
807.22        79.06033
807.63        78.58768
808.04        76.76572
808.45        75.99733
808.86        76.48669
809.27         76.9609
809.68        77.17431
810.09        77.30133
810.50        77.25849
810.91        77.00651
811.32        76.73784
811.73        76.75734
812.14        77.12519
812.55        77.75143
812.96        78.41972
813.37         78.7155
813.78        78.52147
814.19        78.00481
814.60        77.36346
815.01        76.84965
815.42        76.53541
815.83        76.34666
816.24        76.27098
816.65         76.2848
817.05          76.378
817.46        76.55263
817.87        76.76739
818.28        76.89056
818.69         76.8978
819.10        76.78863
819.51        76.68855
819.92        76.83674
820.33        77.26811
820.74        77.89015
821.14        78.48904
821.55        78.72066
821.96        78.51347
822.37        77.97953
822.78        77.31626
823.19        76.85965
823.60        76.72891
824.00         76.8682
824.41        77.12641
824.82        77.35815
825.23        77.48547
825.64        77.55416
826.04        77.60278
826.45        77.64012
826.86        77.69308
827.27        77.75613
827.68        77.77959
828.08        77.72572
828.49        77.53915
828.90        77.25112
829.31        77.01355
829.72        77.07216
830.12        77.48951
830.53        78.13293
830.94        78.74602
831.35        78.83233
831.75        78.30363
832.16        77.31144
832.57        76.21622
832.97        75.56413
833.38        75.50926
833.79        75.86519
834.20        76.47001
834.60        77.06277
835.01        77.53766
835.42        78.01508
835.82        78.43228
836.23        78.58341
836.64        78.47601
837.04        78.09956
837.45        77.71991
837.86        77.86486
838.26        78.64983
838.67        79.88326
839.08        81.10892
839.48        81.45174
839.89        80.69792
840.29        79.18436
840.70        77.57681
841.11        76.62334
841.51        76.52493
841.92        77.03032
842.33         77.9032
842.73        78.72336
843.14        79.18675
843.54        79.46144
843.95        79.59521
844.35        79.72738
844.76        79.87688
845.17         79.9762
845.57        79.96094
845.98        79.72308
846.38        79.29105
846.79        78.72169
847.19         78.1881
847.60        77.92266
848.00        77.98966
848.41        78.29403
848.81        78.70877
849.22        78.91915
849.62        78.88496
850.03        78.68005
850.43        78.42013
850.84        78.22256
851.24        78.18549
851.65        78.18017
852.05        78.32123
852.46        78.67339
852.86         79.2056
853.27        79.88118
853.67        80.40724
854.07         80.5103
854.48        80.13183
854.88         79.3857
855.29        78.46826
855.69        77.90679
856.10        77.79516
856.50        78.09193
856.90        78.56089
857.31        78.81558
857.71        78.79017
858.12         78.5142
858.52        78.17964
858.92        77.97698
859.33        77.95249
859.73        78.09334
860.13        78.22119
860.54        78.07908
860.94        77.67057
861.34        77.07226
861.75        76.52089
862.15        76.44203
862.55        76.89304
862.96        77.68789
863.36        78.58926
863.76        79.09505
864.17        79.03715
864.57        78.59831
864.97         77.8924
865.38        77.11041
865.78        76.38634
866.18        75.67516
866.58        75.10978
866.99        74.92427
867.39         75.1893
867.79        75.83892
868.19        76.67172
868.60        77.33624
869.00        77.76019
869.40        77.97405
869.80        78.04945
870.21        78.14561
870.61        78.36839
871.01        78.59375
871.41        78.69209
871.81        78.49181
872.22        77.97322
872.62        77.21253
873.02          76.433
873.42        75.99602
873.82         76.0037
874.22        76.35859
874.63        76.81556
875.03        76.99317
875.43        76.78165
875.83        76.30291
876.23        75.76868
876.63        75.50439
877.03        75.59398
877.44        75.90771
877.84        76.30775
878.24        76.55492
878.64        76.53474
879.04        76.21883
879.44        75.80888
879.84        75.68005
880.24        75.87583
880.64        76.25713
881.04        76.55171
881.44        76.34317
881.84        75.56665
882.24        74.39454
882.65        73.21149
883.05        72.59295
883.45        72.68891
883.85        73.35001
884.25        74.26746
884.65        74.90405
885.05        75.08801
885.45        74.95885
885.85        74.74976
886.25        74.82903
886.65        75.27026
887.05        75.91881
887.45         76.5501
887.85        76.81368
888.25          76.617
888.65         76.1002
889.04        75.45307
889.44        74.98288
889.84         74.7795
890.24        74.77683
890.64         74.8963
891.04        75.01109
891.44        75.06974
891.84        75.09946
892.24        75.16054
892.64        75.32996
893.04        75.62104
893.44        76.02356
893.83        76.41367
894.23        76.53888
894.63        76.37823
895.03        75.97141
895.43        75.59105
895.83        75.69425
896.23        76.33917
896.63        77.34878
897.02        78.29826
897.42        78.52854
897.82        77.91357
898.22        76.74016
898.62        75.37428
899.01         74.3485
899.41        73.85243
899.81        73.70341
900.21        73.86449
900.61        74.27349
901.00        74.83984
901.40        75.56837
901.80        76.24345
902.20        76.49993
902.59        76.28244
902.99        75.67516
903.39        74.91488
903.79        74.41927
904.18        74.30341
904.58        74.45081
904.98        74.78648
905.38        75.19239
905.77        75.61254
906.17        76.12249
906.57        76.57208
906.96        76.70451
907.36        76.46682
907.76        75.91666
908.15        75.39429
908.55        75.43802
908.95        76.14656
909.34        77.35665
909.74        78.58169
910.14        79.10804
910.53        78.72745
910.93        77.70656
911.33        76.39304
911.72        75.31112
912.12        74.70882
912.52        74.43994
912.91        74.40884
913.31        74.49458
913.70        74.63679
914.10        74.85475
914.49         75.2093
914.89        75.67809
915.29        76.24908
915.68        76.88525
916.08        77.36565
916.47        77.43993
916.87        77.08704
917.26        76.37104
917.66        75.63723
918.05        75.25085
918.45        75.30559
918.84        75.75291
919.24        76.31068
919.64        76.61964
920.03        76.58387
920.42        76.27292
920.82        75.95998
921.21        76.01326
921.61        76.48528
922.00        77.29101
922.40        78.10236
922.79        78.51251
923.19        78.37099
923.58        77.85323
923.98        77.23495
924.37        76.84076
924.77         76.7824
925.16          76.909
925.55        77.14474
925.95         77.3412
926.34        77.43935
926.74        77.45863
927.13        77.32552
927.52        76.84418
927.92        76.07904
928.31         75.1206
928.70        74.19063
929.10        73.59188
929.49        73.39128
929.89        73.44106
930.28        73.81728
930.67        74.50424
931.07        75.39725
931.46        76.56665
931.85        77.57053
932.24        77.75275
932.64        77.06464
933.03        75.66167
933.42        74.26238
933.82        73.93767
934.21        74.89761
934.60        76.88966
934.99        79.18099
935.39        80.42759
935.78        80.27027
936.17        78.98463
936.56        77.29692
936.96        76.35873
937.35        76.47021
937.74         77.2887
938.13        78.18744
938.53        78.20396
938.92        77.15659
939.31        75.46913
939.70        73.77242
940.09        72.93402
940.49        73.11761
940.88        74.06392
941.27        75.38473
941.66          76.377
942.05         76.7737
942.44         76.7927
942.84        76.61426
943.23        76.51516
943.62        76.59874
944.01        76.70518
944.40        76.84628
944.79        77.09161
945.18        77.40421
945.57        77.77283
945.97        77.96729
946.36        77.69458
946.75        76.88557
947.14        75.73487
947.53        74.51499
947.92        73.59772
948.31        73.09383
948.70        72.90134
949.09        73.01855
949.48        73.42863
949.87        74.06311
950.26        74.90218
950.65        75.73831
951.04        76.22677
951.43        76.27763
951.82         75.9629
952.21        75.46677
952.60        75.12074
952.99        75.05239
953.38        75.20279
953.77        75.51559
954.16        75.90086
954.55        76.29752
954.94        76.68317
955.33        77.08376
955.72        77.52406
956.11        77.97371
956.50        78.43115
956.89        78.61663
957.28        78.10056
957.66        76.86562
958.05        75.14698
958.44        73.54423
958.83        72.90051
959.22        73.35123
959.61        74.67196
960.00        76.27786
960.39         77.0628
960.78        76.67947
961.16        75.44806
961.55        73.99277
961.94        73.12557
962.33        73.06776
962.72        73.62273
963.11        74.44983
963.49        74.94578
963.88        74.81441
964.27        74.26289
964.66        73.76613
965.04        74.04446
965.43        75.17303
965.82        76.98483
966.21         78.7776
966.60        79.21722
966.98        77.94383
967.37        75.53769
967.76        73.02309
968.15        71.67896
968.53        71.75059
968.92        72.90418
969.31        74.52258
969.69        75.37807
970.08        74.96164
970.47        73.69974
970.86        72.34226
971.24        71.92424
971.63        72.66895
972.02        74.27961
972.40         76.1321
972.79        76.73869
973.17        75.75701
973.56        73.72444
973.95        71.58575
974.33        70.54494
974.72        70.84371
975.11        72.11853
975.49        73.80582
975.88        74.72377
976.26        74.52647
976.65         73.5259
977.04        72.27946
977.42        71.60494
977.81        71.68844
978.19        72.23645
978.58        73.01229
978.96        73.62962
979.35        73.89729
979.74        73.95971
980.12          73.928
980.51        73.73048
980.89        73.54161
981.28        73.36729
981.66        73.23236
982.05        73.16827
982.43        73.20143
982.82         73.2638
983.20        73.66919
983.59        74.81875
983.97        76.81287
984.35        79.45929
984.74        81.84137
985.12        82.69984
985.51        81.68396
985.89        79.21154
986.28        76.41849
986.66        74.93777
987.04        75.24208
987.43        76.89867
987.81        79.12778
988.20        80.22575
988.58        79.66614
988.96        77.89079
989.35        75.79975
989.73         74.6328
990.12         74.6672
990.50        75.59161
990.88        76.64113
991.27        76.52879
991.65        75.01235
992.03        72.61058
992.42        70.43263
992.80        69.93775
993.18        71.41525
993.56        74.44297
993.95        77.91767
994.33        79.90144
994.71        79.57306
995.10        77.64887
995.48         75.1746
995.86        73.78294
996.24        73.89122
996.63        74.84575
997.01        76.39104
997.39        77.59747
997.77        77.99274
998.15        78.01608
998.54         77.5382
998.92        76.16211
999.30         74.1006
999.68        71.50798
1000.06        69.29035
1000.45        68.74249
1000.83        70.18112
1001.21        73.36638
1001.59         77.4268
1001.97        80.11977
1002.35        80.50686
1002.73        79.24946
1003.12        77.41393
1003.50        76.30999
1003.88        76.40648
1004.26        77.13412
1004.64        78.45229
1005.02        80.21968
1005.40        82.12129
1005.78        84.32328
1006.16        85.87212
1006.54        85.24512
1006.92        82.42739
1007.30         77.9871
1007.69        73.62469
1008.07        71.61399
1008.45        72.57661
1008.83        75.99586
1009.21        80.58599
1009.59        83.14951
1009.97        82.21477
1010.35          78.817
1010.73         74.3124
1011.11        70.59998
1011.49        68.32679
1011.86        66.93849
1012.24        66.34171
1012.62        66.41914
1013.00        67.02771
1013.38         68.2582
1013.76        69.92416
1014.14        71.31687
1014.52        71.98825
1014.90        71.96639
1015.28        71.26877
1015.66        70.05385
1016.04        68.47008
1016.41        66.50927
1016.79        64.63953
1017.17        63.81535
1017.55        64.25502
1017.93        65.66836
1018.31        67.40858
1018.69        68.51929
1019.06        68.81188
1019.44        68.54541
1019.82        67.90573
1020.20        67.40527
1020.58        67.26991
1020.95        67.10461
1021.33        67.21307
1021.71        67.90314
1022.09         69.2371
1022.46        71.54821
1022.84        73.89931
1023.22        74.07944
1023.60        71.48807
1023.97        66.77184
1024.35        62.62598
1024.73        62.12172
