SpectraSmart Spectrum 2.9.0.0
--------- Device Information -----------
Spectrum Name :  反射率_0
Saving Time :  2024/04/26 23:39:10
Spectro-Module Model Name : SE2030-DUVN
Spectro-Module Serial Number : OS361AC55029948
Wavelength Start : 200
Wavelength End : 1025
Wavelength Unit : Wavelength(nm)
Spectrum Unit : Reflectance(%)
-----------Spectrum Setting ------------
Integration Time : 20ms
Average : 10
Boxcar : 0
Background removal :  enabled
linearity correction :  enabled
SC :  disabled
Intensity correction :  disabled
DWT denoise :  enabled
savitzky-golay :  disabled
FFT :  disabled
Running average :  disabled
Kalman :  disabled
High pass :  disabled
---------------BEGIN--------------------
Wavelength(nm)             Reflectance(%)
200.29               0
200.75        29.35911
201.21        25.96106
201.67         23.2072
202.13        21.66672
202.58        21.10398
203.04        21.80407
203.50         23.3776
203.96        24.28614
204.42        23.61836
204.88        21.30939
205.34        19.14609
205.80        20.45915
206.26        25.22675
206.72        31.33572
207.18        36.06299
207.64        37.31432
208.10        35.07619
208.55        29.66201
209.01        21.18394
209.47        15.68924
209.93        17.36022
210.39        22.61998
210.85        27.75469
211.31        31.65099
211.77        35.41877
212.23        41.37418
212.69        55.30214
213.14        83.36102
213.60        89.65539
214.06        75.65855
214.52        62.97108
214.98        54.21104
215.44        46.65839
215.90        38.40319
216.36        30.99321
216.81        27.33237
217.27         28.7963
217.73        36.16039
218.19        48.24096
218.65        54.37729
219.11        49.77936
219.57        41.10154
220.02        35.47816
220.48        36.99977
220.94        45.54347
221.40        61.84177
221.86        85.56004
222.32        101.7701
222.77         96.8518
223.23        80.78924
223.69        64.23497
224.15        53.12823
224.61        46.81152
225.06        42.69646
225.52        40.55521
225.98        40.14357
226.44        41.05355
226.90        43.33635
227.36        45.91634
227.81        46.83123
228.27        45.86913
228.73         43.5543
229.19        41.45153
229.65        41.43291
230.10        43.56421
230.56        47.26869
231.02        50.91371
231.48        51.91254
231.93        49.92252
232.39         46.2975
232.85        42.92242
233.31        42.24074
233.77        44.43185
234.22         48.6047
234.68        53.19311
235.14        55.81816
235.60        55.77132
236.05        53.70417
236.51        50.55096
236.97        48.41043
237.43        48.23695
237.88        49.54224
238.34        51.58916
238.80        53.36793
239.26        54.54976
239.71        55.84951
240.17        57.28513
240.63        59.25441
241.08        62.01918
241.54        64.73882
242.00        67.81734
242.46         72.6544
242.91        80.71519
243.37        92.95278
243.83        109.2351
244.28        120.7045
244.74        115.7823
245.20        96.53165
245.66        75.00729
246.11        60.21188
246.57        52.19837
247.03        47.61859
247.48        46.12284
247.94        47.22432
248.40        49.52343
248.85        52.30442
249.31        54.04919
249.77        52.94126
250.22        48.81707
250.68        41.48035
251.14        32.36201
251.59        28.03805
252.05        32.33694
252.51         42.0279
252.96        51.73602
253.42        56.98048
253.88        57.86329
254.33        56.03563
254.79        54.22811
255.25        54.40015
255.70        56.52576
256.16         59.9673
256.62         62.7057
257.07        61.93092
257.53        58.77067
257.99        54.99931
258.44        52.16795
258.90        51.90746
259.35        53.29486
259.81         55.7191
260.27        57.84634
260.72        58.07428
261.18        56.66735
261.63        54.23077
262.09        52.02284
262.55        50.88638
263.00        50.70514
263.46        51.16684
263.91        51.52142
264.37        51.11317
264.83         49.8879
265.28         48.1732
265.74        46.61806
266.19        45.73043
266.65        45.61755
267.11        45.94737
267.56        46.36689
268.02         46.3296
268.47        45.69648
268.93        44.71501
269.38         43.5362
269.84        42.43753
270.30        41.51028
270.75        40.64862
271.21        39.96403
271.66        39.57684
272.12        39.47054
272.57        39.58226
273.03        39.66184
273.48        39.28314
273.94        38.42864
274.39        37.21996
274.85        35.98597
275.31        35.05179
275.76        34.46451
276.22        34.13881
276.67        33.91934
277.13         33.6773
277.58        33.31103
278.04         32.8949
278.49        32.39315
278.95        31.86249
279.40        31.27692
279.86        30.70395
280.31        30.09341
280.77        29.48534
281.22        28.86437
281.68        28.29142
282.13        27.81178
282.59        27.56754
283.04        27.52426
283.50        27.64278
283.95        27.78314
284.41        27.73846
284.86        27.45787
285.32        27.03209
285.77        26.55497
286.22         26.2201
286.68        26.06492
287.13        25.99791
287.59        25.96809
288.04        25.85332
288.50        25.65196
288.95        25.39313
289.41        25.12799
289.86         24.8619
290.32        24.64151
290.77        24.44645
291.22         24.3193
291.68        24.31299
292.13        24.42141
292.59        24.64172
293.04        24.92804
293.50        25.22676
293.95        25.50623
294.40        25.77494
294.86        26.05002
295.31        26.35375
295.77        26.69969
296.22        27.07541
296.68        27.46186
297.13        27.81784
297.58        28.14441
298.04        28.45306
298.49        28.79205
298.95        29.25066
299.40        29.82738
299.85        30.49054
300.31        31.14419
300.76        31.63342
301.21        31.93226
301.67        32.10056
302.12         32.2179
302.58        32.46354
303.03        32.84592
303.48        33.32312
303.94        33.81575
304.39         34.1748
304.84        34.38016
305.30        34.48812
305.75        34.53984
306.20        34.64989
306.66         34.8478
307.11        35.07801
307.57        35.29274
308.02        35.37654
308.47        35.32187
308.93        35.17814
309.38        35.00044
309.83         34.9149
310.29        34.94794
310.74        35.05804
311.19        35.17249
311.65        35.16907
312.10         35.0153
312.55        34.75026
313.00        34.45996
313.46        34.27055
313.91        34.19353
314.36        34.19422
314.82        34.18531
315.27        34.03927
315.72        33.72635
316.18         33.3043
316.63         32.8513
317.08        32.49858
317.53        32.27821
317.99        32.14657
318.44        32.05058
318.89        31.89336
319.35        31.64712
319.80        31.34127
320.25        31.01822
320.70        30.74292
321.16        30.53088
321.61        30.37194
322.06        30.22065
322.51        30.00985
322.97        29.72086
323.42        29.37605
323.87         29.0421
324.32        28.83014
324.78        28.74928
325.23        28.78154
325.68         28.8065
326.13        28.63008
326.59        28.21261
327.04         27.6317
327.49        27.02782
327.94        26.62084
328.39        26.45901
328.85        26.46284
329.30         26.5508
329.75        26.52415
330.20        26.31792
330.66         25.9894
331.11        25.61079
331.56        25.27231
332.01        25.00917
332.46        24.78782
332.92         24.5862
333.37        24.41588
333.82        24.25998
334.27        24.12994
334.72        24.02672
335.17        23.93987
335.63        23.86378
336.08        23.81363
336.53        23.76922
336.98        23.71171
337.43        23.63481
337.88        23.52597
338.34        23.42525
338.79        23.42808
339.24        23.53514
339.69        23.72227
340.14        23.87225
340.59        23.79743
341.05        23.47762
341.50        22.97884
341.95        22.46171
342.40        22.17002
342.85        22.15924
343.30        22.35388
343.75        22.62949
344.20        22.78028
344.66        22.74688
345.11        22.59071
345.56        22.38341
346.01        22.23843
346.46        22.19221
346.91        22.20278
347.36        22.23602
347.81        22.24828
348.26        22.22385
348.72        22.18108
349.17        22.13453
349.62        22.11204
350.07        22.12003
350.52        22.15247
350.97        22.17379
351.42        22.13109
351.87        22.01875
352.32         21.8537
352.77        21.69995
353.22        21.65112
353.67        21.71921
354.13        21.87521
354.58        22.03471
355.03        22.06118
355.48        21.92425
355.93        21.67132
356.38        21.39127
356.83        21.21755
357.28        21.17841
357.73        21.22645
358.18        21.29912
358.63        21.29584
359.08        21.18675
359.53        21.00898
359.98        20.79433
360.43        20.58519
360.88        20.39761
361.33        20.21841
361.78          20.049
362.23        19.89559
362.68        19.76202
363.13         19.6552
363.58        19.57108
364.03        19.49758
364.48        19.42934
364.93        19.36338
365.38        19.30482
365.83         19.2648
366.28        19.24169
366.73        19.22793
367.18        19.20292
367.63        19.13666
368.08        19.02434
368.53        18.87603
368.98        18.71613
369.43        18.58348
369.88        18.48802
370.33        18.41913
370.78        18.35923
371.23        18.27804
371.68        18.16869
372.13        18.04518
372.58        17.92047
373.03        17.81269
373.48        17.72825
373.93        17.65941
374.38        17.60518
374.83        17.56629
375.28        17.53644
375.72        17.50478
376.17        17.47145
376.62        17.41431
377.07        17.33121
377.52        17.23232
377.97        17.11904
378.42         16.9978
378.87        16.87548
379.32        16.74763
379.77        16.63958
380.22        16.58698
380.67        16.58823
381.11        16.63765
381.56        16.67052
382.01         16.5939
382.46        16.39746
382.91        16.12516
383.36        15.85442
383.81        15.69038
384.26        15.65142
384.71        15.70224
385.15        15.79907
385.60        15.87119
386.05        15.88994
386.50        15.87594
386.95        15.83601
387.40        15.78238
387.85        15.72238
388.29        15.63852
388.74        15.56088
389.19          15.498
389.64        15.45069
390.09        15.41693
390.54        15.38129
390.98        15.31347
391.43        15.22003
391.88        15.10979
392.33        15.00521
392.78        14.93683
393.23        14.90826
393.67        14.90167
394.12         14.9094
394.57        14.89052
395.02        14.83635
395.47        14.75151
395.91        14.66138
396.36        14.60065
396.81         14.5867
397.26        14.60844
397.71         14.6309
398.15         14.6121
398.60        14.56329
399.05         14.4408
399.50        14.29481
399.95        14.30042
400.39        14.42114
400.84        14.38583
401.29        14.19802
401.74        14.08856
402.18        14.06899
402.63        13.99897
403.08        13.90297
403.53        13.88109
403.97        13.93752
404.42        14.04041
404.87        14.14099
405.32        14.16062
405.76         14.0803
406.21        13.93302
406.66        13.76687
407.11        13.65851
407.55        13.63046
408.00        13.65225
408.45        13.69178
408.90        13.68581
409.34        13.61573
409.79        13.50991
410.24        13.39431
410.68        13.29582
411.13        13.22784
411.58         13.1801
412.03        13.14791
412.47        13.12901
412.92        13.11543
413.37        13.10817
413.81        13.10844
414.26        13.12869
414.71        13.16246
415.15        13.20845
415.60        13.23639
416.05        13.20646
416.49        13.11454
416.94        12.97554
417.39        12.83286
417.83        12.75169
418.28        12.74541
418.73        12.79329
419.17        12.86553
419.62        12.91144
420.07         12.9148
420.51        12.88916
420.96        12.84385
421.41        12.79116
421.85        12.73343
422.30         12.6611
422.74        12.58082
423.19        12.56216
423.64         12.5869
424.08        12.57543
424.53        12.51689
424.98        12.49088
425.42        12.50519
425.87        12.47938
426.31        12.42431
426.76         12.4491
427.21        12.51907
427.65        12.45392
428.10         12.2914
428.54        12.21889
428.99        12.25175
429.44        12.33281
429.88        12.40928
430.33        12.35226
430.77         12.1942
431.22        12.17124
431.66        12.27829
432.11        12.29404
432.56        12.21859
433.00        12.21988
433.45        12.24439
433.89        12.11321
434.34        11.91942
434.78        11.61135
435.23        11.85319
435.67        11.89004
436.12          11.886
436.57        11.86644
437.01        11.84473
437.46        11.84882
437.90        11.87265
438.35         11.8745
438.79        11.84485
439.24        11.80991
439.68          11.773
440.13        11.72757
440.57        11.68697
441.02        11.68759
441.46        11.73039
441.91        11.76725
442.35        11.78307
442.80        11.87465
443.24        11.98563
443.69        11.92245
444.13         11.7153
444.58         11.6007
445.02        11.59382
445.47        11.57325
445.91        11.53702
446.36        11.53798
446.80        11.57017
447.24        11.62037
447.69        11.67015
448.13        11.68283
448.58         11.6542
449.02        11.59394
449.47        11.52353
449.91        11.47253
450.36         11.4534
450.80          11.456
451.25        11.47391
451.69        11.49066
452.13        11.50109
452.58        11.50668
453.02        11.50931
453.47        11.51309
453.91        11.51785
454.36        11.52314
454.80        11.51578
455.24        11.47502
455.69        11.40446
456.13         11.3055
456.58        11.21682
457.02        11.17625
457.46        11.19517
457.91        11.25938
458.35        11.32649
458.79        11.33043
459.24        11.26935
459.68         11.1587
460.13         11.0531
460.57        11.00305
461.01        11.02979
461.46        11.10515
461.90        11.20663
462.34        11.28557
462.79        11.32116
463.23        11.33106
463.68          11.317
464.12        11.29034
464.56         11.2548
465.01        11.21856
465.45        11.17349
465.89        11.14142
466.34        11.12485
466.78        11.11983
467.22        11.12358
467.67        11.11901
468.11        11.10919
468.55        11.09354
468.99        11.08219
469.44        11.08954
469.88        11.11812
470.32         11.1622
470.77        11.20882
471.21        11.24037
471.65        11.25047
472.10         11.2458
472.54        11.23426
472.98        11.23393
473.42        11.24921
473.87        11.27833
474.31        11.30559
474.75        11.31853
475.20        11.31765
475.64        11.30384
476.08        11.29196
476.52        11.29797
476.97        11.32536
477.41        11.37414
477.85        11.43463
478.29        11.47374
478.74        11.49535
479.18        11.53518
479.62        11.59099
480.06        11.64032
480.50        11.68417
480.95        11.71901
481.39        11.73743
481.83        11.84343
482.27        11.86488
482.72        11.94494
483.16        12.02788
483.60        12.09137
484.04        12.12571
484.48        12.17806
484.93        12.30703
485.37        12.28404
485.81        12.44833
486.25         12.6078
486.69        12.46284
487.14        12.24041
487.58        13.04105
488.02        12.87786
488.46         12.5584
488.90        12.75305
489.34        12.84442
489.79        13.01931
490.23         12.9937
490.67        13.17237
491.11        13.48659
491.55         13.5997
491.99        13.53925
492.43        13.57614
492.88        13.72556
493.32        13.83289
493.76        13.89237
494.20        13.97653
494.64        14.09278
495.08        14.19673
495.52        14.28741
495.96        14.45504
496.41        14.66694
496.85        14.70409
497.29        14.60659
497.73        14.77922
498.17        15.00986
498.61        15.19565
499.05        15.25011
499.49         15.3208
499.93        15.37888
500.37        15.50489
500.82        15.67116
501.26        15.79007
501.70        15.85296
502.14        15.91871
502.58         16.0042
503.02        16.10351
503.46        16.21821
503.90        16.34945
504.34        16.47208
504.78        16.54376
505.22        16.55677
505.66        16.52521
506.10        16.48141
506.54        16.47692
506.98        16.52643
507.42        16.61714
507.86        16.72752
508.30        16.82107
508.74        16.88543
509.18        16.92928
509.62        16.96667
510.06        17.02035
510.50        17.09455
510.94        17.17943
511.38        17.25664
511.82        17.29866
512.26        17.30121
512.70        17.27626
513.14        17.24606
513.58        17.24546
514.02        17.28357
514.46        17.34871
514.90        17.42524
515.34         17.4878
515.78         17.5269
516.22        17.54926
516.66        17.55783
517.10        17.55718
517.54        17.55093
517.98        17.53805
518.42        17.52145
518.86        17.50715
519.30        17.49681
519.74        17.48882
520.18         17.4846
520.62        17.48494
521.06        17.48817
521.50        17.49384
521.93        17.49338
522.37        17.46655
522.81        17.41364
523.25         17.3403
523.69        17.26289
524.13        17.20642
524.57        17.17616
525.01        17.16503
525.45        17.15871
525.89        17.13375
526.32        17.08249
526.76        17.01619
527.20        16.94554
527.64        16.88862
528.08        16.84967
528.52        16.82195
528.96        16.79717
529.40        16.76299
529.83        16.71606
530.27        16.66232
530.71        16.60655
531.15        16.55713
531.59        16.51827
532.03        16.48842
532.46        16.46324
532.90        16.44763
533.34        16.43819
533.78        16.42413
534.22        16.40811
534.66        16.41453
535.09        16.43054
535.53        16.41447
535.97        16.36584
536.41        16.32836
536.85        16.30497
537.28        16.27013
537.72        16.23545
538.16        16.23089
538.60        16.26007
539.04         16.3171
539.47        16.37947
539.91        16.42188
540.35        16.43708
540.79        16.43556
541.22        16.44105
541.66        16.49725
542.10         16.6088
542.54        16.75905
542.97        16.91887
543.41        17.05021
543.85        17.14085
544.29         17.2063
544.72        17.25875
545.16        17.32946
545.60        17.42463
546.04         17.5375
546.47        17.67023
546.91        17.82256
547.35        17.98771
547.79        18.16481
548.22        18.33867
548.66        18.48164
549.10        18.61172
549.53        18.72759
549.97        18.84072
550.41        18.92769
550.84         19.0129
551.28        19.14381
551.72        19.30226
552.15        19.47394
552.59        19.67705
553.03        19.62725
553.46           19.91
553.90         20.0047
554.34        20.08403
554.77        20.14862
555.21        20.22203
555.65        20.32496
556.08        20.45169
556.52        20.58426
556.96        20.69566
557.39        20.80107
557.83        20.87912
558.27        20.82258
558.70        20.68134
559.14        20.65862
559.57        20.75921
560.01        20.86546
560.45        20.95256
560.88        21.04844
561.32        21.15345
561.75        21.23565
562.19        21.30542
562.63         21.3746
563.06        21.44137
563.50         21.5053
563.93        21.54358
564.37         21.5771
564.80        21.61747
565.24        21.61449
565.68        21.54381
566.11        21.83338
566.55        21.70426
566.98         21.8003
567.42        21.91763
567.85        22.07591
568.29        22.27743
568.72        22.53135
569.16        22.82932
569.60        23.01147
570.03        23.13969
570.47        23.26149
570.90        23.44141
571.34        23.36537
571.77        23.50207
572.21        23.90129
572.64        23.91272
573.08        24.05399
573.51         24.0219
573.95        24.15473
574.38        24.33606
574.82        24.82777
575.25        24.35743
575.69        24.34736
576.12        24.43299
576.56        24.60668
576.99        24.86733
577.42        24.75634
577.86        24.57774
578.29         24.9846
578.73        24.76781
579.16        24.72251
579.60        24.44601
580.03        24.44902
580.47        24.43527
580.90        24.47164
581.33        24.39763
581.77        24.63935
582.20        24.32738
582.64        24.27778
583.07        24.11073
583.51        23.97751
583.94        23.90923
584.37        23.83308
584.81        23.72808
585.24        23.61954
585.68        23.44139
586.11        23.14653
586.54        23.24762
586.98        23.13284
587.41        22.98691
587.85        22.89095
588.28        22.86568
588.71        22.84368
589.15           22.85
589.58        22.73345
590.01        22.76756
590.45         22.8274
590.88        22.93144
591.31        22.86555
591.75        22.70979
592.18        22.55264
592.61        22.39555
593.05        23.04622
593.48        23.11455
593.91         23.0072
594.35        22.86353
594.78        22.77828
595.21        22.92477
595.65        23.12683
596.08        23.41043
596.51        23.59751
596.94        23.59271
597.38        23.72821
597.81        23.99017
598.24        24.24147
598.68        24.13686
599.11        24.64162
599.54        24.94778
599.97        24.81793
600.41        25.39462
600.84        25.48517
601.27        25.86484
601.70        26.20442
602.14        26.57133
602.57        26.89969
603.00        27.24306
603.43        27.23909
603.87        27.95498
604.30        28.35283
604.73        28.75394
605.16        28.94698
605.60        29.11672
606.03        29.29919
606.46        29.62459
606.89        29.73496
607.32        30.72995
607.76        31.12554
608.19        31.41052
608.62        31.68202
609.05        32.09533
609.48         32.3116
609.92        32.73737
610.35        33.02868
610.78        33.29583
611.21        33.08928
611.64        33.74885
612.07         34.1204
612.50        34.37861
612.94        34.68784
613.37        34.98609
613.80        35.08789
614.23        35.06313
614.66        35.27277
615.09        35.71084
615.52        36.06797
615.96        36.28935
616.39         36.5284
616.82        36.78414
617.25        36.89535
617.68        36.93057
618.11        37.21807
618.54         37.7194
618.97        38.04131
619.40        38.14216
619.84        38.40914
620.27         38.4893
620.70        38.60572
621.13        38.66335
621.56        38.60486
621.99        38.45717
622.42        38.51519
622.85        38.81532
623.28        38.66633
623.71        38.81427
624.14        39.17123
624.57        39.21599
625.00        39.31809
625.43        39.24748
625.86        39.10198
626.29        38.93888
626.72         38.6879
627.15        38.71763
627.58        38.71619
628.01        38.71475
628.44         38.5943
628.87        38.33368
629.30        37.95475
629.73        37.56131
630.16        37.23954
630.59        37.02195
631.02        36.87995
631.45        36.76999
631.88         36.5764
632.31        36.26003
632.74        36.03278
633.17        35.57776
633.60        35.17625
634.03        34.74416
634.46        34.28381
634.89        33.80664
635.32        33.34751
635.75         32.9217
636.18        32.49105
636.61        32.06853
637.04        31.68571
637.47         31.3395
637.89        31.01734
638.32        30.69533
638.75        30.36256
639.18          30.018
639.61        29.68904
640.04        29.35461
640.47        29.06523
640.90        28.81405
641.33        28.59775
641.76        28.40617
642.18        28.22763
642.61        28.05273
643.04        27.88972
643.47        27.75259
643.90        27.66252
644.33        27.62198
644.76         27.6242
645.18        27.65012
645.61        27.66151
646.04        27.65603
646.47        27.65122
646.90        27.67368
647.33         27.7583
647.75        27.90523
648.18        28.13345
648.61        28.44265
649.04        28.71822
649.47        28.92419
649.89        29.53355
650.32        29.74869
650.75        30.10642
651.18        30.38662
651.61        30.73824
652.03        31.18152
652.46        31.57512
652.89        31.92142
653.32        32.37305
653.74        33.00511
654.17        33.14483
654.60        33.82212
655.03         34.2822
655.46        34.16507
655.88        34.83308
656.31        36.85236
656.74        38.40811
657.16        38.25649
657.59        38.47128
658.02        37.61947
658.45        38.03741
658.87        37.87846
659.30        38.15574
659.73        38.23601
660.15        39.26877
660.58        39.12331
661.01        39.47983
661.44        39.77584
661.86        39.86131
662.29        39.79202
662.72        40.36487
663.14        40.77029
663.57          41.063
664.00        41.06137
664.42        41.29668
664.85        41.79095
665.27        42.26123
665.70        42.61515
666.13        42.86812
666.55        43.01627
666.98        43.00429
667.41         42.8988
667.83          43.083
668.26         43.1416
668.69        43.41103
669.11        43.72106
669.54        44.00756
669.96        44.24891
670.39        44.46346
670.82        44.66571
671.24        44.85988
671.67        45.04714
672.09        45.19887
672.52        45.33153
672.94        45.47697
673.37        45.63099
673.80        45.72696
674.22        45.79231
674.65        45.90083
675.07        46.06937
675.50        46.24885
675.92        46.41914
676.35        46.54783
676.77        46.62473
677.20        46.69652
677.62        46.73857
678.05        46.81509
678.47        46.91246
678.90        47.13555
679.32        47.26171
679.75        47.40437
680.17        47.48948
680.60         47.5495
681.02        47.60863
681.45        47.65639
681.87        47.73053
682.30        47.93088
682.72        48.20969
683.15        48.31836
683.57        48.27221
684.00        48.27371
684.42        48.38251
684.85         48.5406
685.27        48.74758
685.70        49.08778
686.12        49.43581
686.54        49.54665
686.97        49.44283
687.39        49.27018
687.82         49.0579
688.24        49.30763
688.66        49.09764
689.09        49.19249
689.51        49.31271
689.94        49.47329
690.36        49.65797
690.78        49.81715
691.21        49.96965
691.63         50.1765
692.06        50.41652
692.48        50.58539
692.90        50.64289
693.33         50.6292
693.75        50.54559
694.17        50.33068
694.60        50.12215
695.02        50.15811
695.44        50.45245
695.87        50.99466
696.29        51.59406
696.71        51.65342
697.14        51.25785
697.56        51.16068
697.98         51.4249
698.41         51.5679
698.83        51.59748
699.25        51.86754
699.68        52.26588
700.10        52.46561
700.52        52.40491
700.94         52.1949
701.37        51.97005
701.79        51.95086
702.21        52.18202
702.64        52.56875
703.06         53.0056
703.48        53.28519
703.90        53.35424
704.33        53.28133
704.75        53.13719
705.17         53.0274
705.59        52.99452
706.01         53.0009
706.44        53.05741
706.86        53.18553
707.28        53.36589
707.70        53.63577
708.12        53.93385
708.55        54.06224
708.97        54.04294
709.39         54.0916
709.81        54.22961
710.23        54.32738
710.66        54.38737
711.08        54.51468
711.50        54.66529
711.92        54.73642
712.34        54.72083
712.76        54.65677
713.19        54.58066
713.61        54.58253
714.03        54.67267
714.45        54.82951
714.87         55.0234
715.29         55.2124
715.71        55.37664
716.13         55.5135
716.56        55.61804
716.98        55.75849
717.40        55.91108
717.82        56.06384
718.24         56.1617
718.66        56.11949
719.08        55.94091
719.50         55.6754
719.92         55.4267
720.34        55.34988
720.76        55.47707
721.19        55.74097
721.61        56.09188
722.03        56.40097
722.45         56.6109
722.87        56.74646
723.29         56.7909
723.71        56.72252
724.13        56.55911
724.55        56.31735
724.97        56.06638
725.39        55.93051
725.81        55.94522
726.23        56.06221
726.65        56.24403
727.07        56.54772
727.49        56.73948
727.91        56.99196
728.33         57.2195
728.75        57.38855
729.17        57.48444
729.59        57.50333
730.01        57.47427
730.43        57.44937
730.85        57.44642
731.27        57.45903
731.69         57.4651
732.10        57.42728
732.52        57.33577
732.94        57.21275
733.36        57.12228
733.78        57.03876
734.20        56.96984
734.62        57.17872
735.04        57.65186
735.46        57.21801
735.88        57.61068
736.30        57.61472
736.72        57.79611
737.13        58.21638
737.55        58.70527
737.97        58.95438
738.39        58.88472
738.81        58.48719
739.23        57.96477
739.65        57.98717
740.06        58.45734
740.48        58.63436
740.90         58.4691
741.32        58.44574
741.74        58.61243
742.16        58.77456
742.57         58.9259
742.99        59.10616
743.41        59.25744
743.83         59.2721
744.25        59.14051
744.67        58.88374
745.08        58.61856
745.50        58.52119
745.92        58.63515
746.34        58.89846
746.75        59.19787
747.17        59.32001
747.59        59.21864
748.01        59.03059
748.42        58.84103
748.84        58.65398
749.26        58.53966
749.68        58.86405
750.09        58.94217
750.51        59.37883
750.93         59.7883
751.35         59.6191
751.76        58.98946
752.18        58.66486
752.60        58.71345
753.01        58.72018
753.43        58.64961
753.85        58.66461
754.27        58.76441
754.68        58.91702
755.10        59.10302
755.52        59.28725
755.93        59.43488
756.35        59.53252
756.77        59.64349
757.18        59.70189
757.60        59.70267
758.02        60.01644
758.43        60.54572
758.85        59.73935
759.26        59.73438
759.68        59.24105
760.10        59.02377
760.51        59.48266
760.93        60.45699
761.34        60.29326
761.76        60.51442
762.18        60.18258
762.59        59.96186
763.01        60.04378
763.42        60.43878
763.84        60.60936
764.26        60.48218
764.67        60.27734
765.09        60.12978
765.50         60.0563
765.92        60.09119
766.33         60.2657
766.75        60.42962
767.16        60.22481
767.58        59.73565
768.00        59.65247
768.41        60.03782
768.83        60.43367
769.24        60.68473
769.66        60.84563
770.07        60.87411
770.49        60.54544
770.90        60.14121
771.32        60.33572
771.73        61.03366
772.15         61.2616
772.56        60.97594
772.97        60.69567
773.39        60.54477
773.80        60.54217
774.22        60.67321
774.63        60.85151
775.05        60.97115
775.46        61.05492
775.88        61.05127
776.29        60.93376
776.70        60.77199
777.12        60.74164
777.53        60.88072
777.95        61.09669
778.36        61.33171
778.77        61.44177
779.19        61.40423
779.60        61.32981
780.02        61.22794
780.43        61.07023
780.84        60.95112
781.26        60.85676
781.67        60.86755
782.09        61.38332
782.50        62.14823
782.91        62.12267
783.33        61.40944
783.74         61.1241
784.15        61.31941
784.57        61.46647
784.98        61.52202
785.39         61.3775
785.81        61.18412
786.22        61.65182
786.63        62.57913
787.04        62.94817
787.46        62.69048
787.87         62.3209
788.28         62.0186
788.70        61.83849
789.11        61.82209
789.52        61.97168
789.93        62.19698
790.35        62.33921
790.76        62.36054
791.17          62.296
791.58        62.21441
792.00        62.16895
792.41        62.19673
792.82        62.38372
793.23        62.62273
793.65        62.51944
794.06        62.18996
794.47        62.20504
794.88        62.49346
795.29        62.88801
795.71        62.41417
796.12         62.4521
796.53        62.69764
796.94         62.3283
797.35        61.57936
797.76        61.90334
798.18         63.1282
798.59        63.69552
799.00        63.45687
799.41         63.2722
799.82        63.24337
800.23        63.15241
800.64        63.03534
801.06        62.91396
801.47        62.83115
801.88        62.78452
802.29        62.76481
802.70         62.7562
803.11        62.73141
803.52        62.64734
803.93        62.52678
804.34        62.40919
804.75        62.30242
805.17        62.35242
805.58        62.63456
805.99        62.64124
806.40         62.4981
806.81        63.48875
807.22        65.10811
807.63        64.86689
808.04        63.04656
808.45         62.2681
808.86        62.72934
809.27        62.98154
809.68        62.87254
810.09        62.85472
810.50        62.89456
810.91        62.87292
811.32        62.87719
811.73        63.00787
812.14        63.26546
812.55         63.7221
812.96        64.21929
813.37        64.18607
813.78        63.67859
814.19        63.41044
814.60        63.39744
815.01        63.15229
815.42        62.69421
815.83        62.32632
816.24        62.12894
816.65        62.08504
817.05        62.21886
817.46         62.5035
817.87        62.84428
818.28        63.04603
818.69        63.06727
819.10        62.94802
819.51        62.76194
819.92        62.69739
820.33        62.81378
820.74        62.93224
821.14        63.03698
821.55        63.37889
821.96        63.80685
822.37        63.70945
822.78        63.17783
823.19        62.94153
823.60        63.07681
824.00        63.20327
824.41        63.21387
824.82        63.22219
825.23        63.20534
825.64        63.13417
826.04        63.06612
826.45        63.05309
826.86        63.11868
827.27        63.26384
827.68        63.39668
828.08        63.38385
828.49        63.15271
828.90        62.75679
829.31        62.37397
829.72        62.29467
830.12        62.60311
830.53        63.17744
830.94        63.77445
831.35        63.92706
831.75        63.54349
832.16        62.75788
832.57        61.91173
832.97        61.52673
833.38        61.72732
833.79        62.31678
834.20        63.07039
834.60        63.63718
835.01        63.90444
835.42        64.02116
835.82        64.01714
836.23        63.86842
836.64        63.63988
837.04        63.29378
837.45        63.02674
837.86        63.22783
838.26        63.96981
838.67        65.11214
839.08        66.26051
839.48        66.65277
839.89        66.09605
840.29        64.86199
840.70        63.51807
841.11        62.71727
841.51        62.63474
841.92        63.05638
842.33        63.77787
842.73        64.43341
843.14        64.77155
843.54        64.94685
843.95        65.01245
844.35        65.10233
844.76        65.23258
845.17        65.32847
845.57        65.33836
845.98        65.17559
846.38        64.85717
846.79        64.43774
847.19        64.00886
847.60        63.68162
848.00        63.50592
848.41        63.43027
848.81        63.46244
849.22        63.53224
849.62         63.6445
850.03         63.8007
850.43        63.96329
850.84        64.00879
851.24        63.95881
851.65        63.78186
852.05        63.64925
852.46        63.76809
852.86        64.16767
853.27        64.74644
853.67        65.26958
854.07        65.52391
854.48        65.44255
854.88        65.12569
855.29        64.61862
855.69        64.13293
856.10        63.70165
856.50        63.35217
856.90        63.08404
857.31        62.90933
857.71        62.87234
858.12        62.92501
858.52        63.06733
858.92        63.17533
859.33        63.19565
859.73        63.19215
860.13        63.12394
860.54         62.9603
860.94        62.74836
861.34        62.47305
861.75        62.23873
862.15        62.25724
862.55        62.54688
862.96        63.03016
863.36        63.56853
863.76        63.84159
864.17        63.75094
864.57        63.40584
864.97        62.93528
865.38        62.56035
865.78         62.3726
866.18        62.30291
866.58        62.29914
866.99        62.26756
867.39        62.20331
867.79        62.15807
868.19        62.15742
868.60        62.19648
869.00        62.30331
869.40        62.43992
869.80           62.63
870.21        62.91334
870.61         63.3198
871.01        63.77046
871.41        64.11659
871.81        64.16381
872.22        63.88416
872.62        63.31602
873.02        62.66844
873.42         62.3033
873.82        62.31769
874.22        62.62374
874.63        62.96413
875.03        62.93492
875.43        62.44933
875.83        61.66663
876.23        60.87025
876.63        60.49003
877.03        60.62782
877.44        61.10676
877.84         61.7374
878.24        62.22188
878.64        62.39072
879.04        62.18465
879.44        61.78099
879.84        61.56974
880.24        61.60595
880.64        61.72511
881.04        61.75855
881.44        61.48125
881.84        60.86658
882.24        60.04166
882.65        59.24487
883.05        58.81621
883.45         58.8511
883.85        59.26232
884.25        59.89165
884.65        60.45748
885.05        60.84759
885.45        61.11229
885.85        61.32483
886.25         61.6148
886.65        62.00479
887.05        62.42252
887.45        62.76656
887.85        62.89098
888.25        62.75669
888.65        62.41848
889.04        61.97982
889.44        61.61911
889.84        61.37889
890.24        61.23366
890.64         61.1144
891.04         60.9044
891.44        60.59233
891.84        60.23993
892.24        59.95063
892.64        59.86139
893.04        60.00537
893.44        60.35249
893.83        60.81822
894.23        61.21209
894.63        61.49474
895.03        61.67696
895.43        61.86783
895.83         62.2637
896.23        62.86496
896.63        63.55404
897.02        64.10133
897.42        64.18056
897.82        63.73713
898.22        62.94527
898.62        61.99697
899.01        61.15825
899.41        60.55668
899.81        60.12472
900.21        59.92567
900.61        60.05286
901.00        60.47654
901.40        61.14573
901.80        61.85232
902.20        62.24937
902.59        62.25768
902.99        61.95732
903.39        61.48545
903.79        61.09178
904.18        60.86018
904.58        60.71828
904.98        60.69395
905.38        60.83563
905.77         61.1242
906.17        61.57549
906.57         62.0002
906.96        62.06998
907.36        61.71529
907.76        61.04677
908.15        60.37147
908.55         60.1651
908.95        60.54075
909.34        61.35632
909.74        62.29192
910.14        62.89343
910.53        62.99365
910.93        62.75666
911.33        62.30917
911.72        61.83805
912.12        61.48758
912.52        61.19598
912.91         60.9985
913.31        60.97647
913.70        61.12788
914.10        61.40628
914.49        61.79729
914.89        62.17524
915.29        62.50109
915.68        62.80513
916.08        62.94184
916.47        62.75249
916.87        62.25635
917.26        61.49409
917.66        60.79078
918.05        60.50795
918.45        60.71639
918.84         61.3628
919.24        62.12247
919.64        62.53612
920.03        62.48133
920.42        62.05722
920.82        61.59356
921.21        61.55883
921.61        62.03881
922.00        62.90662
922.40        63.82156
922.79        64.31953
923.19        64.22623
923.58        63.73232
923.98        63.08936
924.37        62.60201
924.77        62.37731
925.16        62.27424
925.55        62.25792
925.95        62.25902
926.34        62.24813
926.74        62.25008
927.13        62.16739
927.52        61.76153
927.92        61.07509
928.31        60.19798
928.70        59.38056
929.10        58.98154
929.49        59.06279
929.89        59.45534
930.28        60.11797
930.67        60.86052
931.07         61.5396
931.46        62.26464
931.85         62.7524
932.24        62.60273
932.64        61.83619
933.03        60.55474
933.42        59.33247
933.82        59.01762
934.21        59.76654
934.60        61.38478
934.99        63.28303
935.39        64.36936
935.78        64.34711
936.17        63.43883
936.56        62.18884
936.96        61.46655
937.35        61.50657
937.74        62.04008
938.13        62.64954
938.53        62.70871
938.92        62.08443
939.31        61.04957
939.70        59.97915
940.09        59.37092
940.49        59.31985
940.88        59.69476
941.27         60.2804
941.66        60.69154
942.05        60.79687
942.44        60.72488
942.84        60.62621
943.23        60.72279
943.62        61.06509
944.01        61.51424
944.40        61.97915
944.79        62.34208
945.18        62.53782
945.57        62.61086
945.97        62.44884
946.36        61.97411
946.75        61.18672
947.14        60.17746
947.53        59.20421
947.92        58.61868
948.31        58.49014
948.70        58.74261
949.09        59.17513
949.48         59.4249
949.87        59.37445
950.26        59.10021
950.65        58.77413
951.04        58.69893
951.43        58.94025
951.82        59.38193
952.21        59.82124
952.60        59.94041
952.99        59.69273
953.38        59.23696
953.77        58.76154
954.16        58.55273
954.55        58.68428
954.94        59.01833
955.33        59.52877
955.72        60.17075
956.11         60.8498
956.50        61.56406
956.89         62.0186
957.28        61.72936
957.66        60.65896
958.05        59.06489
958.44        57.43067
958.83         56.4415
959.22        56.24376
959.61        56.64577
960.00        57.42719
960.39        58.13931
960.78        58.56759
961.16        58.81432
961.55        58.90187
961.94        58.82335
962.33        58.62473
962.72        58.28209
963.11        57.91275
963.49        57.81402
963.88        58.00977
964.27        58.43256
964.66        58.99254
965.04        59.57786
965.43        60.08833
965.82        60.58935
966.21        60.91755
966.60        60.78079
966.98        60.13045
967.37        59.12778
967.76        58.13057
968.15        57.58991
968.53        57.59659
968.92        58.06435
969.31         58.7387
969.69        59.09779
970.08        58.91442
970.47        58.36902
970.86        57.84604
971.24        57.90412
971.63        58.64431
972.02        59.88707
972.40        61.25276
972.79        61.76553
973.17        61.20578
973.56        59.92804
973.95        58.45409
974.33        57.43008
974.72        57.01493
975.11        56.99511
975.49        57.27128
975.88        57.60157
976.26        57.91288
976.65        58.25615
977.04         58.5597
977.42        58.66565
977.81        58.52167
978.19        58.11462
978.58        57.72303
978.96        57.78563
979.35        58.35686
979.74        59.32311
980.12        60.36851
980.51        60.70298
980.89         60.2603
981.28        59.29062
981.66        58.21605
982.05        57.59026
982.43        57.56896
982.82        57.95638
983.20        58.74362
983.59        59.80974
983.97         61.0872
984.35         62.5689
984.74        63.81887
985.12        64.35236
985.51        63.99358
985.89        62.87789
986.28        61.56182
986.66        60.82993
987.04        60.94521
987.43        61.73091
987.81        62.79204
988.20         63.2327
988.58        62.81895
988.96        61.77133
989.35        60.65224
989.73        60.27119
990.12        60.75529
990.50        61.86507
990.88        62.98978
991.27        63.08562
991.65        61.92362
992.03        59.93102
992.42        57.87145
992.80          56.731
993.18        56.75014
993.56        57.67302
993.95        58.98167
994.33        59.85624
994.71        59.88544
995.10        59.40377
995.48        58.81716
995.86        58.82499
996.24        59.57878
996.63        60.68352
997.01        61.94515
997.39        62.68054
997.77        62.58884
998.15        62.00896
998.54        60.97839
998.92        59.40216
999.30        57.51198
999.68        55.41729
1000.06        53.80394
1000.45        53.61239
1000.83        55.07286
1001.21         58.0284
1001.59        61.73507
1001.97        64.25689
1002.35        64.77467
1002.73        63.81968
1003.12        62.33744
1003.50        61.53367
1003.88        61.81866
1004.26         62.6504
1004.64        63.97299
1005.02        65.59825
1005.40        67.23472
1005.78        69.12909
1006.16        70.34968
1006.54        69.39507
1006.92        66.31457
1007.30        61.69648
1007.69        57.43056
1008.07        56.10491
1008.45         58.3911
1008.83        63.71632
1009.21        70.47421
1009.59        74.58901
1009.97        74.10145
1010.35        70.21931
1010.73        64.58279
1011.11        59.59051
1011.49         56.1356
1011.86        53.61196
1012.24        52.07702
1012.62        51.62613
1013.00        52.12896
1013.38        53.72974
1013.76        56.03948
1014.14        57.79402
1014.52        58.33228
1014.90        57.78182
1015.28        56.62095
1015.66         55.7113
1016.04        55.30423
1016.41        55.16099
1016.79        55.19891
1017.17        55.34388
1017.55        55.51069
1017.93        55.73298
1018.31        56.01171
1018.69        56.28926
1019.06         56.5742
1019.44        56.95357
1019.82        57.16014
1020.20        56.71321
1020.58        55.55442
1020.95        53.79558
1021.33         52.3897
1021.71        52.34706
1022.09        53.81834
1022.46        56.90799
1022.84        60.47973
1023.22        61.62755
1023.60        59.35169
1023.97        54.46807
1024.35        49.93802
1024.73         49.2071
