SpectraSmart Spectrum 2.9.0.0
--------- Device Information -----------
Spectrum Name :  反射率_0
Saving Time :  2024/04/26 23:40:59
Spectro-Module Model Name : SE2030-DUVN
Spectro-Module Serial Number : OS361AC55029948
Wavelength Start : 200
Wavelength End : 1025
Wavelength Unit : Wavelength(nm)
Spectrum Unit : Reflectance(%)
-----------Spectrum Setting ------------
Integration Time : 20ms
Average : 10
Boxcar : 0
Background removal :  enabled
linearity correction :  enabled
SC :  disabled
Intensity correction :  disabled
DWT denoise :  enabled
savitzky-golay :  disabled
FFT :  disabled
Running average :  disabled
Kalman :  disabled
High pass :  disabled
---------------BEGIN--------------------
Wavelength(nm)             Reflectance(%)
200.29               0
200.75        40.56608
201.21         44.0405
201.67        48.01817
202.13        50.16245
202.58        50.27648
203.04        49.40774
203.50          48.877
203.96        51.64749
204.42        59.24267
204.88        70.69163
205.34        82.10939
205.80        87.18581
206.26        84.67447
206.72        77.07488
207.18        69.30063
207.64        65.45438
208.10         65.8288
208.55        70.48092
209.01        77.77391
209.47        80.54347
209.93        75.92712
210.39        69.05856
210.85          64.727
211.31        65.54753
211.77        72.56709
212.23        90.85129
212.69        137.5334
213.14        214.5437
213.60        208.0756
214.06        152.0734
214.52        115.8851
214.98        101.7043
215.44        98.28387
215.90        98.53049
216.36        101.3883
216.81        106.3289
217.27        113.5427
217.73        126.8286
218.19         143.748
218.65        147.2392
219.11        133.7997
219.57        115.4681
220.02        104.4211
220.48        107.8358
220.94        125.0963
221.40         158.257
221.86        207.8964
222.32        245.5657
222.77        242.3766
223.23        216.0642
223.69        185.8683
224.15        163.1999
224.61        148.2979
225.06        136.8655
225.52        130.8453
225.98        131.7866
226.44        138.6504
226.90        150.4975
227.36        163.4299
227.81        170.0988
228.27        169.3016
228.73        163.4923
229.19        157.1314
229.65        155.5747
230.10        159.1077
230.56        165.8182
231.02        172.6395
231.48        174.8645
231.93        171.6419
232.39        165.9094
232.85         159.856
233.31        156.2275
233.77        155.4432
234.22         156.322
234.68        158.3323
235.14         160.825
235.60        163.3549
236.05        166.4033
236.51        168.7559
236.97        168.4413
237.43        164.8318
237.88        158.3505
238.34         150.621
238.80        144.9015
239.26        142.2344
239.71        143.0407
240.17        145.8596
240.63        147.8199
241.08        147.3807
241.54        144.0811
242.00        141.0019
242.46        144.0089
242.91        157.3872
243.37        183.2409
243.83        221.1865
244.28        250.0135
244.74        241.0113
245.20        197.3878
245.66        148.3803
246.11        117.3811
246.57        104.1076
247.03        101.2785
247.48         102.972
247.94        100.6773
248.40        94.15488
248.85        87.42817
249.31        82.90363
249.77        81.08882
250.22        81.41973
250.68        83.14769
251.14        85.63495
251.59        86.89236
252.05        86.45241
252.51        86.19197
252.96        86.39212
253.42        87.84798
253.88        90.36948
254.33        92.64038
254.79        96.85208
255.25        104.8626
255.70        116.1161
256.16        130.0449
256.62        141.5019
257.07        142.4774
257.53        135.7403
257.99         126.579
258.44        119.3493
258.90        118.2321
259.35        121.3421
259.81        127.0738
260.27        132.9121
260.72        135.7685
261.18        135.8288
261.63        133.8285
262.09        131.7161
262.55        130.4442
263.00        129.8739
263.46        129.9172
263.91         129.502
264.37        128.1162
264.83        125.7127
265.28        122.6823
265.74        120.1266
266.19        118.7107
266.65         118.644
267.11         119.394
267.56        120.3512
268.02        120.6062
268.47        119.8654
268.93        118.5035
269.38        116.7405
269.84        115.0693
270.30        113.6124
270.75        112.1714
271.21        110.8685
271.66        109.7578
272.12        108.8343
272.57        108.0335
273.03        107.1434
273.48        105.7336
273.94        103.8815
274.39        101.6775
274.85        99.54079
275.31        97.72482
275.76        96.24481
276.22        95.12327
276.67        94.16215
277.13        93.36517
277.58        92.53816
278.04         91.7387
278.49        90.82577
278.95        89.87411
279.40        88.75429
279.86         87.6188
280.31        86.25931
280.77        84.68311
281.22        82.82986
281.68        80.93532
282.13        79.12984
282.59         77.8335
283.04        76.97639
283.50        76.48323
283.95        76.09375
284.41        75.47837
284.86        74.53688
285.32        73.45281
285.77        72.31356
286.22        71.38349
286.68          70.703
287.13        70.09644
287.59        69.52989
288.04        68.85365
288.50        68.09347
288.95        67.25488
289.41        66.38236
289.86        65.37263
290.32        64.32213
290.77        63.22385
291.22        62.23921
291.68        61.57265
292.13         61.2197
292.59        61.13614
293.04        61.19274
293.50        61.22984
293.95        61.17054
294.40        61.06313
294.86        60.93634
295.31        60.81612
295.77        60.73971
296.22        60.67603
296.68        60.65829
297.13        60.70487
297.58        60.83133
298.04        61.03576
298.49        61.29371
298.95        61.59524
299.40        61.90611
299.85        62.22233
300.31        62.52756
300.76        62.76481
301.21        62.93561
301.67        63.07503
302.12        63.16358
302.58        63.27459
303.03        63.38287
303.48         63.5094
303.94        63.68116
304.39        63.86509
304.84        64.07223
305.30         64.3047
305.75        64.51006
306.20        64.69749
306.66        64.87563
307.11        65.01688
307.57        65.10693
308.02        65.03596
308.47        64.82364
308.93        64.51257
309.38        64.19227
309.83        64.08006
310.29        64.20823
310.74        64.50805
311.19        64.81091
311.65        64.83079
312.10        64.50155
312.55        63.91766
313.00        63.28656
313.46        62.91795
313.91        62.85382
314.36        63.00782
314.82          63.196
315.27        63.14111
315.72        62.76729
316.18        62.19027
316.63        61.54618
317.08        61.06808
317.53        60.81368
317.99        60.69522
318.44        60.63023
318.89        60.47208
319.35        60.17471
319.80        59.79227
320.25        59.36893
320.70        58.96862
321.16        58.61368
321.61        58.30316
322.06        58.01411
322.51        57.72338
322.97        57.41444
323.42        57.09272
323.87        56.80302
324.32         56.6242
324.78        56.53966
325.23         56.5621
325.68        56.52838
326.13        56.18604
326.59        55.50156
327.04        54.58348
327.49        53.67253
327.94        53.15017
328.39        53.09695
328.85        53.38412
329.30        53.84628
329.75        54.06057
330.20        53.89021
330.66        53.43999
331.11        52.89487
331.56         52.5155
332.01        52.38268
332.46        52.39539
332.92        52.43951
333.37        52.41463
333.82        52.24731
334.27        52.00496
334.72        51.72426
335.17        51.44654
335.63        51.19566
336.08        50.98711
336.53        50.83823
336.98        50.80267
337.43        50.88129
337.88        51.04102
338.34        51.24037
338.79        51.46023
339.24        51.64693
339.69        51.80371
340.14        51.85565
340.59        51.69284
341.05        51.33485
341.50        50.83229
341.95        50.34536
342.40        50.11657
342.85        50.19925
343.30        50.51557
343.75        50.95198
344.20        51.31485
344.66         51.5294
345.11         51.6362
345.56        51.63916
346.01         51.5529
346.46        51.40475
346.91        51.19654
347.36        50.97249
347.81        50.81333
348.26        50.73682
348.72         50.7219
349.17        50.75705
349.62        50.83218
350.07        50.93016
350.52        51.06282
350.97        51.14309
351.42        51.03473
351.87        50.72722
352.32        50.26058
352.77        49.80358
353.22         49.6072
353.67        49.71107
354.13        50.04181
354.58        50.40731
355.03        50.47709
355.48        50.17104
355.93        49.59134
356.38        48.95145
356.83        48.57084
357.28        48.51431
357.73        48.67598
358.18        48.86686
358.63        48.78456
359.08        48.35946
359.53         47.7046
359.98        46.99332
360.43        46.47335
360.88        46.20071
361.33        46.09147
361.78        46.02852
362.23        45.83139
362.68        45.45915
363.13        44.98629
363.58        44.49908
364.03        44.12094
364.48        43.88147
364.93         43.7269
365.38        43.61424
365.83        43.48232
366.28        43.30513
366.73        43.10455
367.18        42.87217
367.63        42.59108
368.08        42.26542
368.53        41.89874
368.98        41.52641
369.43        41.20763
369.88        40.95657
370.33        40.76099
370.78        40.59018
371.23        40.39063
371.68        40.14763
372.13        39.87651
372.58        39.60234
373.03        39.36373
373.48        39.16766
373.93        38.99683
374.38        38.82595
374.83        38.61953
375.28        38.36935
375.72        38.08007
376.17        37.79635
376.62        37.53619
377.07        37.31254
377.52        37.12872
377.97        36.96982
378.42        36.81757
378.87        36.66518
379.32        36.50051
379.77        36.36551
380.22        36.32121
380.67        36.36316
381.11        36.48466
381.56        36.54263
382.01        36.34155
382.46        35.86618
382.91        35.20953
383.36        34.57278
383.81        34.22894
384.26        34.21965
384.71        34.45911
385.15        34.79124
385.60        34.94841
386.05        34.85193
386.50        34.58054
386.95        34.24136
387.40        34.00348
387.85         33.9079
388.29        33.86643
388.74        33.85598
389.19        33.76699
389.64        33.58017
390.09        33.33627
390.54        33.07457
390.98        32.84803
391.43         32.6988
391.88         32.6018
392.33        32.54486
392.78        32.51093
393.23        32.48922
393.67        32.46877
394.12        32.46814
394.57        32.45077
395.02         32.4082
395.47        32.32992
395.91         32.2397
396.36        32.16607
396.81         32.1347
397.26         32.1471
397.71        32.15302
398.15        32.09752
398.60         32.0149
399.05        31.79348
399.50        31.54284
399.95        31.65264
400.39        32.03745
400.84        32.09364
401.29        31.79752
401.74        31.61599
402.18        31.56615
402.63        31.34458
403.08        31.03465
403.53        30.90605
403.97        30.98458
404.42        31.19311
404.87        31.42418
405.32        31.50324
405.76        31.38407
406.21        31.13898
406.66        30.86092
407.11        30.69539
407.55        30.68954
408.00        30.78686
408.45         30.9252
408.90        30.98062
409.34         30.9144
409.79        30.77576
410.24        30.62902
410.68        30.55427
411.13        30.57568
411.58        30.65965
412.03        30.75283
412.47        30.76986
412.92        30.67886
413.37        30.52464
413.81         30.3538
414.26        30.25888
414.71         30.2463
415.15        30.29617
415.60        30.36545
416.05        30.41208
416.49        30.42028
416.94        30.40265
417.39         30.3655
417.83        30.31252
418.28         30.2497
418.73        30.17005
419.17        30.09852
419.62        30.07938
420.07        30.11793
420.51        30.19242
420.96         30.2689
421.41        30.28513
421.85        30.21962
422.30        30.08462
422.74        29.90387
423.19        29.84493
423.64        29.87475
424.08        29.79175
424.53        29.60855
424.98        29.57691
425.42        29.72347
425.87         29.8386
426.31         29.8889
426.76        30.03639
427.21        30.18593
427.65        29.94058
428.10        29.44116
428.54        29.24389
428.99        29.40359
429.44        29.66493
429.88        29.91986
430.33        30.03098
430.77        29.99409
431.22        30.07948
431.66        30.24604
432.11        30.24833
432.56        30.11313
433.00        29.86169
433.45        29.51219
433.89        29.55342
434.34        29.99398
434.78        29.41959
435.23         29.5637
435.67        29.51458
436.12        29.70343
436.57        29.61438
437.01         29.2996
437.46        29.15504
437.90        29.19829
438.35        29.23633
438.79        29.24146
439.24        29.27753
439.68         29.3337
440.13        29.40084
440.57        29.46713
441.02        29.52418
441.46        29.55965
441.91        29.52847
442.35        29.43683
442.80        29.52015
443.24        29.68963
443.69        29.60114
444.13        29.30083
444.58        29.18352
445.02        29.26621
445.47        29.34077
445.91        29.38202
446.36        29.45158
446.80        29.53064
447.24        29.60242
447.69        29.65345
448.13        29.65213
448.58        29.60204
449.02        29.50843
449.47        29.40219
449.91        29.31627
450.36        29.27172
450.80        29.25528
451.25        29.26207
451.69        29.26067
452.13        29.24731
452.58        29.22331
453.02        29.19762
453.47        29.18875
453.91        29.19759
454.36        29.22136
454.80        29.22668
455.24        29.16241
455.69        29.03359
456.13        28.84356
456.58        28.67262
457.02        28.59466
457.46        28.63534
457.91        28.76857
458.35        28.91038
458.79        28.93812
459.24        28.85089
459.68        28.67416
460.13        28.51285
460.57        28.45592
461.01        28.54419
461.46        28.71881
461.90        28.94113
462.34        29.12726
462.79        29.23326
463.23        29.28983
463.68        29.27732
464.12         29.1834
464.56        29.01755
465.01        28.82897
465.45        28.62462
465.89        28.49168
466.34        28.44113
466.78        28.44402
467.22        28.49728
467.67        28.56346
468.11        28.64108
468.55        28.72614
468.99        28.79279
469.44        28.79743
469.88        28.73782
470.32        28.62091
470.77        28.49517
471.21        28.44651
471.65        28.49039
472.10        28.60472
472.54        28.73375
472.98          28.797
473.42        28.77447
473.87        28.70206
474.31        28.60058
474.75        28.52839
475.20        28.50845
475.64        28.51244
476.08         28.5353
476.52        28.55466
476.97         28.5651
477.41        28.59187
477.85        28.64431
478.29         28.6926
478.74         28.7575
479.18        28.90302
479.62        29.09664
480.06        29.23933
480.50        29.32256
480.95        29.35969
481.39        29.32932
481.83        29.48133
482.27        29.38398
482.72         29.3897
483.16        29.40007
483.60        29.39986
484.04        29.41343
484.48        29.54201
484.93        29.75659
485.37        29.55882
485.81         30.0275
486.25        29.44262
486.69        30.17493
487.14        30.32559
487.58        30.45957
488.02        30.80339
488.46        30.11095
488.90        30.13702
489.34         30.3957
489.79        30.75671
490.23        30.84964
490.67        30.84301
491.11        30.73349
491.55         30.6789
491.99        30.71864
492.43        30.75405
492.88        30.80174
493.32        30.95025
493.76         31.1803
494.20        31.40771
494.64        31.61973
495.08        31.82587
495.52        32.00013
495.96        32.17839
496.41        32.34061
496.85        32.30612
497.29        32.13055
497.73        32.35537
498.17        32.53138
498.61        32.74858
499.05        32.82389
499.49        32.86151
499.93         32.7962
500.37        32.90907
500.82        33.15154
501.26        33.31448
501.70        33.38074
502.14        33.47482
502.58        33.62244
503.02        33.79845
503.46         33.9996
503.90        34.22736
504.34        34.42664
504.78        34.50773
505.22        34.45586
505.66        34.30587
506.10        34.14236
506.54        34.05597
506.98        34.07011
507.42        34.23775
507.86        34.53394
508.30        34.46834
508.74        34.71872
509.18          34.742
509.62         34.7624
510.06         34.7842
510.50        34.82178
510.94        34.85718
511.38         34.8858
511.82        34.92416
512.26        34.97283
512.70        35.03258
513.14        35.10048
513.58        35.16801
514.02        35.23117
514.46         35.2889
514.90        35.33902
515.34         35.3803
515.78        35.40979
516.22        35.42314
516.66        35.41931
517.10        35.39785
517.54        35.36069
517.98        35.31414
518.42        35.25673
518.86        35.18439
519.30        35.10291
519.74        35.01889
520.18        34.95401
520.62        34.93951
521.06        34.97973
521.50        35.06371
521.93        35.16644
522.37        35.23444
522.81        35.25571
523.25        35.23814
523.69        35.19793
524.13        35.16436
524.57        35.14204
525.01        35.11592
525.45        35.07419
525.89        34.99913
526.32        34.88642
526.76        34.76187
527.20        34.62674
527.64        34.48336
528.08         34.3398
528.52        34.19579
528.96        34.08387
529.40        34.05291
529.83        34.10469
530.27         34.2263
530.71         34.3536
531.15        34.38762
531.59        34.30722
532.03        34.13747
532.46        33.94123
532.90        33.84457
533.34        33.86586
533.78        33.94536
534.22        34.01977
534.66        34.03434
535.09        33.94447
535.53        33.70985
535.97         33.3987
536.41        33.20093
536.85        33.15057
537.28        33.16641
537.72        33.22794
538.16        33.32666
538.60        33.44322
539.04        33.57681
539.47        33.70668
539.91        33.82173
540.35        33.91032
540.79        33.97438
541.22        34.01689
541.66        34.05896
542.10        34.10505
542.54        34.15401
542.97        34.21114
543.41        34.29825
543.85        34.41387
544.29        34.55837
544.72        34.71105
545.16        34.86143
545.60        34.99887
546.04         35.1298
546.47        35.27224
546.91        35.44995
547.35        35.66104
547.79         35.8956
548.22        36.12383
548.66        36.29322
549.10        36.43901
549.53         36.5624
549.97        36.68731
550.41        36.77005
550.84        36.85881
551.28        37.04274
551.72        37.28178
552.15        37.54203
552.59         37.8546
553.03        37.67154
553.46        38.11995
553.90        38.20437
554.34        38.25841
554.77        38.28894
555.21        38.33461
555.65          38.422
556.08        38.54392
556.52        38.67977
556.96        38.80927
557.39        38.96883
557.83        39.17397
558.27        39.17319
558.70        39.01357
559.14        39.01925
559.57        39.17627
560.01        39.28107
560.45         39.3257
560.88        39.41626
561.32         39.5674
561.75        39.72873
562.19         39.8895
562.63        39.97058
563.06         39.9868
563.50         40.0738
563.93        40.19059
564.37        40.27412
564.80        40.33969
565.24        40.34773
565.68        40.23689
566.11          40.754
566.55         40.4407
566.98        40.51934
567.42        40.61401
567.85        40.77058
568.29        41.00132
568.72        41.31639
569.16        41.72845
569.60        41.98938
570.03        42.23087
570.47        42.48346
570.90        42.80145
571.34        42.61812
571.77        43.00746
572.21        43.11534
572.64        43.20656
573.08        43.38417
573.51        43.16166
573.95        43.36184
574.38        43.88533
574.82        43.82959
575.25        43.93688
575.69        43.89421
576.12        43.93922
576.56        43.88736
576.99        44.12767
577.42        43.98446
577.86         44.0412
578.29        44.60509
578.73        44.34298
579.16        44.21858
579.60        43.82895
580.03        43.80585
580.47        43.53724
580.90          44.176
581.33         44.0914
581.77        44.01719
582.20        43.90088
582.64        43.92101
583.07        43.63693
583.51        43.21668
583.94        42.94693
584.37        42.83842
584.81        43.00426
585.24        42.98069
585.68        42.76822
586.11        42.57337
586.54        42.88709
586.98        42.06672
587.41        41.99474
587.85         42.1184
588.28        41.85941
588.71        42.15828
589.15        41.64451
589.58         41.7585
590.01         41.4584
590.45        41.58628
590.88        42.01791
591.31        41.98322
591.75         41.6587
592.18        41.44365
592.61        41.37509
593.05        42.21061
593.48        42.42266
593.91        42.20105
594.35        42.23407
594.78        42.05305
595.21         42.0541
595.65        42.44352
596.08        43.22047
596.51         43.2911
596.94        43.12902
597.38        43.10966
597.81        43.35702
598.24        44.01968
598.68        44.01298
599.11         44.1318
599.54        45.07958
599.97        45.04187
600.41        45.32206
600.84        45.29383
601.27        45.94658
601.70        46.21436
602.14        46.64681
602.57        47.04864
603.00        47.62561
603.43        47.47844
603.87        48.45049
604.30        48.85201
604.73        49.23617
605.16          49.228
605.60        49.85828
606.03        50.02705
606.46        49.99997
606.89        50.74199
607.32          51.731
607.76         51.6521
608.19        52.45713
608.62        52.66069
609.05         52.9682
609.48        53.22379
609.92        54.20637
610.35        53.99323
610.78        53.92775
611.21        54.44376
611.64        54.54864
612.07        55.06313
612.50        55.29691
612.94        55.57835
613.37        55.74399
613.80        56.27268
614.23        55.94968
614.66        56.20724
615.09        56.81322
615.52        57.15919
615.96          57.229
616.39        57.48265
616.82          57.986
617.25        57.70877
617.68        58.06232
618.11        58.28919
618.54         58.7383
618.97        59.00529
619.40        59.08838
619.84        59.13219
620.27        59.27678
620.70        59.31372
621.13        59.30426
621.56        59.11543
621.99        58.80263
622.42        58.85346
622.85        59.31665
623.28        58.82094
623.71        59.35788
624.14        59.25296
624.57         59.7154
625.00        59.56802
625.43        59.60761
625.86        59.54079
626.29        59.61368
626.72        58.90722
627.15        59.16875
627.58        58.90739
628.01        58.55526
628.44        58.48851
628.87        58.34494
629.30        57.64989
629.73        57.30798
630.16        57.54919
630.59        57.00456
631.02        56.97054
631.45        56.89896
631.88        56.72481
632.31        56.39691
632.74        55.96634
633.17        55.48191
633.60        54.98117
634.03        54.49504
634.46        54.01502
634.89        53.53608
635.32        53.06226
635.75        52.59835
636.18         52.0944
636.61        51.59996
637.04        51.20836
637.47        50.91127
637.89        50.71888
638.32        50.55686
638.75        50.20213
639.18        49.60498
639.61        49.42516
640.04        48.68208
640.47        48.37994
640.90        48.23138
641.33        48.22245
641.76        48.26295
642.18        48.23105
642.61        48.08472
643.04        47.85671
643.47        47.62002
643.90         47.4895
644.33        47.49388
644.76        47.59862
645.18        47.73973
645.61        47.80481
646.04        47.77682
646.47        47.69862
646.90        47.65295
647.33        47.76136
647.75        48.04053
648.18        48.49156
648.61        49.05471
649.04        49.50258
649.47        49.73998
649.89        50.44403
650.32        50.37011
650.75         50.8556
651.18        51.49993
651.61        52.14874
652.03        52.75907
652.46        53.23782
652.89        53.60446
653.32         54.0247
653.74        54.65103
654.17        54.64643
654.60        55.73285
655.03        55.96146
655.46        55.91802
655.88         56.8533
656.31        59.77434
656.74        62.28896
657.16        62.35242
657.59        62.27323
658.02        60.04102
658.45        60.41963
658.87        60.03637
659.30         60.5359
659.73        61.01295
660.15        62.04145
660.58        61.65575
661.01        61.74296
661.44        61.87796
661.86        61.91469
662.29         61.8561
662.72        62.52935
663.14        62.70307
663.57        62.97436
664.00        63.06488
664.42        63.41145
664.85        64.02595
665.27        64.66258
665.70        65.15862
666.13        65.42741
666.55        65.44299
666.98        65.17087
667.41        64.74493
667.83        64.80374
668.26        64.72626
668.69        65.01102
669.11        65.40726
669.54        65.72527
669.96        65.90206
670.39        66.35973
670.82        66.54626
671.24        66.60039
671.67        66.46574
672.09        66.54752
672.52        66.84569
672.94         67.0967
673.37        67.23099
673.80        67.14989
674.22        66.94212
674.65        66.89864
675.07        67.07085
675.50        67.25878
675.92        67.41088
676.35        67.52623
676.77        67.58819
677.20        67.59087
677.62        67.59292
678.05        67.67126
678.47        67.83362
678.90        68.09344
679.32        68.38726
679.75        68.43038
680.17        68.50117
680.60        68.40729
681.02        68.31117
681.45        68.26524
681.87        68.32562
682.30        68.56677
682.72        68.92977
683.15        69.10429
683.57        69.12195
684.00        69.30228
684.42        69.64996
684.85        69.91747
685.27        70.08139
685.70        70.32024
686.12        70.57273
686.54        70.61203
686.97        70.47281
687.39         70.3987
687.82        70.39496
688.24        70.35847
688.66        70.31376
689.09        70.15002
689.51        70.28172
689.94        70.33121
690.36        70.41891
690.78        70.52954
691.21        70.68607
691.63         70.9061
692.06        71.18179
692.48        71.51394
692.90        71.80389
693.33        71.90563
693.75        71.79022
694.17        71.46586
694.60        71.11777
695.02        71.02916
695.44        71.22826
695.87        71.73142
696.29         72.3028
696.71        72.19482
697.14        71.58879
697.56        71.46663
697.98        71.81055
698.41        72.48634
698.83        72.18841
699.25        72.52313
699.68        72.98476
700.10        73.17619
700.52        73.02031
700.94        72.67873
701.37        72.32932
701.79        72.22571
702.21        72.42834
702.64        72.82947
703.06        73.30853
703.48        73.65128
703.90        73.78858
704.33         73.7913
704.75        73.70488
705.17        73.59283
705.59        73.49588
706.01        73.38924
706.44        73.32643
706.86        73.41203
707.28        73.64214
707.70          74.014
708.12        74.43368
708.55        74.68015
708.97        74.74167
709.39        74.77117
709.81        74.80698
710.23        74.82495
710.66         74.8413
711.08        74.90966
711.50        74.97461
711.92        74.94318
712.34        74.81133
712.76        74.63026
713.19        74.44384
713.61        74.36164
714.03        74.39921
714.45        74.53139
714.87        74.74326
715.29        75.01586
715.71        75.32247
716.13        75.64198
716.56        75.91697
716.98        76.15548
717.40        76.30032
717.82        76.35816
718.24        76.30296
718.66        76.09976
719.08        75.78184
719.50        75.40099
719.92        75.07153
720.34        74.96017
720.76        75.09814
721.19        75.40567
721.61        75.84321
722.03        76.27877
722.45        76.63995
722.87        76.94163
723.29        77.10884
723.71         77.0314
724.13        76.71594
724.55        76.21066
724.97        75.67391
725.39        75.36569
725.81        75.35616
726.23        75.57249
726.65        75.91566
727.07        76.28604
727.49        76.50021
727.91        76.69877
728.33        76.86038
728.75        77.01555
729.17        77.16983
729.59        77.28514
730.01        77.35144
730.43        77.41026
730.85        77.47115
731.27        77.45634
731.69        77.33615
732.10        77.47267
732.52        77.20076
732.94         77.0763
733.36         76.9669
733.78         76.8185
734.20        76.63075
734.62        76.78225
735.04        77.30866
735.46        76.67191
735.88        77.21085
736.30        77.36084
736.72         77.7943
737.13        78.30708
737.55         78.6835
737.97        78.81045
738.39         78.6293
738.81        77.99555
739.23        77.19424
739.65        77.20555
740.06        77.90361
740.48          78.254
740.90        78.17957
741.32        78.33533
741.74        78.72304
742.16        78.97866
742.57        79.07285
742.99        79.08527
743.41        79.03335
743.83        78.92702
744.25        78.78914
744.67        78.60538
745.08        78.45963
745.50        78.46222
745.92        78.63513
746.34        78.93594
746.75        79.25174
747.17        79.37175
747.59        79.26212
748.01         79.0219
748.42        78.74451
748.84        78.54684
749.26        78.51932
749.68        78.65012
750.09        78.88357
750.51        79.25333
750.93        79.58504
751.35        79.42391
751.76        78.87165
752.18        78.56046
752.60        78.53735
753.01        78.47997
753.43        78.38321
753.85        78.30428
754.27        78.22886
754.68        78.40025
755.10        78.86178
755.52        78.40485
755.93        78.98341
756.35        79.03861
756.77        79.21873
757.18        79.35593
757.60        79.45941
758.02        79.88431
758.43        80.43375
758.85        79.59978
759.26        79.49989
759.68        78.48549
760.10        78.89051
760.51         79.3225
760.93        80.18938
761.34        79.62153
761.76        80.05759
762.18        80.07655
762.59        80.42187
763.01        80.28937
763.42        80.02401
763.84        80.04827
764.26         80.3577
764.67          80.246
765.09        79.83121
765.50        79.63158
765.92        79.72377
766.33        79.83385
766.75         79.8185
767.16        79.83176
767.58        79.81065
768.00        79.43904
768.41        78.99987
768.83        79.52794
769.24        80.71005
769.66        81.13662
770.07        80.72797
770.49        80.04069
770.90        79.44723
771.32        79.84774
771.73        80.98976
772.15        81.33031
772.56        80.79661
772.97        80.13859
773.39        79.66534
773.80        79.88548
774.22        80.63852
774.63        80.92167
775.05        80.62222
775.46         80.6068
775.88        80.84286
776.29        80.78371
776.70        80.49263
777.12        80.40982
777.53        80.58951
777.95        80.84775
778.36        81.11923
778.77        81.24916
779.19        81.22691
779.60        81.15462
780.02        81.03532
780.43         80.9799
780.84        81.05834
781.26        80.81097
781.67        80.45584
782.09        81.31802
782.50        82.93848
782.91        82.92258
783.33        81.48049
783.74        80.91187
784.15        81.35559
784.57        81.48544
784.98        81.28654
785.39        81.27023
785.81        81.47527
786.22        81.93157
786.63        82.49638
787.04        82.77444
787.46        82.72549
787.87        82.47477
788.28        82.21789
788.70         82.0338
789.11        81.96731
789.52        82.02512
789.93        82.13446
790.35        82.15985
790.76        82.07903
791.17         81.9187
791.58        81.78907
792.00        81.76508
792.41        81.88126
792.82        82.31665
793.23        82.84268
793.65        82.66579
794.06        82.03508
794.47        82.04183
794.88        82.50306
795.29        83.43719
795.71        82.49827
796.12        82.39348
796.53        82.51833
796.94         82.3791
797.35        82.09978
797.76        82.48472
798.18        83.35986
798.59        83.75864
799.00        83.55815
799.41        83.24049
799.82        82.95652
800.23        82.76917
800.64        82.73866
801.06         82.7973
801.47        82.92415
801.88        82.97989
802.29        82.91702
802.70        82.77509
803.11          82.573
803.52          82.338
803.93        82.12151
804.34        81.93731
804.75        81.81824
805.17        81.92084
805.58        82.31686
805.99        82.56919
806.40        82.71218
806.81         83.6801
807.22        85.02209
807.63        84.71893
808.04        83.05907
808.45        82.29407
808.86        82.62203
809.27         82.8358
809.68        82.78504
810.09        82.79633
810.50        82.83273
810.91        82.80954
811.32          82.834
811.73        83.07046
812.14        83.52943
812.55        84.15398
812.96        84.73836
813.37        84.89902
813.78        84.54951
814.19        83.85455
814.60        83.04766
815.01        82.43543
815.42        82.09937
815.83        81.95431
816.24        81.98884
816.65        82.16809
817.05        82.45761
817.46        82.84164
817.87        83.23296
818.28         83.4356
818.69        83.41402
819.10         83.1807
819.51        82.90259
819.92        82.90289
820.33        83.25169
820.74        83.84233
821.14        84.45064
821.55        84.70604
821.96        84.52656
822.37        84.03766
822.78        83.42738
823.19        83.01078
823.60        82.90256
824.00        83.04816
824.41        83.30571
824.82        83.56392
825.23         83.7493
825.64        83.89196
826.04        84.01262
826.45        84.09004
826.86        84.13996
827.27        84.16316
827.68        84.11202
828.08        83.95288
828.49        83.63958
828.90        83.22135
829.31        82.86125
829.72        82.81942
830.12        83.17083
830.53        83.77418
830.94        84.40755
831.35        84.62509
831.75        84.33112
832.16        83.64171
832.57        82.82401
832.97        82.28038
833.38        82.13563
833.79        82.24777
834.20        82.53927
834.60        82.88504
835.01        83.22395
835.42        83.64764
835.82         84.0689
836.23         84.2274
836.64        84.11523
837.04        83.74741
837.45        83.39843
837.86         83.6059
838.26        84.49094
838.67        85.84776
839.08        87.20588
839.48        87.66897
839.89        87.00369
840.29        85.53427
840.70         83.9531
841.11        83.04156
841.51        83.00486
841.92        83.58321
842.33        84.48801
842.73        85.20705
843.14        85.42106
843.54        85.35112
843.95        85.14087
844.35        85.08074
844.76        85.22253
845.17        85.44749
845.57        85.63631
845.98        85.57969
846.38         85.2664
846.79        84.78851
847.19        84.28722
847.60        83.94422
848.00        83.83189
848.41        83.85641
848.81        84.01196
849.22        84.18723
849.62        84.38269
850.03        84.61505
850.43        84.83253
850.84        84.86603
851.24        84.74805
851.65        84.42542
852.05        84.16808
852.46        84.31558
852.86        84.91727
853.27         85.8265
853.67        86.64197
854.07         86.9591
854.48        86.67796
854.88        85.97443
855.29        85.02325
855.69        84.32063
856.10        83.96742
856.50         83.9322
856.90        84.08871
857.31        84.24232
857.71        84.37626
858.12        84.47702
858.52        84.59785
858.92        84.67477
859.33        84.67516
859.73         84.6444
860.13        84.52608
860.54        84.27905
860.94        83.96808
861.34        83.59948
861.75        83.28709
862.15        83.26463
862.55        83.54221
862.96        84.00299
863.36        84.53635
863.76        84.83858
864.17        84.80131
864.57        84.54263
864.97        84.07746
865.38        83.44528
865.78        82.73385
866.18        81.94104
866.58        81.24347
866.99         80.9529
867.39        81.17082
867.79        81.79869
868.19        82.61317
868.60        83.22788
869.00        83.56763
869.40        83.69186
869.80        83.68775
870.21        83.73959
870.61        83.96951
871.01        84.22717
871.41        84.40205
871.81        84.35593
872.22        84.06172
872.62        83.58817
873.02        83.06837
873.42        82.70589
873.82        82.56947
874.22        82.60454
874.63        82.70226
875.03        82.70606
875.43        82.55006
875.83         82.2792
876.23         81.9753
876.63        81.75562
877.03        81.65674
877.44        81.63564
877.84        81.63335
878.24        81.53328
878.64        81.29156
879.04        80.85908
879.44        80.45295
879.84        80.45992
880.24        80.90231
880.64         81.6356
881.04        82.29882
881.44         82.3108
881.84        81.56617
882.24        80.28392
882.65        78.91904
883.05        78.17104
883.45        78.22948
883.85        78.89861
884.25        79.87604
884.65        80.63219
885.05        80.97632
885.45        81.05389
885.85        81.01196
886.25        81.07777
886.65         81.3176
887.05        81.63109
887.45        81.92258
887.85        82.06427
888.25        82.01525
888.65        81.82446
889.04        81.57992
889.44        81.44033
889.84        81.41895
890.24        81.46559
890.64        81.47344
891.04         81.2737
891.44         80.8503
891.84        80.30304
892.24        79.75317
892.64        79.35916
893.04        79.18593
893.44        79.21523
893.83        79.45286
894.23         79.8399
894.63        80.35573
895.03        80.95855
895.43        81.62776
895.83        82.34285
896.23        83.03397
896.63        83.63318
897.02        83.97298
897.42        83.84235
897.82        83.23877
898.22           82.31
898.62         81.2566
899.01        80.35521
899.41        79.73625
899.81        79.32793
900.21        79.17848
900.61        79.34514
901.00        79.78462
901.40        80.45253
901.80        81.12348
902.20         81.4263
902.59           81.29
902.99        80.80247
903.39        80.16259
903.79        79.71828
904.18        79.56898
904.58        79.61449
904.98        79.81747
905.38        80.12645
905.77        80.49976
906.17        80.98799
906.57        81.42643
906.96        81.53184
907.36        81.24401
907.76        80.64857
908.15         80.0716
908.55         80.0205
908.95        80.60051
909.34        81.65578
909.74        82.77311
910.14        83.36993
910.53        83.24736
910.93        82.60979
911.33        81.68188
911.72        80.79595
912.12        80.16288
912.52        79.70959
912.91        79.40919
913.31          79.251
913.70        79.21691
914.10        79.28874
914.49        79.56958
914.89         80.1025
915.29        80.87527
915.68        81.83896
916.08         82.6487
916.47        82.84164
916.87        82.35754
917.26        81.33308
917.66        80.25401
918.05        79.68559
918.45        79.76878
918.84        80.38902
919.24        81.20625
919.64        81.76002
920.03        81.90406
920.42        81.73766
920.82         81.5173
921.21        81.58111
921.61        81.98824
922.00        82.66361
922.40        83.33074
922.79        83.69884
923.19        83.63992
923.58         83.2794
923.98        82.85085
924.37        82.61185
924.77        82.64392
925.16        82.80905
925.55        82.98829
925.95        82.95895
926.34         82.6795
926.74        82.22572
927.13        81.62408
927.52        80.83217
927.92        79.96339
928.31        79.06082
928.70        78.33482
929.10        78.06386
929.49         78.2762
929.89        78.81162
930.28          79.634
930.67        80.52753
931.07        81.33308
931.46         82.1701
931.85        82.72444
932.24        82.57285
932.64        81.74829
933.03        80.35563
933.42        79.05706
933.82        78.82437
934.21        79.83561
934.60        81.87566
934.99        84.22477
935.39        85.54967
935.78        85.49567
936.17        84.31294
936.56        82.70855
936.96        81.81831
937.35        81.93808
937.74          82.728
938.13        83.57842
938.53        83.55698
938.92        82.48673
939.31        80.78342
939.70        79.06013
940.09        78.15478
940.49        78.22269
940.88        79.02022
941.27        80.17905
941.66        81.02922
942.05        81.33077
942.44        81.31423
942.84         81.1525
943.23        81.10864
943.62         81.2746
944.01        81.46673
944.40        81.73497
944.79        82.21505
945.18        82.86061
945.57        83.63571
945.97        84.14555
946.36        83.83051
946.75        82.58994
947.14        80.73849
947.53         78.8081
947.92        77.54048
948.31        77.12577
948.70        77.35933
949.09        78.07321
949.48        78.95076
949.87        79.81395
950.26         80.7192
950.65        81.53493
951.04        82.05154
951.43        82.21635
951.82        82.02604
952.21        81.61921
952.60        81.27745
952.99        81.11102
953.38        81.09545
953.77        81.18904
954.16        81.30609
954.55        81.40448
954.94        81.48325
955.33         81.5978
955.72        81.82081
956.11         82.1525
956.50        82.59036
956.89        82.88296
957.28        82.63415
957.66        81.79254
958.05        80.53654
958.44        79.37045
958.83        79.02095
959.22         79.5976
959.61        80.90795
960.00        82.38068
960.39         82.9493
960.78        82.31639
961.16        80.81792
961.55        79.14978
961.94        78.21021
962.33        78.22434
962.72        78.96247
963.11        80.03286
963.49         80.7169
963.88        80.65305
964.27        80.08743
964.66        79.45976
965.04        79.44135
965.43        80.11046
965.82        81.29398
966.21         82.4589
966.60        82.62125
966.98        81.51266
967.37        79.60318
967.76        77.64021
968.15        76.53072
968.53        76.46082
968.92        77.19724
969.31        78.29783
969.69        78.90128
970.08        78.61785
970.47        77.72807
970.86        76.82535
971.24        76.74318
971.63          77.649
972.02        79.32449
972.40         81.1409
972.79        81.57468
973.17        80.33224
973.56        77.98549
973.95        75.59142
974.33        74.51672
974.72        75.01012
975.11        76.63224
975.49        78.76032
975.88        80.05152
976.26         80.0797
976.65        79.22237
977.04        77.91142
977.42        76.77918
977.81        76.03207
978.19        75.42712
978.58        75.13911
978.96        75.44696
979.35        76.30633
979.74        77.72874
980.12        79.27768
980.51        79.85508
980.89        79.35075
981.28         78.0574
981.66        76.64867
982.05        76.11487
982.43        76.68716
982.82        78.03842
983.20        79.93228
983.59        81.73309
983.97        83.20667
984.35        84.44003
984.74        85.15657
985.12         85.1865
985.51        84.48407
985.89        83.13268
986.28        81.64006
986.66        80.70247
987.04        80.56468
987.43        81.05524
987.81        81.90458
988.20        82.35966
988.58        82.20188
988.96        81.52296
989.35         80.6684
989.73        80.10521
990.12        79.92384
990.50        80.04736
990.88        80.03401
991.27        79.18282
991.65        77.45957
992.03        75.18817
992.42        73.22755
992.80        72.67545
993.18        73.74081
993.56        76.14285
993.95        78.95269
994.33        80.56837
994.71        80.29677
995.10        78.71822
995.48        76.74149
995.86        75.83337
996.24        76.34872
996.63        77.67868
997.01        79.53203
997.39        80.86713
997.77        81.20879
998.15        81.06581
998.54        80.39404
998.92        78.94041
999.30        76.94757
999.68        74.46618
1000.06        72.50893
1000.45        72.53979
1000.83        74.88227
1001.21        79.33453
1001.59        84.56271
1001.97        87.30756
1002.35        86.38242
1002.73        82.82668
1003.12        78.67093
1003.50        76.50393
1003.88        77.01029
1004.26        79.28928
1004.64        82.67064
1005.02        85.64328
1005.40        87.31747
1005.78        88.28971
1006.16        88.07007
1006.54        85.85863
1006.92         81.9753
1007.30        76.84428
1007.69        72.17548
1008.07        70.28059
1008.45        71.77892
1008.83        76.20683
1009.21        82.35616
1009.59        86.92104
1009.97        88.10602
1010.35        86.69778
1010.73         83.5229
1011.11        79.94694
1011.49          76.711
1011.86        73.55171
1012.24        71.05218
1012.62        69.92455
1013.00        70.20213
1013.38        71.85643
1013.76        74.40663
1014.14        76.36452
1014.52        76.95512
1014.90        76.43901
1015.28        75.29448
1015.66        74.35175
1016.04        73.84243
1016.41        73.45127
1016.79        73.15701
1017.17        73.06693
1017.55        73.15583
1017.93        73.50297
1018.31        73.83208
1018.69        73.64738
1019.06         72.8926
1019.44        71.61068
1019.82        70.18359
1020.20        69.58302
1020.58          70.095
1020.95        71.16445
1021.33        72.41061
1021.71        73.27675
1022.09        73.71082
1022.46        74.16741
1022.84        74.18131
1023.22        72.97768
1023.60        70.63113
1023.97        67.34325
1024.35        65.03232
1024.73        65.84816
