SpectraSmart Spectrum 2.9.0.0
--------- Device Information -----------
Spectrum Name :  反射率_0
Saving Time :  2024/04/26 23:40:44
Spectro-Module Model Name : SE2030-DUVN
Spectro-Module Serial Number : OS361AC55029948
Wavelength Start : 200
Wavelength End : 1025
Wavelength Unit : Wavelength(nm)
Spectrum Unit : Reflectance(%)
-----------Spectrum Setting ------------
Integration Time : 20ms
Average : 10
Boxcar : 0
Background removal :  enabled
linearity correction :  enabled
SC :  disabled
Intensity correction :  disabled
DWT denoise :  enabled
savitzky-golay :  disabled
FFT :  disabled
Running average :  disabled
Kalman :  disabled
High pass :  disabled
---------------BEGIN--------------------
Wavelength(nm)             Reflectance(%)
200.29               0
200.75        45.70535
201.21        49.56987
201.67        53.38278
202.13        55.68261
202.58        56.46067
203.04        56.56371
203.50        56.95755
203.96        59.55344
204.42        65.19485
204.88        73.12846
205.34        80.41044
205.80        82.51352
206.26        78.76289
206.72        71.20684
207.18        63.68731
207.64        59.02389
208.10          57.082
208.55         57.5753
209.01        58.89228
209.47        57.34934
209.93        52.94711
210.39        48.96793
210.85         47.3958
211.31        49.41129
211.77        56.22403
212.23        72.64884
212.69        115.5803
213.14        195.2907
213.60        205.4366
214.06        159.2722
214.52        124.4311
214.98        107.7043
215.44        99.68066
215.90        93.95108
216.36        90.14451
216.81         88.8924
217.27        90.76976
217.73        98.05048
218.19        110.5963
218.65        119.0923
219.11        118.3438
219.57         112.816
220.02        109.6223
220.48        115.1313
220.94        129.8998
221.40        155.6366
221.86        192.6135
222.32        219.4711
222.77        214.8796
223.23        193.0231
223.69        168.3892
224.15        149.0689
224.61        135.3877
225.06        124.5391
225.52          118.26
225.98        117.7669
226.44        122.2027
226.90        130.6002
227.36         140.164
227.81        145.6225
228.27        145.9961
228.73        142.9418
229.19         139.293
229.65        138.4827
230.10        140.7824
230.56        145.0454
231.02        149.4658
231.48        151.3386
231.93        150.0263
232.39         147.267
232.85        144.2687
233.31        142.6523
233.77        142.5937
234.22         143.365
234.68         144.424
235.14        145.0254
235.60        144.8478
236.05        144.3474
236.51        142.9693
236.97        140.1783
237.43        136.0345
237.88        130.8355
238.34        125.6895
238.80        122.7366
239.26        122.6334
239.71        126.0373
240.17        131.5379
240.63        135.8218
241.08        136.8764
241.54        133.9336
242.00        129.9471
242.46        131.2151
242.91        142.1054
243.37         164.163
243.83        198.3573
244.28        229.1647
244.74        231.7336
245.20         205.396
245.66         169.946
246.11        142.9098
246.57        125.4141
247.03        112.5053
247.48        101.4025
247.94        90.67757
248.40        82.32273
248.85        77.35608
249.31        75.44656
249.77        75.36937
250.22        76.54858
250.68        78.81298
251.14        82.49477
251.59        87.25446
252.05         91.9773
252.51         96.4845
252.96        98.66426
253.42        97.80379
253.88         94.7627
254.33        90.04305
254.79        87.68945
255.25          90.877
255.70        99.00892
256.16        110.8715
256.62        121.3256
257.07        122.5167
257.53        116.6125
257.99        108.4365
258.44        102.0833
258.90         101.414
259.35        104.7004
259.81        110.4153
260.27        115.9696
260.72        118.1843
261.18        117.3521
261.63        114.4565
262.09        111.7091
262.55        110.4817
263.00        110.5746
263.46        111.5918
263.91        112.1896
264.37        111.3693
264.83        109.0646
265.28        105.8829
265.74        103.0591
266.19        101.5146
266.65        101.4824
267.11        102.3489
267.56        103.4924
268.02        103.9795
268.47        103.4955
268.93        102.4305
269.38        100.9319
269.84        99.34913
270.30        97.80704
270.75        96.16334
271.21        94.67154
271.66         93.6114
272.12        93.01429
272.57        92.74948
273.03        92.47901
273.48        91.57701
273.94        90.04013
274.39        88.02457
274.85         85.9886
275.31        84.28351
275.76        82.95796
276.22        81.98305
276.67        81.15693
277.13        80.44493
277.58        79.66558
278.04         78.8819
278.49        77.99348
278.95        77.08798
279.40         76.0654
279.86         75.0715
280.31        73.88657
280.77        72.45918
281.22        70.74574
281.68        68.96772
282.13        67.34229
282.59        66.37405
283.04        66.00925
283.50        66.12614
283.95        66.33899
284.41        66.10041
284.86        65.26145
285.32        64.05492
285.77        62.73125
286.22        61.77316
286.68         61.2618
287.13        60.97103
287.59        60.71466
288.04        60.12111
288.50        59.18309
288.95        58.00965
289.41        56.82097
289.86         55.7867
290.32         55.0261
290.77        54.42389
291.22        53.96481
291.68        53.59981
292.13        53.27302
292.59        53.03154
293.04        52.84066
293.50        52.68343
293.95        52.53926
294.40        52.40643
294.86        52.31822
295.31        52.31405
295.77        52.41586
296.22        52.60049
296.68        52.83353
297.13        53.02478
297.58        53.17028
298.04        53.29486
298.49        53.45382
298.95        53.76712
299.40        54.22767
299.85        54.78076
300.31         55.3358
300.76         55.7294
301.21        55.93126
301.67        56.01055
302.12        55.98762
302.58        55.98545
303.03        56.00335
303.48        56.04482
303.94        56.12831
304.39        56.21928
304.84        56.32609
305.30        56.46057
305.75        56.58049
306.20        56.69629
306.66        56.81577
307.11        56.91361
307.57        56.97269
308.02        56.89024
308.47        56.68428
308.93        56.39782
309.38        56.11272
309.83        56.02671
310.29        56.16641
310.74        56.45889
311.19        56.76028
311.65        56.82759
312.10        56.59545
312.55        56.14167
313.00        55.61182
313.46        55.22218
313.91        55.00865
314.36        54.92223
314.82        54.86123
315.27         54.6805
315.72        54.34201
316.18        53.91846
316.63        53.48996
317.08        53.19738
317.53        53.06608
317.99        53.03196
318.44        53.02315
318.89        52.91192
319.35        52.66106
319.80        52.31469
320.25        51.91534
320.70        51.53098
321.16        51.18691
321.61        50.88121
322.06        50.60786
322.51        50.36538
322.97        50.14101
323.42        49.93755
323.87        49.76262
324.32         49.6328
324.78        49.52381
325.23        49.45903
325.68        49.33989
326.13        49.02431
326.59        48.50096
327.04         47.8377
327.49        47.19432
327.94        46.82702
328.39         46.7849
328.85        46.97608
329.30        47.28612
329.75        47.40133
330.20        47.22434
330.66        46.83201
331.11        46.36708
331.56        46.02728
332.01        45.87435
332.46        45.83144
332.92        45.81772
333.37        45.77422
333.82        45.64519
334.27        45.48227
334.72         45.2925
335.17        45.07177
335.63         44.8328
336.08        44.60104
336.53        44.42594
336.98        44.41116
337.43        44.56974
337.88        44.85293
338.34        45.18357
338.79        45.47655
339.24        45.66086
339.69        45.75349
340.14        45.71632
340.59         45.5014
341.05        45.14141
341.50        44.66801
341.95        44.20421
342.40         43.9334
342.85        43.90253
343.30        44.06715
343.75        44.35152
344.20        44.62047
344.66         44.8205
345.11        44.97077
345.56        45.07305
346.01        45.13908
346.46        45.17682
346.91        45.17549
347.36        45.13488
347.81        45.06745
348.26        44.98178
348.72        44.88393
349.17        44.79816
349.62        44.77407
350.07        44.81813
350.52        44.92371
350.97        45.02398
351.42         45.0104
351.87        44.86385
352.32        44.61427
352.77        44.35754
353.22        44.23576
353.67        44.27167
354.13        44.42064
354.58        44.57749
355.03        44.56221
355.48        44.33643
355.93        43.96456
356.38        43.56759
356.83        43.32554
357.28        43.27066
357.73        43.33023
358.18        43.40817
358.63        43.35303
359.08        43.11929
359.53        42.76289
359.98        42.32638
360.43        41.86457
360.88        41.40607
361.33        40.94215
361.78        40.49645
362.23        40.11242
362.68        39.80449
363.13        39.57061
363.58        39.39339
364.03        39.23429
364.48        39.07474
364.93        38.91598
365.38        38.75066
365.83        38.57381
366.28        38.38421
366.73        38.17722
367.18        37.95879
367.63        37.74139
368.08        37.52922
368.53        37.32431
368.98        37.12127
369.43        36.90839
369.88        36.68448
370.33        36.45234
370.78        36.22675
371.23        36.03479
371.68        35.87846
372.13        35.74323
372.58        35.60551
373.03        35.42603
373.48        35.19553
373.93        34.93229
374.38         34.6438
374.83        34.34538
375.28        34.05012
375.72        33.74546
376.17        33.48391
376.62        33.30164
377.07        33.20214
377.52        33.17929
377.97        33.17056
378.42        33.07661
378.87        32.87853
379.32        32.59766
379.77        32.32392
380.22        32.19118
380.67        32.21659
381.11        32.36868
381.56        32.50821
382.01        32.43526
382.46         32.1158
382.91        31.63726
383.36        31.15355
383.81        30.87267
384.26          30.831
384.71        30.96012
385.15        31.15777
385.60        31.25244
386.05        31.19097
386.50        31.02548
386.95        30.81831
387.40        30.66528
387.85         30.5917
388.29        30.54102
388.74        30.51242
389.19        30.43579
389.64        30.29844
390.09        30.11876
390.54        29.92973
390.98         29.7758
391.43        29.68786
391.88        29.64729
392.33        29.61632
392.78        29.54084
393.23        29.41335
393.67        29.23874
394.12        29.08575
394.57         28.9977
395.02        28.97851
395.47        28.99681
395.91        29.01641
396.36         28.9638
396.81         28.8409
397.26        28.68632
397.71         28.5167
398.15        28.37123
398.60        28.29766
399.05        28.16482
399.50         28.0283
399.95        28.17762
400.39        28.52236
400.84        28.54159
401.29        28.23621
401.74        28.05689
402.18        28.02694
402.63        27.86111
403.08        27.61379
403.53        27.49653
403.97        27.52767
404.42        27.65476
404.87        27.79557
405.32        27.81366
405.76        27.67675
406.21         27.4423
406.66         27.1989
407.11        27.08666
407.55        27.14316
408.00        27.31053
408.45        27.50831
408.90        27.58075
409.34        27.48149
409.79        27.27152
410.24        27.02908
410.68          26.854
411.13        26.77963
411.58        26.77125
412.03        26.79532
412.47        26.79979
412.92        26.75838
413.37        26.70103
413.81        26.64355
414.26        26.63018
414.71        26.65826
415.15        26.71935
415.60        26.78277
416.05        26.82582
416.49         26.8418
416.94        26.83624
417.39        26.82166
417.83        26.81428
418.28        26.81808
418.73        26.82068
419.17         26.8286
419.62        26.85369
420.07        26.89444
420.51        26.94312
420.96        26.97414
421.41        26.94138
421.85        26.83207
422.30        26.65264
422.74        26.44364
423.19        26.38172
423.64        26.43886
424.08        26.43308
424.53        26.33479
424.98        26.29587
425.42        26.32867
425.87        26.27353
426.31        26.16033
426.76        26.22368
427.21        26.39665
427.65        26.29659
428.10         26.0023
428.54        25.91386
428.99        26.05681
429.44        26.29809
429.88        26.52838
430.33        26.47362
430.77        26.20884
431.22        26.25391
431.66        26.56594
432.11        26.66591
432.56        26.55837
433.00        26.47663
433.45        26.38618
433.89        26.40334
434.34        26.56866
434.78         25.9497
435.23        26.10179
435.67        26.05288
436.12        26.19142
436.57        26.17678
437.01         26.0119
437.46        25.90761
437.90        25.86192
438.35          25.754
438.79         25.6103
439.24        25.55776
439.68        25.60166
440.13        25.70663
440.57        25.84165
441.02        25.94764
441.46        25.99462
441.91         26.0085
442.35        25.98132
442.80        25.99328
443.24        26.02222
443.69        26.01259
444.13        25.96849
444.58        25.96763
445.02        26.00909
445.47        26.05941
445.91        26.10781
446.36        26.16076
446.80        26.20675
447.24         26.2426
447.69         26.2646
448.13        26.25804
448.58        26.22771
449.02        26.17345
449.47        26.10833
449.91        26.03914
450.36        25.98078
450.80        25.93001
451.25         25.8965
451.69        25.87575
452.13        25.86885
452.58        25.86642
453.02        25.87104
453.47        25.89005
453.91        25.92048
454.36        25.96705
454.80        25.98935
455.24        25.92358
455.69        25.77591
456.13        25.55495
456.58         25.3633
457.02         25.3146
457.46        25.43464
457.91        25.67868
458.35         25.9306
458.79        26.01499
459.24        25.91603
459.68        25.68026
460.13        25.42972
460.57        25.28289
461.01        25.29031
461.46        25.39062
461.90        25.54852
462.34        25.68767
462.79        25.76789
463.23        25.81929
463.68        25.82483
464.12        25.77021
464.56        25.65776
465.01        25.52598
465.45        25.37001
465.89        25.25466
466.34        25.18988
466.78        25.15519
467.22        25.15952
467.67        25.19139
468.11        25.25694
468.55        25.34668
468.99        25.43326
469.44        25.46925
469.88        25.44829
470.32        25.38033
470.77        25.30153
471.21        25.27692
471.65        25.31945
472.10        25.41184
472.54        25.51861
472.98        25.59193
473.42        25.61713
473.87        25.61678
474.31        25.59234
474.75        25.56934
475.20        25.56106
475.64        25.55223
476.08        25.55333
476.52        25.54431
476.97        25.52057
477.41        25.54432
477.85        25.63258
478.29        25.53967
478.74        25.65375
479.18        25.73971
479.62        25.87767
480.06        25.96733
480.50        26.00546
480.95        26.00423
481.39        25.95049
481.83        26.08002
482.27        26.01521
482.72        26.07212
483.16        26.15573
483.60        26.22141
484.04        26.25272
484.48        26.41602
484.93        26.71923
485.37        26.50933
485.81         26.7366
486.25        26.86533
486.69        26.98032
487.14        27.26848
487.58        27.16308
488.02        27.38102
488.46        26.88735
488.90        27.37439
489.34        27.30844
489.79        27.50978
490.23        27.55984
490.67        27.73096
491.11         27.9707
491.55        27.94465
491.99        27.73045
492.43        27.69299
492.88        27.87273
493.32        28.07813
493.76        28.26322
494.20        28.45404
494.64        28.63765
495.08         28.7486
495.52        28.80284
495.96         28.9911
496.41        29.25283
496.85          29.214
497.29        28.92947
497.73        29.00483
498.17        29.08665
498.61        29.34145
499.05        29.58192
499.49        29.73223
499.93        29.71482
500.37        29.89031
500.82         30.2081
501.26        30.40955
501.70        30.47379
502.14        30.53434
502.58        30.62491
503.02        30.73881
503.46        30.88247
503.90        31.05629
504.34        31.21324
504.78        31.27647
505.22         31.2344
505.66        31.11456
506.10        30.98302
506.54         30.9449
506.98        31.02464
507.42        31.18855
507.86        31.38634
508.30        31.53428
508.74        31.60497
509.18        31.62411
509.62        31.61211
510.06        31.60207
510.50        31.60848
510.94        31.61952
511.38        31.63947
511.82        31.67739
512.26        31.73411
512.70        31.81193
513.14        31.90029
513.58        31.97826
514.02        32.03918
514.46        32.08393
514.90        32.12111
515.34        32.16751
515.78         32.2242
516.22        32.28231
516.66        32.32638
517.10        32.33326
517.54        32.29911
517.98        32.23453
518.42        32.15483
518.86        32.08351
519.30        32.02985
519.74        31.98965
520.18         31.9611
520.62        31.93897
521.06        31.92196
521.50        31.91552
521.93        31.91907
522.37        31.91898
522.81         31.9178
523.25        31.91449
523.69        31.91688
524.13        31.94015
524.57         31.9815
525.01        32.02745
525.45        32.06166
525.89         32.0589
526.32        32.00925
526.76        31.93271
527.20        31.82768
527.64        31.69528
528.08          31.545
528.52        31.38016
528.96        31.23545
529.40        31.16275
529.83        31.16739
530.27         31.2367
530.71        31.31714
531.15        31.32508
531.59        31.24064
532.03        31.08451
532.46        30.90237
532.90        30.79011
533.34        30.76293
533.78        30.77645
534.22        30.78693
534.66        30.76445
535.09        30.67641
535.53        30.48252
535.97        30.24174
536.41        30.12242
536.85        30.14876
537.28        30.23947
537.72        30.37201
538.16        30.53247
538.60        30.69796
539.04        30.87055
539.47        31.01206
539.91        31.08493
540.35        31.08199
540.79        31.01767
541.22        30.94472
541.66        30.96116
542.10         31.0834
542.54        31.28276
542.97        31.50607
543.41        31.68041
543.85         31.7818
544.29        31.84125
544.72        31.87829
545.16        31.94325
545.60        32.04587
546.04        32.17379
546.47        32.33392
546.91        32.53325
547.35         32.7619
547.79        33.01607
548.22        33.26465
548.66        33.45198
549.10        33.60714
549.53         33.7277
549.97        33.83556
550.41        33.89272
550.84        33.94654
551.28         34.0838
551.72        34.26818
552.15        34.46812
552.59         34.7168
553.03        34.51629
553.46        34.91328
553.90        35.01508
554.34        35.12755
554.77        35.24612
555.21        35.38535
555.65        35.53976
556.08        35.69227
556.52         35.8237
556.96        35.92188
557.39        36.06571
557.83        36.22709
558.27        36.20208
558.70        36.03741
559.14        36.02605
559.57        36.16074
560.01         36.2542
560.45        36.30027
560.88        36.39596
561.32        36.55323
561.75        36.72219
562.19        36.88614
562.63        36.96908
563.06        36.97995
563.50        37.03159
563.93        37.10118
564.37        37.16692
564.80        37.24913
565.24        37.29861
565.68        37.24307
566.11        37.75457
566.55        37.47726
566.98        37.54568
567.42        37.62978
567.85        37.80432
568.29        38.08216
568.72        38.45002
569.16        38.88213
569.60        39.14283
570.03        39.35422
570.47        39.49052
570.90        39.61823
571.34        39.62302
571.77        39.69377
572.21        40.00676
572.64        40.14312
573.08        40.24114
573.51         40.2449
573.95        40.42172
574.38        40.77845
574.82         40.9905
575.25        40.59116
575.69        40.60063
576.12        40.85744
576.56        40.83391
576.99        40.75657
577.42        40.72722
577.86         41.0154
578.29        41.41685
578.73        41.29726
579.16        41.05507
579.60        40.54087
580.03        40.45286
580.47        40.27077
580.90        41.03863
581.33         40.9076
581.77        41.08044
582.20        40.60051
582.64        40.59851
583.07        40.28086
583.51        40.00716
583.94        39.75595
584.37         39.6599
584.81        39.72523
585.24        39.76821
585.68        39.78258
586.11        39.42572
586.54         39.3982
586.98        39.12738
587.41        38.80067
587.85        38.92619
588.28        38.68062
588.71        38.50106
589.15        38.34986
589.58        38.62673
590.01        38.46424
590.45        38.51546
590.88        38.80896
591.31        38.70631
591.75        38.42921
592.18        38.24198
592.61        38.21673
593.05        38.73724
593.48        39.53436
593.91        38.92566
594.35        38.91541
594.78        38.67394
595.21        38.85166
595.65        39.22511
596.08         39.7876
596.51         39.9741
596.94        39.72579
597.38         39.8131
597.81        40.24692
598.24         40.5566
598.68        40.70799
599.11        41.00003
599.54        41.77475
599.97        41.66977
600.41        42.14408
600.84        42.13555
601.27        42.65933
601.70        43.04267
602.14        43.39048
602.57        43.73793
603.00        44.19139
603.43        44.13346
603.87        45.04866
604.30        45.61312
604.73        45.89138
605.16        45.70681
605.60         46.3662
606.03        46.61578
606.46         46.8145
606.89        47.32952
607.32        47.96212
607.76        48.25605
608.19        48.73915
608.62        49.08429
609.05        49.56266
609.48        49.75538
609.92        50.31029
610.35        50.79754
610.78        50.67202
611.21        50.83883
611.64         51.2164
612.07        51.64659
612.50        51.73692
612.94        51.97485
613.37        52.22148
613.80        52.49409
614.23        52.27919
614.66        52.62365
615.09        53.30264
615.52         53.7723
615.96        53.94212
616.39        54.14405
616.82        54.41862
617.25        54.35542
617.68        54.33194
618.11        54.67546
618.54        55.36706
618.97        55.65583
619.40        55.52471
619.84         55.7375
620.27        55.79458
620.70        55.98956
621.13        56.11018
621.56         55.7871
621.99        55.30262
622.42        55.24174
622.85        55.67024
623.28        55.68743
623.71        55.69326
624.14         55.7909
624.57        56.31148
625.00        55.99367
625.43        56.42374
625.86        56.12809
626.29        55.73373
626.72        55.16264
627.15        55.39084
627.58        55.47496
628.01        55.48594
628.44        55.27881
628.87        54.92079
629.30        54.22737
629.73        53.72351
630.16        54.07118
630.59        53.62074
631.02         53.6277
631.45        53.52567
631.88        53.30596
632.31        52.89235
632.74        52.75611
633.17        52.00535
633.60        51.54733
634.03        51.13423
634.46        50.74305
634.89        50.33954
635.32        49.90435
635.75        49.44388
636.18        48.91855
636.61        48.38636
637.04        47.95676
637.47        47.64359
637.89        47.40718
638.32        47.18154
638.75        46.90826
639.18        46.57156
639.61        46.19604
640.04        45.82735
640.47        45.53294
640.90        45.32906
641.33         45.1958
641.76        45.10023
642.18        44.99623
642.61        44.85601
643.04        44.69915
643.47         44.5569
643.90          44.477
644.33        44.47008
644.76        44.52451
645.18        44.60076
645.61        44.62458
646.04         44.5901
646.47        44.52468
646.90        44.49751
647.33        44.60894
647.75        44.86576
648.18         45.2807
648.61        45.79893
649.04        46.17609
649.47        46.34002
649.89        47.00298
650.32        46.97658
650.75        47.38769
651.18        47.87097
651.61        48.36204
652.03        48.86833
652.46        49.37962
652.89        49.86562
653.32        50.44518
653.74        51.02475
654.17        51.15002
654.60        51.86764
655.03        52.48625
655.46        52.66082
655.88        52.73447
656.31        55.63199
656.74        58.14837
657.16         58.2257
657.59        58.56931
658.02        56.21473
658.45        56.55182
658.87         56.0518
659.30        56.66796
659.73        56.51494
660.15        58.13735
660.58        57.39315
661.01        57.72293
661.44        58.06431
661.86        58.25788
662.29        58.26423
662.72         58.8322
663.14        58.85821
663.57        59.02543
664.00        59.08777
664.42        59.33841
664.85        59.79692
665.27        60.33114
665.70        60.79597
666.13         61.0632
666.55        61.10033
666.98        60.88337
667.41         60.5234
667.83        60.59719
668.26        60.52785
668.69        60.76926
669.11        61.07553
669.54        61.34047
669.96        61.53269
670.39        61.71719
670.82        61.90711
671.24         62.0449
671.67        62.17086
672.09        62.33681
672.52        62.55013
672.94        62.83813
673.37        63.11184
673.80        63.04681
674.22         62.7378
674.65         62.6392
675.07        62.81471
675.50        62.99278
675.92        63.13194
676.35        63.26925
676.77         63.3876
677.20        63.47597
677.62        63.55072
678.05        63.63665
678.47        63.73825
678.90        63.85361
679.32        63.96822
679.75        64.07239
680.17        64.15845
680.60        64.23412
681.02        64.31654
681.45        64.41996
681.87        64.55825
682.30        64.73132
682.72        64.92483
683.15        65.03728
683.57        65.08965
684.00         65.1665
684.42        65.29311
684.85        65.44947
685.27        65.63017
685.70        65.85993
686.12        66.08765
686.54        66.24539
686.97        66.31568
687.39        66.28514
687.82        66.24226
688.24        66.20253
688.66        66.20177
689.09        66.19559
689.51        66.20455
689.94        66.27966
690.36        66.42214
690.78         66.5284
691.21        66.62122
691.63        66.84455
692.06        67.15903
692.48        67.36253
692.90        67.41148
693.33         67.4185
693.75        67.38119
694.17        67.18137
694.60        66.96342
695.02         67.0022
695.44        67.30637
695.87        67.86732
696.29         68.4848
696.71        68.46559
697.14        67.94039
697.56        67.86352
697.98        68.27195
698.41        68.47295
698.83        68.45995
699.25        68.70961
699.68        69.11147
700.10        69.30415
700.52        69.22243
700.94        68.98976
701.37        68.74313
701.79        68.70641
702.21        68.92549
702.64        69.30829
703.06        69.74018
703.48        70.01962
703.90        70.08781
704.33        70.01015
704.75        69.86247
705.17        69.75722
705.59        69.74313
706.01         69.7847
706.44        69.87648
706.86        70.04012
707.28        70.25462
707.70        70.48931
708.12        70.72578
708.55        70.98367
708.97         71.2177
709.39        71.26743
709.81        71.16686
710.23         71.1452
710.66         71.2263
711.08        71.31025
711.50        71.34237
711.92        71.30645
712.34        71.20081
712.76        71.04898
713.19        70.89695
713.61        70.85821
714.03        70.94384
714.45        71.12868
714.87        71.37923
715.29        71.64381
715.71        71.89616
716.13        72.13383
716.56        72.32728
716.98        72.52782
717.40        72.69279
717.82        72.80862
718.24        72.84849
718.66        72.76505
719.08        72.57417
719.50        72.35482
719.92        72.16593
720.34        72.02236
720.76         71.9833
721.19        72.14263
721.61        72.49619
722.03        72.87626
722.45        73.20464
722.87        73.46016
723.29         73.5815
723.71        73.53761
724.13        73.33262
724.55         72.9498
724.97        72.52187
725.39        72.31075
725.81        72.37783
726.23        72.62679
726.65        72.95917
727.07        73.37204
727.49         73.5462
727.91          73.735
728.33        73.88212
728.75        74.03355
729.17        74.19416
729.59        74.32658
730.01        74.42378
730.43        74.48339
730.85        74.50147
731.27        74.48804
731.69        74.43104
732.10        74.30399
732.52        74.11512
732.94        73.90043
733.36        73.73148
733.78        73.59145
734.20        73.49014
734.62        73.67175
735.04        74.17864
735.46         73.8083
735.88        74.53734
736.30        74.73952
736.72        75.00259
737.13        75.23318
737.55        75.35816
737.97        75.59194
738.39        75.81173
738.81        75.40129
739.23        74.58321
739.65        74.55625
740.06        75.20167
740.48          75.438
740.90        75.20087
741.32        75.06253
741.74        75.21754
742.16        75.34435
742.57        75.48394
742.99        75.66709
743.41        75.83014
743.83        75.85458
744.25         75.7259
744.67        75.46745
745.08         75.1968
745.50        75.09974
745.92        75.22974
746.34        75.49567
746.75        75.78033
747.17        76.02166
747.59        75.95768
748.01        75.83179
748.42        75.65255
748.84        75.58387
749.26        75.66851
749.68        75.73503
750.09        75.77055
750.51        76.03459
750.93         76.3714
751.35        76.18774
751.76        75.58631
752.18        75.26832
752.60        75.28309
753.01        75.27666
753.43        75.19306
753.85        75.13974
754.27        75.12152
754.68         75.1366
755.10        75.20741
755.52        75.36552
755.93        75.59048
756.35        75.81209
756.77        76.07417
757.18        76.31209
757.60        76.52296
758.02        76.83305
758.43        77.59116
758.85        76.51447
759.26        76.60954
759.68        75.42436
760.10        75.29411
760.51        76.54075
760.93        76.58311
761.34         77.0293
761.76        76.98073
762.18        77.06508
762.59         77.3622
763.01        77.27816
763.42        77.51243
763.84        77.65611
764.26        77.86114
764.67        77.93333
765.09        77.90147
765.50        77.71606
765.92        77.48234
766.33        77.39226
766.75        77.33926
767.16        77.24573
767.58        76.84473
768.00        76.64379
768.41        76.67994
768.83        77.09331
769.24        77.65278
769.66        77.80308
770.07        77.53628
770.49        77.03455
770.90         76.6027
771.32        77.10786
771.73        78.29771
772.15        78.73241
772.56        78.31583
772.97        77.78684
773.39        77.39792
773.80         77.3462
774.22        77.62128
774.63        77.93966
775.05        78.11926
775.46        78.24153
775.88        78.22205
776.29        77.97034
776.70        77.61524
777.12        77.48379
777.53        77.64658
777.95        77.95521
778.36        78.30128
778.77        78.45724
779.19        78.38963
779.60        78.22379
780.02        77.98765
780.43        77.87845
780.84        77.96135
781.26        77.83939
781.67        77.66151
782.09        78.40887
782.50        79.71497
782.91        79.78542
783.33        78.73471
783.74        78.32495
784.15        78.64202
784.57        78.73409
784.98        78.59595
785.39        78.50191
785.81        78.54844
786.22        79.03536
786.63        79.78101
787.04        80.15524
787.46        80.09982
787.87        79.82516
788.28        79.49138
788.70        79.54041
789.11        79.42814
789.52        79.69791
789.93        80.01952
790.35        79.95246
790.76        79.55283
791.17        79.27934
791.58        79.25751
792.00        79.35348
792.41        79.51244
792.82        79.72399
793.23        79.89434
793.65        79.64449
794.06        79.18334
794.47        79.42579
794.88        80.19181
795.29        80.39875
795.71        79.95509
796.12        79.60033
796.53        79.46738
796.94        79.24434
797.35        79.09666
797.76        79.65058
798.18        80.64008
798.59        81.11706
799.00        80.92789
799.41        80.51645
799.82        80.11153
800.23        79.93135
800.64        80.06224
801.06        80.39044
801.47         80.7844
801.88        80.92057
802.29        80.71277
802.70        80.27065
803.11        79.73949
803.52        79.35123
803.93         79.2073
804.34        79.25325
804.75        79.46308
805.17        79.79915
805.58        80.26105
805.99        80.66309
806.40        81.05235
806.81        81.44468
807.22        82.75902
807.63        82.18253
808.04        80.45309
808.45        79.66917
808.86        80.04521
809.27         80.4738
809.68        80.70419
810.09        80.84003
810.50        80.79128
810.91        80.54829
811.32        80.29257
811.73        80.30746
812.14        80.64848
812.55        81.21819
812.96        81.82337
813.37        82.10249
813.78        81.94579
814.19        81.49674
814.60        80.90969
815.01        80.38039
815.42        79.97104
815.83        79.62086
816.24        79.36642
816.65        79.28387
817.05        79.39507
817.46        79.66837
817.87        80.01106
818.28        80.20955
818.69         80.2171
819.10         80.0597
819.51        79.88385
819.92        79.97395
820.33        80.38744
820.74        80.99615
821.14        81.59547
821.55        81.91697
821.96        81.86155
822.37        81.40157
822.78        80.74765
823.19         80.3834
823.60        80.42937
824.00        80.73139
824.41        81.10387
824.82         81.3961
825.23        81.51875
825.64        81.52638
826.04        81.46442
826.45        81.35131
826.86        81.23205
827.27         81.1075
827.68         80.9798
828.08        80.89417
828.49        80.80685
828.90        80.72521
829.31        80.72636
829.72        80.92878
830.12        81.35979
830.53        81.91556
830.94        82.38688
831.35        82.36582
831.75        81.79771
832.16        80.80222
832.57        79.73212
832.97        79.12192
833.38        79.11218
833.79        79.52126
834.20        80.16132
834.60        80.72503
835.01        81.10072
835.42         81.4249
835.82        81.66518
836.23        81.66995
836.64        81.47147
837.04        81.04791
837.45        80.66582
837.86        80.85049
838.26        81.71175
838.67        83.06091
839.08        84.40968
839.48        84.82114
839.89        84.06416
840.29        82.48582
840.70        80.80327
841.11        79.83916
841.51        79.80579
841.92        80.42487
842.33        81.41505
842.73        82.27187
843.14        82.66502
843.54        82.80518
843.95        82.77232
844.35        82.75758
844.76        82.80023
845.17        82.81036
845.57        82.75556
845.98        82.57766
846.38        82.30151
846.79        81.97153
847.19        81.66265
847.60        81.44368
848.00        81.35529
848.41        81.35457
848.81        81.44432
849.22        81.53016
849.62        81.62846
850.03        81.73441
850.43        81.86607
850.84        81.97764
851.24        82.11051
851.65        82.18399
852.05        82.30721
852.46        82.53397
852.86        82.86161
853.27        83.26083
853.67        83.53284
854.07        83.54472
854.48        83.25215
854.88         82.7412
855.29        82.10394
855.69        81.67418
856.10        81.48494
856.50         81.5556
856.90        81.75111
857.31        81.86105
857.71        81.87726
858.12        81.77121
858.52        81.67538
858.92        81.67777
859.33        81.77871
859.73        81.99126
860.13        82.14428
860.54        81.99277
860.94        81.54872
861.34         80.8785
861.75         80.2168
862.15        79.99284
862.55        80.27827
862.96         80.9102
863.36        81.68275
863.76        82.13376
864.17        82.10545
864.57        81.75692
864.97        81.19802
865.38        80.61647
865.78        80.12464
866.18        79.66516
866.58        79.28926
866.99        79.09426
867.39        79.13338
867.79        79.39568
868.19        79.79472
868.60        80.14587
869.00        80.42293
869.40        80.61451
869.80        80.76213
870.21        80.95738
870.61        81.26429
871.01        81.56992
871.41        81.71346
871.81        81.47366
872.22         80.8335
872.62        79.89057
873.02        78.90302
873.42        78.30873
873.82         78.2363
874.22        78.55045
874.63        79.03885
875.03        79.36594
875.43         79.4041
875.83        79.26412
876.23         79.0043
876.63        78.70969
877.03        78.43806
877.44         78.1383
877.84        77.90623
878.24        77.90614
878.64        78.12223
879.04        78.39053
879.44        78.68504
879.84        79.03307
880.24        79.38406
880.64        79.70317
881.04        79.81905
881.44        79.47926
881.84        78.68283
882.24        77.55265
882.65        76.42915
883.05        75.82852
883.45        75.88785
883.85         76.4855
884.25         77.3736
884.65        78.10165
885.05        78.50084
885.45        78.66328
885.85        78.71359
886.25        78.86349
886.65        79.15728
887.05        79.49184
887.45        79.73966
887.85        79.71696
888.25         79.3895
888.65        78.85659
889.04        78.25345
889.44            77.8
889.84         77.5517
890.24        77.46159
890.64         77.4791
891.04        77.51792
891.44        77.53851
891.84        77.56245
892.24        77.59655
892.64        77.63903
893.04        77.70366
893.44        77.81249
893.83        77.95731
894.23        78.07307
894.63         78.1721
895.03        78.22626
895.43        78.36349
895.83        78.79977
896.23        79.52474
896.63        80.43311
897.02        81.18324
897.42        81.26292
897.82        80.59314
898.22        79.39681
898.62        78.04649
899.01        77.08685
899.41        76.69685
899.81        76.71442
900.21        77.00426
900.61        77.33427
901.00        77.59733
901.40        77.84817
901.80        78.06149
902.20        78.18055
902.59        78.21219
902.99        78.14675
903.39        78.00331
903.79        77.83588
904.18        77.66445
904.58        77.48469
904.98         77.3993
905.38        77.56812
905.77         77.9987
906.17        78.66057
906.57        79.29748
906.96        79.48067
907.36        79.10823
907.76        78.32915
908.15        77.51797
908.55        77.25025
908.95        77.66304
909.34         78.5788
909.74        79.61072
910.14        80.21609
910.53        80.19958
910.93        79.76257
911.33        79.06576
911.72        78.33855
912.12        77.76433
912.52        77.28265
912.91        76.93805
913.31        76.83534
913.70        76.97506
914.10        77.30394
914.49        77.82223
914.89        78.40168
915.29        78.98969
915.68        79.59252
916.08        79.99578
916.47        79.95461
916.87        79.46553
917.26        78.59448
917.66        77.71639
918.05        77.23595
918.45        77.25733
918.84        77.72852
919.24        78.35603
919.64        78.75807
920.03        78.82189
920.42        78.60648
920.82        78.38435
921.21        78.52876
921.61         79.0866
922.00        79.96894
922.40         80.8075
922.79        81.13931
923.19         80.8131
923.58        80.03574
923.98        79.16321
924.37        78.62595
924.77        78.55975
925.16        78.79405
925.55        79.19314
925.95        79.49672
926.34         79.6172
926.74        79.60704
927.13        79.45379
927.52           79.06
927.92        78.50315
928.31        77.81816
928.70        77.16705
929.10        76.77108
929.49        76.66932
929.89        76.73466
930.28        77.05153
930.67        77.61511
931.07        78.33803
931.46        79.29929
931.85        80.08565
932.24        80.09012
932.64        79.28188
933.03        77.80894
933.42        76.38499
933.82        76.06286
934.21        77.04011
934.60        79.06897
934.99        81.38368
935.39        82.58438
935.78         82.3057
936.17         80.8371
936.56        78.96642
936.96        77.94485
937.35        78.09553
937.74        79.04741
938.13        80.11451
938.53        80.23758
938.92        79.20215
939.31        77.45232
939.70        75.66105
940.09        74.75961
940.49        74.92535
940.88        75.88579
941.27         77.2095
941.66        78.11739
942.05        78.34351
942.44        78.15924
942.84        77.82829
943.23        77.75013
943.62        78.05415
944.01        78.52462
944.40        79.12608
944.79        79.85567
945.18         80.6227
945.57        81.41093
945.97        81.90799
946.36        81.69602
946.75        80.69016
947.14        79.13918
947.53        77.43883
947.92        76.13643
948.31        75.40066
948.70        75.11112
949.09        75.23948
949.48         75.7088
949.87        76.42607
950.26         77.3808
950.65        78.38171
951.04        79.10919
951.43        79.45068
951.82        79.43031
952.21        79.14294
952.60        78.79473
952.99        78.50025
953.38        78.26672
953.77        78.12478
954.16        78.11478
954.55        78.22955
954.94        78.42212
955.33         78.7494
955.72        79.27808
956.11        79.96606
956.50        80.79357
956.89        81.36752
957.28        81.06192
957.66        79.80092
958.05        77.86356
958.44        75.94539
958.83        75.03864
959.22          75.321
959.61        76.53664
960.00        78.07863
960.39        78.79574
960.78        78.34506
961.16        77.09719
961.55        75.69545
961.94        74.97045
962.33        75.14352
962.72        75.97481
963.11        77.13677
963.49        78.04884
963.88        78.34668
964.27        78.17635
964.66        77.86546
965.04        77.92844
965.43        78.41664
965.82        79.24715
966.21        79.87548
966.60        79.33945
966.98        77.49491
967.37        74.86354
967.76        72.45071
968.15        71.48259
968.53        72.15434
968.92        74.16859
969.31        76.72617
969.69        78.18819
970.08        77.89108
970.47        76.32825
970.86        74.53092
971.24        73.98763
971.63        75.00764
972.02        77.15348
972.40        79.59226
972.79        80.38425
973.17         79.0628
973.56        76.41708
973.95        73.54331
974.33        71.79437
974.72        71.47582
975.11        72.14304
975.49        73.45497
975.88        74.65495
976.26        75.43936
976.65        75.96046
977.04        76.23553
977.42        76.25222
977.81        76.01089
978.19         75.4249
978.58        74.73847
978.96        74.37884
979.35        74.41144
979.74        74.80048
980.12        75.34552
980.51        75.39827
980.89        74.96658
981.28        74.26771
981.66        73.64865
982.05        73.57825
982.43        74.17312
982.82        75.22813
983.20        76.73204
983.59        78.49329
983.97        80.41126
984.35        82.42426
984.74        84.01747
985.12        84.62814
985.51        84.08761
985.89        82.60312
986.28        80.86449
986.66        79.84194
987.04        79.85791
987.43        80.65266
987.81        81.84994
988.20        82.50089
988.58        82.30518
988.96        81.42242
989.35        80.27302
989.73        79.41595
990.12        78.97207
990.50        78.84803
990.88        78.59294
991.27        77.49279
991.65        75.55739
992.03        73.18396
992.42        71.26379
992.80        70.94225
993.18        72.42504
993.56        75.35705
993.95        78.86317
994.33        81.39246
994.71        82.14548
995.10        81.62858
995.48        80.39574
995.86        79.43655
996.24        79.05083
996.63        78.70825
997.01        78.62667
997.39        78.87897
997.77        79.37688
998.15        80.27341
998.54        80.92002
998.92        80.12071
999.30        77.90135
999.68        74.70493
1000.06        71.71612
1000.45         70.5933
1000.83        71.77892
1001.21        74.93319
1001.59        79.11613
1001.97        81.97047
1002.35        82.49328
1002.73        81.35802
1003.12        79.75593
1003.50        79.18626
1003.88        80.13203
1004.26        81.95844
1004.64         84.2759
1005.02        86.24287
1005.40        87.34844
1005.78        88.03802
1006.16        87.89824
1006.54        86.22919
1006.92        83.26589
1007.30        79.37595
1007.69        76.01977
1008.07        75.12735
1008.45        77.23362
1008.83        81.95181
1009.21        88.00916
1009.59        92.07288
1009.97        92.41441
1010.35        89.84148
1010.73        85.57928
1011.11        81.50912
1011.49         78.4026
1011.86        75.87812
1012.24        74.04424
1012.62        72.91426
1013.00        72.40282
1013.38         72.6067
1013.76        73.53359
1014.14        74.91209
1014.52        76.44112
1014.90        77.93369
1015.28        79.06073
1015.66        79.59034
1016.04        79.51753
1016.41        78.85028
1016.79        77.78783
1017.17        76.87521
1017.55        76.32551
1017.93        76.08576
1018.31        75.98436
1018.69        75.67941
1019.06        75.11993
1019.44        74.39966
1019.82        73.69061
1020.20        73.39041
1020.58         73.5769
1020.95        73.85323
1021.33         74.2196
1021.71        74.55877
1022.09        74.86829
1022.46        75.48459
1022.84        75.71414
1023.22        74.31845
1023.60        71.21082
1023.97        66.77564
1024.35         63.2801
1024.73        63.17255
