SpectraSmart Spectrum 2.9.0.0
--------- Device Information -----------
Spectrum Name :  反射率_0
Saving Time :  2024/04/26 23:37:56
Spectro-Module Model Name : SE2030-DUVN
Spectro-Module Serial Number : OS361AC55029948
Wavelength Start : 200
Wavelength End : 1025
Wavelength Unit : Wavelength(nm)
Spectrum Unit : Reflectance(%)
-----------Spectrum Setting ------------
Integration Time : 20ms
Average : 10
Boxcar : 0
Background removal :  enabled
linearity correction :  enabled
SC :  disabled
Intensity correction :  disabled
DWT denoise :  enabled
savitzky-golay :  disabled
FFT :  disabled
Running average :  disabled
Kalman :  disabled
High pass :  disabled
---------------BEGIN--------------------
Wavelength(nm)             Reflectance(%)
200.29               0
200.75        29.63029
201.21        30.70864
201.67        31.77447
202.13         32.0118
202.58        31.26359
203.04        29.86339
203.50        28.37214
203.96        28.42428
204.42        31.03555
204.88         35.9066
205.34         41.2991
205.80        44.05062
206.26        43.40553
206.72        40.54306
207.18        37.52778
207.64        36.14534
208.10        36.62272
208.55        39.07987
209.01         42.9911
209.47        45.52795
209.93        44.97497
210.39        43.13441
210.85        42.22029
211.31        43.98189
211.77        49.59625
212.23        62.88914
212.69        96.43143
213.14        153.9382
213.60        152.7503
214.06        113.2727
214.52        86.31676
214.98         74.2842
215.44        69.22166
215.90        66.23968
216.36        64.57865
216.81        63.77593
217.27        63.95885
217.73        66.68688
218.19        71.25156
218.65        72.38396
219.11        68.98766
219.57        64.08032
220.02        62.06001
220.48        66.62051
220.94        78.17697
221.40        98.67928
221.86        127.6924
222.32        146.6557
222.77        139.3336
223.23        118.2971
223.69        97.51738
224.15        84.85584
224.61        79.00854
225.06        76.21392
225.52        75.69708
225.98        76.43295
226.44        78.00587
226.90        80.85799
227.36        83.99838
227.81        85.45456
228.27        85.06567
228.73        83.18724
229.19        81.55219
229.65         82.3616
230.10        85.57838
230.56        90.44128
231.02        94.90154
231.48        95.74453
231.93        92.56622
232.39        87.28973
232.85        81.94714
233.31        79.12075
233.77        79.10663
234.22        80.96624
234.68        83.61684
235.14        85.46489
235.60        85.94411
236.05        85.59515
236.51        84.53957
236.97        83.26522
237.43        82.06827
237.88        80.78013
238.34        79.45372
238.80        78.53827
239.26         78.1237
239.71        78.63819
240.17        79.56618
240.63        80.24998
241.08        80.46577
241.54        79.88175
242.00         79.5179
242.46        81.30865
242.91        86.93971
243.37        96.97652
243.83        112.3395
244.28        127.7126
244.74        132.4038
245.20        124.2621
245.66        110.0265
246.11        96.34143
246.57        84.40888
247.03        72.65299
247.48        60.91902
247.94        51.27095
248.40        45.79707
248.85        43.68241
249.31         43.6176
249.77        44.22374
250.22        45.05383
250.68        46.25463
251.14        48.27818
251.59        51.51675
252.05        55.48119
252.51        59.57168
252.96        61.54381
253.42        60.13345
253.88        56.35583
254.33        51.29493
254.79        48.35586
255.25        50.28455
255.70        56.63984
256.16        66.14674
256.62        75.04565
257.07        77.42171
257.53        74.31854
257.99        69.14623
258.44        64.79042
258.90         63.9517
259.35        65.55157
259.81        68.59505
260.27        71.44372
260.72        72.13194
261.18        70.92395
261.63        68.53552
262.09        66.39265
262.55        65.39448
263.00         65.3996
263.46        66.07988
263.91         66.5994
264.37        66.29573
264.83        65.09939
265.28        63.37125
265.74         61.8108
266.19        60.90374
266.65        60.79649
267.11        61.13992
267.56        61.63495
268.02        61.83303
268.47        61.57428
268.93        61.04933
269.38        60.28144
269.84        59.37917
270.30        58.39242
270.75        57.27619
271.21        56.21576
271.66         55.4257
272.12        54.94228
272.57        54.67234
273.03        54.42121
273.48        53.83646
273.94        52.91323
274.39         51.7348
274.85        50.54693
275.31        49.50712
275.76        48.63868
276.22        47.94053
276.67        47.32283
277.13        46.79862
277.58        46.27345
278.04        45.77391
278.49        45.22406
278.95        44.66251
279.40        44.01841
279.86          43.379
280.31        42.62672
280.77        41.74465
281.22        40.71132
281.68        39.65577
282.13        38.67674
282.59        38.02403
283.04        37.66785
283.50        37.54324
283.95        37.49594
284.41        37.31032
284.86        36.91853
285.32        36.42296
285.77        35.86678
286.22        35.38464
286.68        35.00779
287.13        34.65253
287.59        34.32434
288.04        33.98303
288.50        33.64622
288.95         33.2985
289.41        32.95098
289.86        32.53159
290.32        32.07905
290.77        31.59982
291.22        31.15316
291.68        30.80931
292.13        30.57138
292.59        30.43186
293.04        30.37733
293.50         30.4135
293.95         30.5134
294.40        30.66865
294.86        30.83976
295.31        30.95389
295.77        31.00781
296.22        31.02177
296.68        31.03089
297.13         31.0742
297.58        31.17992
298.04        31.34034
298.49        31.58067
298.95        31.95547
299.40        32.44929
299.85        33.03777
300.31        33.63907
300.76        34.11632
301.21        34.44056
301.67        34.65747
302.12        34.81085
302.58        35.03315
303.03        35.32928
303.48        35.68385
303.94        36.06121
304.39        36.37318
304.84        36.61577
305.30        36.82523
305.75         37.0226
306.20        37.29242
306.66        37.65135
307.11         38.0507
307.57        38.43472
308.02        38.67105
308.47        38.75282
308.93        38.73106
309.38        38.67936
309.83        38.76122
310.29        39.00891
310.74        39.36806
311.19        39.74144
311.65        39.96192
312.10        39.98323
312.55        39.85907
313.00        39.69125
313.46        39.63415
313.91         39.7071
314.36         39.8634
314.82        40.01853
315.27        40.04934
315.72        39.91905
316.18        39.68744
316.63        39.40121
317.08         39.1469
317.53        38.95295
317.99        38.78732
318.44         38.6498
318.89        38.52805
319.35        38.41322
319.80        38.31353
320.25        38.20734
320.70        38.05762
321.16        37.85331
321.61        37.60904
322.06        37.34568
322.51        37.10781
322.97        36.90047
323.42        36.71284
323.87        36.53003
324.32        36.33266
324.78        36.10136
325.23        35.87175
325.68        35.61071
326.13         35.2774
326.59        34.88054
327.04        34.44933
327.49        34.06341
327.94        33.85108
328.39        33.82777
328.85        33.93938
329.30        34.10897
329.75        34.12616
330.20         33.9302
330.66        33.57049
331.11        33.15641
331.56        32.84266
332.01        32.67626
332.46        32.60328
332.92        32.56054
333.37        32.49298
333.82        32.35685
334.27        32.19191
334.72        32.00496
335.17        31.79742
335.63        31.57812
336.08        31.35899
336.53        31.17418
336.98        31.09752
337.43        31.13658
337.88        31.25881
338.34        31.40439
338.79        31.50068
339.24        31.50474
339.69        31.44499
340.14        31.31265
340.59        31.10199
341.05        30.84085
341.50        30.52957
341.95        30.25719
342.40        30.15887
342.85        30.25336
343.30        30.50124
343.75        30.78472
344.20        30.90599
344.66        30.81866
345.11        30.57815
345.56        30.28519
346.01        30.10541
346.46        30.08508
346.91        30.17031
347.36        30.29678
347.81        30.36906
348.26        30.35569
348.72         30.2878
349.17        30.19351
349.62        30.12576
350.07         30.0999
350.52         30.1039
350.97        30.09407
351.42        30.00643
351.87        29.83567
352.32        29.60603
352.77        29.39895
353.22        29.33083
353.67        29.41499
354.13        29.61216
354.58        29.81542
355.03          29.848
355.48        29.67025
355.93        29.34342
356.38        28.98006
356.83        28.74922
357.28        28.68848
357.73        28.73929
358.18        28.82761
358.63        28.83404
359.08        28.72137
359.53        28.53213
359.98        28.29996
360.43        28.06929
360.88        27.85596
361.33        27.64259
361.78        27.42925
362.23        27.22279
362.68        27.02724
363.13        26.85037
363.58        26.68794
364.03        26.52629
364.48        26.36049
364.93        26.19008
365.38         26.0245
365.83        25.88136
366.28        25.76429
366.73        25.66868
367.18        25.57382
367.63         25.4481
368.08        25.28517
368.53        25.09277
368.98        24.90034
369.43         24.7539
369.88        24.66331
370.33        24.61768
370.78        24.57889
371.23        24.48429
371.68        24.32062
372.13        24.10582
372.58        23.89008
373.03        23.75364
373.48        23.70938
373.93        23.72579
374.38        23.74594
374.83        23.67949
375.28        23.50795
375.72        23.26447
376.17        23.00457
376.62        22.78102
377.07        22.61513
377.52        22.48813
377.97        22.40566
378.42        22.37993
378.87        22.39974
379.32        22.45124
379.77        22.49799
380.22        22.48403
380.67        22.39493
381.11        22.25149
381.56        22.05259
382.01        21.83278
382.46        21.62119
382.91        21.42341
383.36        21.26616
383.81        21.18056
384.26        21.16223
384.71        21.19698
385.15        21.25198
385.60        21.27169
386.05        21.23548
386.50        21.15584
386.95         21.0389
387.40        20.89967
387.85        20.75224
388.29        20.58643
388.74        20.44536
389.19        20.33848
389.64        20.26562
390.09         20.2189
390.54        20.18655
390.98        20.14199
391.43        20.09043
391.88        20.03755
392.33        19.98097
392.78        19.91772
393.23        19.84943
393.67        19.76447
394.12        19.69745
394.57        19.66239
395.02        19.65693
395.47        19.66566
395.91         19.6679
396.36        19.61689
396.81        19.51866
397.26        19.40158
397.71         19.2764
398.15        19.16891
398.60        19.11244
399.05        19.01702
399.50        18.92887
399.95        19.05683
400.39        19.33943
400.84        19.41685
401.29        19.26602
401.74        19.15622
402.18        19.09504
402.63        18.90206
403.08        18.63772
403.53        18.48336
403.97        18.46349
404.42        18.53102
404.87        18.62653
405.32        18.64959
405.76        18.57228
406.21        18.43822
406.66        18.29439
407.11        18.21393
407.55        18.22074
408.00        18.28084
408.45        18.36198
408.90        18.40065
409.34        18.37504
409.79        18.30881
410.24        18.23184
410.68         18.1799
411.13        18.16611
411.58        18.17479
412.03        18.18377
412.47        18.15963
412.92         18.0906
413.37         18.0006
413.81         17.9104
414.26        17.86224
414.71        17.85815
415.15        17.89005
415.60        17.93957
416.05        17.99099
416.49        18.03445
416.94        18.06838
417.39        18.08836
417.83        18.08742
418.28        18.06337
418.73        18.01338
419.17        17.94781
419.62        17.88586
420.07        17.83574
420.51         17.7947
420.96        17.75685
421.41        17.70675
421.85        17.63759
422.30        17.54989
422.74        17.45707
423.19        17.45708
423.64        17.52563
424.08         17.5452
424.53        17.49971
424.98        17.49988
425.42        17.55524
425.87         17.5535
426.31        17.50691
426.76        17.56347
427.21        17.67631
427.65        17.59411
428.10        17.37686
428.54        17.30092
428.99        17.38774
429.44        17.54819
429.88        17.70436
430.33        17.66545
430.77        17.47476
431.22        17.47836
431.66        17.65588
432.11        17.67058
432.56        17.52098
433.00        17.45128
433.45         17.4214
433.89        17.24912
434.34        17.07499
434.78         16.7931
435.23        17.30281
435.67        17.42465
436.12        17.37996
436.57        17.23543
437.01        17.05963
437.46        16.97706
437.90        17.00526
438.35        17.05769
438.79         17.0897
439.24        17.09534
439.68        17.06388
440.13        16.99985
440.57         16.9295
441.02        16.91384
441.46        16.96152
441.91        17.00502
442.35        17.01829
442.80        17.13868
443.24        17.28586
443.69        17.17909
444.13        16.88612
444.58        16.78139
445.02        16.88841
445.47        17.01737
445.91        17.11303
446.36        17.17389
446.80        17.17812
447.24        17.13171
447.69         17.0664
448.13        17.02349
448.58        17.01929
449.02        17.03766
449.47        17.06423
449.91        17.06843
450.36        17.04775
450.80           17.01
451.25        16.97363
451.69        16.95363
452.13        16.95626
452.58        16.97279
453.02        16.98989
453.47        16.99006
453.91        16.96906
454.36        16.93592
454.80        16.89616
455.24        16.85714
455.69        16.82708
456.13        16.79072
456.58         16.7662
457.02        16.75469
457.46        16.76187
457.91         16.7852
458.35        16.79411
458.79        16.74495
459.24        16.64847
459.68        16.51229
460.13        16.39195
460.57        16.32824
461.01        16.34326
461.46        16.40751
461.90        16.50579
462.34        16.59721
462.79        16.65947
463.23        16.70889
463.68        16.72651
464.12        16.69391
464.56        16.61143
465.01        16.50619
465.45        16.39147
465.89        16.33202
466.34        16.33508
466.78        16.38062
467.22        16.44702
467.67        16.47861
468.11        16.46862
468.55        16.42648
468.99         16.3716
469.44        16.33258
469.88        16.32068
470.32        16.32673
470.77        16.34459
471.21        16.36826
471.65          16.392
472.10        16.41947
472.54        16.44816
472.98        16.47965
473.42        16.51186
473.87        16.54659
474.31        16.56701
474.75        16.56481
475.20        16.54493
475.64        16.50767
476.08        16.47179
476.52        16.45672
476.97        16.46771
477.41        16.50636
477.85        16.56881
478.29        16.62294
478.74        16.67485
479.18        16.76934
479.62        16.88333
480.06        16.95255
480.50         16.9737
480.95        16.95555
481.39        16.90671
481.83        17.00267
482.27        17.00354
482.72        17.11133
483.16        17.24104
483.60        17.33521
484.04         17.3697
484.48        17.45424
484.93        17.66211
485.37        17.57566
485.81        17.73391
486.25        18.05509
486.69        18.02276
487.14        17.83261
487.58         18.3839
488.02        18.37432
488.46        18.08671
488.90        17.93078
489.34        18.17326
489.79        18.37916
490.23        18.52645
490.67        18.64577
491.11        18.73113
491.55        18.79213
491.99        18.85018
492.43        18.92749
492.88        19.03285
493.32        19.16197
493.76        19.30463
494.20        19.45487
494.64        19.61377
495.08        19.75049
495.52        19.85814
495.96        20.04296
496.41        20.26677
496.85        20.25286
497.29        20.06432
497.73        20.24674
498.17        20.51041
498.61        20.72649
499.05        20.77751
499.49        20.85616
499.93        20.92089
500.37        21.08315
500.82        21.30038
501.26        21.44625
501.70        21.50701
502.14        21.56316
502.58        21.64295
503.02        21.74761
503.46        21.88264
503.90        22.04958
504.34        22.20865
504.78        22.29321
505.22        22.29071
505.66        22.22076
506.10        22.13909
506.54        22.13451
506.98        22.22742
507.42        22.39247
507.86        22.57587
508.30        22.68897
508.74         22.7083
509.18        22.66064
509.62        22.59413
510.06        22.58572
510.50        22.65543
510.94        22.77859
511.38         22.9142
511.82        22.99772
512.26        23.01333
512.70        22.98377
513.14        22.94538
513.58        22.95497
514.02        23.02609
514.46        23.13663
514.90        23.25518
515.34        23.33391
515.78        23.35785
516.22        23.34132
516.66         23.3021
517.10        23.26802
517.54        23.24898
517.98        23.23766
518.42        23.22549
518.86         23.1996
519.30        23.15853
519.74        23.11002
520.18        23.06631
520.62        23.04367
521.06        23.04505
521.50        23.06412
521.93        23.08879
522.37        23.09206
522.81         23.0696
523.25        23.02579
523.69        22.97189
524.13        22.92604
524.57        22.89156
525.01          22.862
525.45        22.82623
525.89         22.7667
526.32        22.67995
526.76        22.58202
527.20        22.48474
527.64        22.40716
528.08        22.35472
528.52        22.31981
528.96        22.30042
529.40         22.2935
529.83        22.29317
530.27        22.29957
530.71        22.29696
531.15        22.26346
531.59         22.1957
532.03        22.09873
532.46        21.98826
532.90        21.90554
533.34        21.85668
533.78        21.82212
534.22        21.78745
534.66        21.75558
535.09        21.70696
535.53        21.60068
535.97        21.46527
536.41        21.40062
536.85        21.41811
537.28        21.46873
537.72        21.53658
538.16        21.61172
538.60        21.68321
539.04        21.75394
539.47        21.81473
539.91        21.86636
540.35        21.90624
540.79        21.93479
541.22        21.96548
541.66         22.0287
542.10        22.12664
542.54        22.25236
542.97        22.38397
543.41        22.49522
543.85        22.57821
544.29        22.64626
544.72         22.7126
545.16        22.81348
545.60        22.95225
546.04        23.11956
546.47         23.3094
546.91         23.5069
547.35        23.70034
547.79        23.89272
548.22        24.07147
548.66        24.21308
549.10        24.34478
549.53        24.46086
549.97        24.57767
550.41        24.66686
550.84        24.76006
551.28        24.92052
551.72        25.11559
552.15        25.31149
552.59         25.5303
553.03        25.40807
553.46        25.71929
553.90        25.81503
554.34        25.92264
554.77        26.03485
555.21        26.16362
555.65        26.30615
556.08        26.44863
556.52        26.57791
556.96        26.67596
557.39        26.78785
557.83        26.89169
558.27         26.8398
558.70        26.68464
559.14        26.67096
559.57        26.79902
560.01        26.92202
560.45        27.01295
560.88        27.11452
561.32        27.23029
561.75        27.31912
562.19         27.3923
562.63        27.46208
563.06        27.52709
563.50        27.58849
563.93        27.62547
564.37        27.67825
564.80        27.76048
565.24        27.79839
565.68        27.74452
566.11        28.12921
566.55         27.9441
566.98        28.01965
567.42        28.09996
567.85         28.2396
568.29        28.44161
568.72         28.6739
569.16        28.93681
569.60        29.12778
570.03        29.35159
570.47        29.51306
570.90        29.63632
571.34        29.79344
571.77        30.00099
572.21        30.18298
572.64         30.2852
573.08        30.59236
573.51        30.56248
573.95         30.6208
574.38        30.71823
574.82        30.78049
575.25        30.80659
575.69        30.89099
576.12        30.90209
576.56        30.85545
576.99        30.84816
577.42        31.26584
577.86        31.14272
578.29        31.58119
578.73        31.45056
579.16        31.28981
579.60        30.86006
580.03        30.80669
580.47        30.77788
580.90         30.8922
581.33        31.11563
581.77        31.00907
582.20        30.58023
582.64        30.68124
583.07         30.4291
583.51        30.26412
583.94        30.04087
584.37        29.93084
584.81        29.92708
585.24        29.89864
585.68        29.88425
586.11        29.47103
586.54        29.42893
586.98        29.30477
587.41        29.31913
587.85        29.22819
588.28        29.06769
588.71        28.98424
589.15        28.93538
589.58        29.04382
590.01        28.90677
590.45        29.03753
590.88        29.22953
591.31        29.15821
591.75        28.93557
592.18        28.70447
592.61         28.4975
593.05        29.26277
593.48        29.69418
593.91        29.20199
594.35        29.36208
594.78        29.08601
595.21        29.02742
595.65        29.35016
596.08        30.01409
596.51        30.22136
596.94        29.88497
597.38        29.93647
597.81        30.38876
598.24        30.69081
598.68        30.86955
599.11        30.99701
599.54        31.76262
599.97          31.375
600.41        31.93733
600.84        31.98932
601.27        32.58138
601.70        32.81252
602.14        33.43629
602.57        33.80203
603.00        34.16096
603.43        34.11071
603.87        34.77835
604.30        35.14743
604.73        35.60494
605.16        35.55983
605.60         36.0404
606.03        36.30922
606.46        36.63038
606.89        37.01373
607.32        37.79639
607.76        37.92529
608.19        38.46012
608.62        38.69619
609.05        38.99776
609.48        39.25428
609.92        39.98242
610.35         40.1558
610.78        39.86409
611.21        40.39913
611.64        40.57744
612.07        41.08353
612.50        41.30478
612.94        41.60833
613.37        41.90624
613.80        41.98649
614.23         41.9405
614.66        42.06461
615.09         42.6568
615.52        42.89667
615.96        42.82489
616.39        43.25597
616.82        43.57136
617.25        43.51775
617.68        43.86415
618.11        44.10169
618.54        44.45994
618.97        44.60635
619.40        44.57927
619.84        44.71755
620.27        44.77448
620.70        45.03851
621.13        45.34274
621.56        45.17332
621.99        44.62542
622.42        44.67786
622.85        45.34693
623.28        45.18821
623.71        45.09846
624.14        45.51722
624.57        45.46394
625.00        45.50068
625.43        45.38072
625.86        45.24014
626.29        45.20736
626.72        44.63895
627.15        44.86861
627.58        44.84255
628.01        44.86319
628.44        44.68017
628.87        44.32675
629.30        43.98991
629.73          43.827
630.16        43.59874
630.59        43.34895
631.02        43.17336
631.45        43.03783
631.88        42.82156
632.31        42.50055
632.74        42.11408
633.17        41.68414
633.60        41.22151
634.03        40.74041
634.46        40.28276
634.89        39.87204
635.32        39.31321
635.75         39.0006
636.18        38.57891
636.61        38.17853
637.04        37.83271
637.47        37.53928
637.89          37.274
638.32          36.988
638.75        36.65318
639.18        36.26652
639.61        35.84617
640.04        35.43645
640.47        35.10273
640.90         34.8604
641.33        34.69269
641.76         34.5719
642.18        34.45537
642.61        34.31863
643.04        34.17873
643.47        34.05175
643.90        33.96251
644.33        33.91726
644.76        33.90838
645.18        33.92138
645.61        33.92539
646.04        33.92248
646.47        33.93002
646.90        33.97772
647.33        34.10333
647.75        34.30037
648.18        34.58836
648.61         34.9614
649.04        35.26961
649.47        35.47256
649.89        36.16141
650.32        36.35617
650.75        36.72644
651.18        37.01914
651.61         37.3546
652.03        37.76809
652.46        38.33909
652.89        39.01255
653.32        39.42568
653.74        39.65066
654.17         40.0423
654.60        40.61865
655.03        41.04005
655.46        40.71179
655.88        41.59634
656.31        43.67439
656.74        45.99583
657.16        46.02843
657.59        45.87276
658.02        44.32525
658.45        44.83518
658.87         44.6862
659.30        45.10603
659.73        45.38448
660.15        46.19902
660.58        45.81015
661.01        46.01191
661.44        46.34313
661.86        46.47982
662.29        46.40759
662.72        46.88132
663.14        46.99389
663.57        47.18356
664.00        47.25259
664.42        47.46124
664.85        47.81163
665.27        48.43061
665.70         48.7233
666.13         48.9963
666.55        49.08191
666.98        48.97052
667.41        48.73977
667.83        48.84277
668.26        48.82052
668.69        49.04142
669.11        49.32322
669.54        49.61068
669.96        49.87618
670.39        50.13783
670.82        50.39224
671.24         50.5864
671.67         50.7243
672.09        50.84714
672.52        50.96143
672.94          51.026
673.37        51.05497
673.80        51.03214
674.22        51.01241
674.65        51.13251
675.07        51.37302
675.50        51.51007
675.92          51.521
676.35        51.54045
676.77        51.57059
677.20        51.51221
677.62        51.42819
678.05        51.47567
678.47        51.67164
678.90        51.96601
679.32        52.27975
679.75        52.49873
680.17        52.58806
680.60         52.5867
681.02        52.54472
681.45        52.54605
681.87        52.62907
682.30        52.73556
682.72        52.85575
683.15        53.01006
683.57        53.16486
684.00        53.16759
684.42        53.08472
684.85        53.16196
685.27        53.40766
685.70        53.70217
686.12        53.95261
686.54        54.07298
686.97         54.0375
687.39        53.88788
687.82        53.69772
688.24        53.60195
688.66        53.63866
689.09        53.76927
689.51        53.97125
689.94        54.17147
690.36        54.33797
690.78        54.50871
691.21        54.69444
691.63        54.79452
692.06        54.78751
692.48        55.11893
692.90           55.01
693.33        55.04326
693.75        54.99282
694.17        54.88469
694.60        54.78976
695.02        54.79266
695.44        54.91821
695.87        55.24624
696.29        55.65155
696.71        55.63114
697.14        55.25725
697.56        55.13197
697.98        55.30364
698.41        55.39267
698.83        55.39828
699.25        55.59465
699.68        55.89439
700.10        56.06544
700.52        56.05431
700.94        55.93738
701.37        55.80501
701.79         55.8101
702.21        55.98172
702.64        56.25614
703.06        56.55563
703.48         56.7407
703.90        56.77533
704.33        56.71087
704.75        56.60657
705.17        56.54811
705.59          56.571
706.01        56.64565
706.44        56.76994
706.86        56.95912
707.28        57.18833
707.70        57.44134
708.12        57.68346
708.55        57.86383
708.97        57.96148
709.39        57.94872
709.81        57.85152
710.23        57.77069
710.66        57.72934
711.08         57.7021
711.50        57.67302
711.92        57.64352
712.34        57.61457
712.76        57.60061
713.19         57.5951
713.61        57.61476
714.03        57.65226
714.45        57.71016
714.87        57.80553
715.29        57.96954
715.71        58.19629
716.13        58.45371
716.56        58.69456
716.98        58.91976
717.40        59.07795
717.82        59.17767
718.24        59.18011
718.66        59.02617
719.08        58.73787
719.50        58.36541
719.92        58.02412
720.34        57.88638
720.76        57.98782
721.19        58.25621
721.61        58.64423
722.03        59.02002
722.45        59.31805
722.87         59.5595
723.29        59.69382
723.71        59.64893
724.13        59.43194
724.55         59.0682
724.97        58.67759
725.39        58.46751
725.81         58.4942
726.23        58.69085
726.65        58.96177
727.07        59.28518
727.49        59.40042
727.91        59.48008
728.33        59.51115
728.75        59.67286
729.17        59.93859
729.59        60.06667
730.01        60.04932
730.43        60.05771
730.85        60.09618
731.27         60.0701
731.69        59.98497
732.10        59.89539
732.52         59.8079
732.94        59.72176
733.36        59.68188
733.78        59.62386
734.20         59.5338
734.62        59.70001
735.04        60.14175
735.46        59.62149
735.88        59.96278
736.30        60.07899
736.72        60.45891
737.13        60.68274
737.55        60.67782
737.97        60.76037
738.39         60.8804
738.81        60.68517
739.23        60.28543
739.65        60.26857
740.06        60.59318
740.48        60.78973
740.90        60.81871
741.32        60.96877
741.74        61.22316
742.16        61.39539
742.57        61.46301
742.99        61.45903
743.41        61.39754
743.83        61.28706
744.25        61.14591
744.67        60.97063
745.08        60.82446
745.50        60.78799
745.92        60.88205
746.34         61.0751
746.75        61.29806
747.17        61.42353
747.59        61.42765
748.01        61.34846
748.42         61.2242
748.84        61.15061
749.26        61.15976
749.68        61.12534
750.09        61.06091
750.51        61.22594
750.93        61.49897
751.35        61.36304
751.76        60.88961
752.18        60.65336
752.60        60.68664
753.01         60.6898
753.43        60.63837
753.85        60.63078
754.27        60.66573
754.68         60.8025
755.10        61.03139
755.52        61.05883
755.93        61.19625
756.35        61.38236
756.77        61.71992
757.18        61.94184
757.60        62.02461
758.02        62.33826
758.43        62.74877
758.85         62.2303
759.26        61.86761
759.68        61.42489
760.10         61.2812
760.51        61.71748
760.93        62.55071
761.34        61.96749
761.76        61.81816
762.18         61.5737
762.59        61.86977
763.01        62.20384
763.42        62.49867
763.84        62.62003
764.26        62.51958
764.67        62.22472
765.09        61.90774
765.50         61.7606
765.92        61.81659
766.33        61.89821
766.75        61.87362
767.16         61.7645
767.58        61.59061
768.00        61.38644
768.41        61.31297
768.83        61.82132
769.24        62.64143
769.66        62.83871
770.07        62.41695
770.49        61.91333
770.90        61.59261
771.32        61.95468
771.73        62.82044
772.15        63.13279
772.56        62.82046
772.97        62.51383
773.39        62.35387
773.80        62.26677
774.22        62.27514
774.63        62.45186
775.05         62.6666
775.46          62.769
775.88        62.69473
776.29        62.51139
776.70        62.31968
777.12        62.30907
777.53        62.52149
777.95        62.84227
778.36        63.18114
778.77        63.35893
779.19        63.35178
779.60          63.248
780.02        63.05404
780.43        62.90912
780.84        62.88889
781.26        62.52904
781.67        62.04751
782.09         62.8027
782.50        64.33215
782.91        64.23288
783.33        62.72446
783.74        62.22345
784.15        62.85227
784.57        63.35028
784.98        63.53646
785.39        63.43262
785.81        63.14624
786.22        63.30153
786.63        63.85629
787.04        64.11385
787.46        64.04997
787.87        64.05202
788.28        64.15068
788.70         64.1569
789.11        64.05207
789.52        64.01562
789.93        64.01611
790.35        63.77319
790.76         63.3942
791.17        63.36559
791.58        63.67275
792.00        63.76793
792.41        63.62125
792.82        63.74847
793.23        64.06264
793.65        63.73888
794.06        63.02375
794.47        63.20216
794.88        64.09755
795.29        64.40657
795.71        64.03533
796.12        63.83596
796.53        63.88351
796.94        63.68289
797.35        63.37968
797.76        63.69261
798.18        64.44965
798.59        64.79564
799.00        64.61855
799.41        64.35849
799.82        64.14586
800.23         64.0148
800.64        64.01507
801.06        64.10209
801.47        64.23695
801.88         64.2725
802.29        64.16764
802.70        63.96363
803.11        63.73221
803.52        63.58081
803.93        63.56403
804.34         63.6844
804.75        63.88569
805.17        64.10603
805.58        64.39194
805.99         64.5416
806.40        64.61408
806.81        65.33032
807.22        66.33173
807.63         65.9809
808.04        64.51768
808.45        63.79788
808.86        63.98599
809.27        64.08091
809.68        63.97763
810.09        63.98227
810.50        64.06765
810.91        64.14927
811.32        64.27203
811.73          64.506
812.14        64.84396
812.55        65.25149
812.96        65.60573
813.37        65.68303
813.78        65.43572
814.19        64.96383
814.60        64.40814
815.01        63.94855
815.42        63.63529
815.83        63.42446
816.24        63.32364
816.65         63.3394
817.05        63.46822
817.46        63.69262
817.87        63.95724
818.28         64.1263
818.69        64.17165
819.10        64.10207
819.51        64.01862
819.92        64.11784
820.33        64.43198
820.74        64.88051
821.14        65.31709
821.55        65.50568
821.96         65.3962
822.37        65.07929
822.78        64.66013
823.19        64.31615
823.60        64.12252
824.00        64.04974
824.41        64.06946
824.82        64.22809
825.23        64.49658
825.64        64.86265
826.04        65.21889
826.45        65.34667
826.86        65.21828
827.27        64.90292
827.68        64.50231
828.08         64.2288
828.49        64.10821
828.90        64.09321
829.31        64.20914
829.72        64.49324
830.12        64.93999
830.53        65.48879
830.94        65.95844
831.35        65.98972
831.75        65.53168
832.16        64.67821
832.57        63.73468
832.97         63.1749
833.38        63.12636
833.79        63.43776
834.20         63.9486
834.60        64.39204
835.01        64.67529
835.42        64.91899
835.82         65.1078
836.23        65.13725
836.64        65.03545
837.04        64.77408
837.45        64.55704
837.86        64.79375
838.26        65.56608
838.67        66.72387
839.08        67.86594
839.48        68.22459
839.89        67.61296
840.29        66.31435
840.70        64.92719
841.11        64.14085
841.51        64.13385
841.92        64.67957
842.33        65.53732
842.73        66.27237
843.14        66.60728
843.54         66.7168
843.95        66.68471
844.35        66.69701
844.76        66.79011
845.17        66.88044
845.57        66.90996
845.98        66.77945
846.38        66.50011
846.79        66.12701
847.19        65.75726
847.60        65.50961
848.00        65.42646
848.41         65.4412
848.81        65.53094
849.22        65.57762
849.62        65.57852
850.03        65.55543
850.43         65.5034
850.84        65.34703
851.24         65.1334
851.65        64.83026
852.05        64.62771
852.46        64.75361
852.86        65.23845
853.27        65.97214
853.67        66.68594
854.07        67.12792
854.48         67.2173
854.88        67.04838
855.29        66.67263
855.69        66.31972
856.10        66.01349
856.50        65.77151
856.90        65.54799
857.31        65.28732
857.71        65.02942
858.12        64.75346
858.52        64.54374
858.92        64.40971
859.33        64.34157
859.73        64.38169
860.13        64.42831
860.54        64.33611
860.94        64.12271
861.34        63.81084
861.75        63.54807
862.15        63.62254
862.55         64.0618
862.96        64.73058
863.36        65.46674
863.76        65.91407
864.17        65.94981
864.57        65.71067
864.97        65.25924
865.38        64.70797
865.78        64.15685
866.18        63.57615
866.58        63.10192
866.99        62.97203
867.39        63.24698
867.79        63.85233
868.19        64.57787
868.60        65.06772
869.00        65.25087
869.40        65.17368
869.80        64.93825
870.21        64.76656
870.61        64.79257
871.01        64.89857
871.41        64.96109
871.81         64.8036
872.22        64.39966
872.62        63.83131
873.02        63.26815
873.42        62.97759
873.82        63.03945
874.22        63.36856
874.63        63.80269
875.03          64.107
875.43         64.1844
875.83        64.08113
876.23        63.89669
876.63        63.79365
877.03        63.81347
877.44        63.88305
877.84        63.90575
878.24        63.75029
878.64        63.36748
879.04        62.69606
879.44              62
879.84        61.78341
880.24        62.09352
880.64        62.72456
881.04        63.36406
881.44        63.52597
881.84        63.09093
882.24        62.23137
882.65         61.2478
883.05        60.60435
883.45        60.44032
883.85        60.62512
884.25        61.01663
884.65         61.3644
885.05        61.57506
885.45        61.73582
885.85           61.88
886.25        62.05412
886.65        62.27016
887.05        62.46658
887.45        62.64528
887.85        62.83418
888.25        63.01384
888.65        63.17163
889.04        63.22414
889.44         63.0685
889.84        62.68685
890.24        62.13123
890.64        61.52535
891.04        61.07284
891.44        60.85094
891.84        60.83536
892.24        60.94874
892.64        61.05517
893.04        61.12712
893.44         61.2102
893.83        61.39391
894.23        61.77081
894.63        62.35514
895.03        63.05174
895.43         63.7427
895.83        64.26156
896.23        64.53015
896.63        64.56796
897.02        64.37251
897.42        63.97912
897.82        63.44174
898.22        62.82174
898.62        62.19565
899.01        61.65194
899.41        61.25491
899.81        60.99584
900.21        60.93465
900.61        61.15373
901.00        61.62159
901.40         62.2561
901.80        62.89226
902.20        63.26994
902.59        63.32753
902.99        63.13923
903.39        62.75543
903.79        62.27993
904.18         61.7774
904.58         61.2258
904.98         60.8075
905.38        60.79727
905.77        61.22317
906.17        62.05225
906.57        62.91315
906.96        63.17007
907.36        62.67885
907.76        61.62711
908.15        60.55839
908.55         60.3306
908.95        61.13231
909.34        62.69616
909.74        64.40094
910.14        65.29509
910.53        65.07998
910.93        64.07468
911.33        62.71585
911.72        61.66799
912.12        61.20309
912.52        61.13236
912.91        61.25583
913.31        61.29153
913.70        61.16488
914.10        60.95874
914.49         60.8945
914.89        61.23561
915.29        62.03387
915.68        63.16444
916.08        64.22234
916.47        64.62519
916.87        64.25691
917.26        63.28842
917.66        62.20378
918.05        61.59132
918.45        61.59903
918.84        62.10902
919.24        62.78283
919.64        63.14721
920.03        63.07205
920.42        62.68431
920.82        62.30165
921.21        62.35461
921.61         62.9141
922.00        63.84589
922.40        64.80008
922.79        65.31207
923.19        65.20345
923.58         64.6606
923.98        63.94336
924.37         63.3654
924.77        63.04563
925.16         62.8618
925.55        62.78258
925.95         62.7394
926.34        62.71323
926.74        62.72695
927.13        62.72406
927.52        62.52947
927.92        62.17228
928.31        61.69394
928.70          61.246
929.10        61.04366
929.49        61.11573
929.89        61.33276
930.28        61.71373
930.67        62.18113
931.07        62.64291
931.46        63.18724
931.85        63.54109
932.24        63.31244
932.64        62.51875
933.03        61.27618
933.42        60.11792
933.82        59.81715
934.21          60.519
934.60        62.04519
934.99        63.85666
935.39        64.96073
935.78        65.07871
936.17        64.37904
936.56        63.35059
936.96         62.7821
937.35        62.87249
937.74        63.37524
938.13         63.8538
938.53        63.65416
938.92        62.67327
939.31         61.2277
939.70        59.77678
940.09        58.93419
940.49         58.8247
940.88        59.29035
941.27        60.09489
941.66        60.79952
942.05        61.22682
942.44        61.49623
942.84        61.70537
943.23        62.00411
943.62        62.43109
944.01        62.86031
944.40        63.24046
944.79        63.53651
945.18        63.70838
945.57        63.77285
945.97         63.6362
946.36        63.23708
946.75         62.5779
947.14        61.77909
947.53        60.99975
947.92         60.4456
948.31        60.16807
948.70        60.09369
949.09        60.23646
949.48        60.60577
949.87        61.14752
950.26        61.84107
950.65        62.45101
951.04        62.59832
951.43        62.21188
951.82        61.39656
952.21        60.47752
952.60         59.9926
952.99        60.10107
953.38        60.68318
953.77        61.48171
954.16        62.08994
954.55        62.36678
954.94         62.3548
955.33        62.27002
955.72        62.48579
956.11        63.06973
956.50        63.91892
956.89        64.54013
957.28        64.14026
957.66        62.62737
958.05        60.38366
958.44        58.21968
958.83        57.26738
959.22        57.72771
959.61        59.27222
960.00        61.23328
960.39        62.34248
960.78        62.17666
961.16        61.12565
961.55        59.77565
961.94        58.90639
962.33        58.74439
962.72         59.0576
963.11        59.63347
963.49        60.12429
963.88        60.29483
964.27        60.25789
964.66        60.20964
965.04        60.44446
965.43        60.96266
965.82        61.71336
966.21        62.28049
966.60        61.93443
966.98        60.55989
967.37        58.54528
967.76        56.64666
968.15        55.79156
968.53        56.12801
968.92         57.4249
969.31        59.12017
969.69         60.0648
970.08        59.79096
970.47        58.66476
970.86        57.38275
971.24        56.93467
971.63        57.54055
972.02        58.92455
972.40        60.56772
972.79        61.22551
973.17        60.59374
973.56        59.12791
973.95        57.55676
974.33        56.80569
974.72        57.06633
975.11        58.02113
975.49        59.29222
975.88        60.10404
976.26        60.19551
976.65        59.76453
977.04        59.05534
977.42        58.40129
977.81        57.91106
978.19        57.48745
978.58        57.23509
978.96        57.28839
979.35        57.63739
979.74        58.28236
980.12        59.15043
980.51        59.84386
980.89        60.33888
981.28        60.67014
981.66        60.90691
982.05        61.15808
982.43        61.48355
982.82        61.79205
983.20         62.2592
983.59        63.11317
983.97        64.40909
984.35        66.01807
984.74        67.36684
985.12        67.74085
985.51        66.91773
985.89        65.18705
986.28        63.18772
986.66         61.7771
987.04        61.25328
987.43         61.3852
987.81        61.90604
988.20        62.18365
988.58        62.02226
988.96        61.55788
989.35        61.03481
989.73        60.79025
990.12        60.87368
990.50        61.18705
990.88        61.40639
991.27        61.03546
991.65        60.01385
992.03         58.5676
992.42        57.25548
992.80         56.7956
993.18         57.3454
993.56        58.74887
993.95         60.4315
994.33        61.44534
994.71        61.35478
995.10        60.50194
995.48        59.48223
995.86        59.29505
996.24        60.15639
996.63        61.63122
997.01        63.36776
997.39        64.31225
997.77        64.06049
998.15        63.11341
998.54        61.70586
998.92        60.03401
999.30        58.37632
999.68        56.67162
1000.06        55.57589
1000.45        56.01391
1000.83        58.19764
1001.21        62.06349
1001.59        66.57695
1001.97        69.16106
1002.35        68.83851
1002.73        66.32163
1003.12          63.313
1003.50        62.04083
1003.88        63.10286
1004.26        65.80036
1004.64        69.32307
1005.02        71.88467
1005.40        72.61771
1005.78        72.16994
1006.16         70.7305
1006.54        68.55978
1006.92        66.06841
1007.30        63.29994
1007.69        61.01929
1008.07        60.15142
1008.45        60.96476
1008.83        63.24249
1009.21        66.43192
1009.59        68.93001
1009.97         69.7776
1010.35        69.32004
1010.73        67.63017
1011.11        64.94397
1011.49        61.74692
1011.86        58.22973
1012.24        55.25273
1012.62          53.908
1013.00        54.33249
1013.38         56.3248
1013.76        59.34308
1014.14        61.78941
1014.52        62.75391
1014.90        62.50038
1015.28        61.46353
1015.66        60.41036
1016.04        59.59739
1016.41        58.75814
1016.79        57.92759
1017.17        57.31707
1017.55        57.00156
1017.93        57.06546
1018.31        57.38396
1018.69        57.67086
1019.06        57.90962
1019.44        58.22102
1019.82         58.6847
1020.20        59.44402
1020.58        60.36066
1020.95        60.99445
1021.33        61.57837
1021.71        62.43539
1022.09        63.66602
1022.46         65.5652
1022.84        67.10551
1023.22        66.04497
1023.60         61.9966
1023.97        55.83867
1024.35        50.57418
1024.73        49.48373
