SpectraSmart Spectrum 2.9.0.0
--------- Device Information -----------
Spectrum Name :  反射率_0
Saving Time :  2024/04/26 23:39:24
Spectro-Module Model Name : SE2030-DUVN
Spectro-Module Serial Number : OS361AC55029948
Wavelength Start : 200
Wavelength End : 1025
Wavelength Unit : Wavelength(nm)
Spectrum Unit : Reflectance(%)
-----------Spectrum Setting ------------
Integration Time : 20ms
Average : 10
Boxcar : 0
Background removal :  enabled
linearity correction :  enabled
SC :  disabled
Intensity correction :  disabled
DWT denoise :  enabled
savitzky-golay :  disabled
FFT :  disabled
Running average :  disabled
Kalman :  disabled
High pass :  disabled
---------------BEGIN--------------------
Wavelength(nm)             Reflectance(%)
200.29               0
200.75        25.28736
201.21        28.96982
201.67        31.91308
202.13        32.56103
202.58        30.81238
203.04        27.17031
203.50        22.16541
203.96        18.34357
204.42        17.75543
204.88        19.95634
205.34        24.41341
205.80        29.29021
206.26        33.08954
206.72        35.87654
207.18         36.9354
207.64         35.5936
208.10        31.81163
208.55        24.95584
209.01        15.16096
209.47        9.524062
209.93        12.32147
210.39        19.23773
210.85        25.56736
211.31        29.64463
211.77        32.58875
212.23          36.233
212.69        44.10019
213.14         62.4742
213.60         69.7977
214.06        62.49681
214.52        54.87817
214.98        49.90242
215.44        45.91197
215.90        41.72015
216.36        37.52628
216.81        33.68862
217.27        30.59336
217.73        28.12563
218.19        26.48337
218.65        26.61717
219.11        28.66669
219.57        31.30143
220.02        34.25496
220.48        38.87122
220.94         46.0865
221.40        57.31578
221.86        72.63664
222.32        83.16891
222.77        80.36564
223.23        70.17951
223.69        59.40953
224.15        51.93295
224.61        47.44943
225.06        44.46754
225.52        42.93607
225.98        42.64966
226.44        43.36412
226.90        45.09578
227.36        47.22818
227.81        48.56553
228.27        48.88612
228.73        48.32594
229.19        47.71984
229.65        48.14447
230.10        49.61269
230.56        51.78915
231.02        53.63025
231.48        53.51986
231.93         51.3438
232.39        48.18999
232.85        45.25059
233.31         44.0682
233.77        44.75769
234.22        46.72343
234.68        49.18747
235.14        51.05198
235.60           51.92
236.05        52.15585
236.51        51.76714
236.97          50.853
237.43        49.61243
237.88        48.05199
238.34        46.58683
238.80        46.16509
239.26        47.11497
239.71        49.74844
240.17        53.74591
240.63        57.96033
241.08        61.45509
241.54        63.75666
242.00        65.08682
242.46        66.52757
242.91        69.06947
243.37        71.89217
243.83        75.10613
244.28        77.62904
244.74        76.95299
245.20        73.77425
245.66         69.2803
246.11        63.27174
246.57        56.54308
247.03        49.19489
247.48        42.85151
247.94        40.87926
248.40        43.08186
248.85        46.56832
249.31        50.13288
249.77        53.08582
250.22        55.55398
250.68        58.16401
251.14          60.376
251.59         60.2063
252.05        57.43882
252.51         53.6918
252.96        50.14121
253.42        48.04277
253.88        47.25197
254.33         46.8857
254.79         47.9268
255.25        50.94046
255.70        55.53041
256.16        61.43039
256.62        66.04861
257.07        65.56428
257.53        61.43581
257.99        56.19234
258.44        52.05049
258.90        51.08341
259.35        52.26849
259.81        54.75552
260.27        57.10659
260.72        57.58866
261.18        56.39733
261.63        54.16644
262.09        52.10515
262.55        51.00059
263.00        50.75053
263.46        51.06572
263.91        51.25434
264.37        50.74325
264.83        49.48818
265.28        47.79195
265.74        46.26459
266.19        45.35922
266.65        45.18551
267.11        45.44831
267.56        45.82357
268.02        45.81213
268.47         45.2767
268.93        44.41451
269.38        43.38356
269.84        42.47686
270.30        41.76345
270.75        41.13205
271.21        40.57296
271.66        40.02322
272.12        39.46115
272.57        38.89705
273.03        38.29591
273.48        37.57994
273.94        36.79372
274.39         35.9282
274.85        35.10651
275.31        34.36541
275.76        33.69757
276.22         33.1327
276.67        32.61117
277.13        32.13006
277.58        31.64174
278.04        31.18359
278.49        30.72918
278.95        30.35237
279.40        30.00875
279.86        29.73448
280.31        29.44511
280.77        29.12654
281.22        28.73465
281.68        28.33146
282.13        27.93266
282.59        27.64372
283.04        27.44292
283.50        27.31928
283.95        27.20197
284.41        26.99679
284.86        26.68779
285.32        26.33715
285.77        25.99749
286.22        25.79739
286.68        25.75084
287.13         25.7776
287.59        25.82771
288.04        25.78114
288.50        25.63362
288.95        25.40631
289.41        25.14203
289.86        24.83927
290.32        24.55033
290.77        24.26624
291.22        24.05238
291.68        23.99237
292.13        24.08818
292.59        24.33058
293.04        24.66007
293.50        24.99829
293.95        25.30647
294.40        25.59937
294.86        25.89923
295.31        26.23862
295.77          26.629
296.22        27.04463
296.68        27.46373
297.13        27.84192
297.58        28.18053
298.04        28.50221
298.49        28.83631
298.95        29.24321
299.40        29.72183
299.85        30.24445
300.31        30.77831
300.76        31.26428
301.21        31.68512
301.67        32.07124
302.12        32.39427
302.58        32.66912
303.03        32.88111
303.48         33.0448
303.94        33.21124
304.39        33.42719
304.84        33.70542
305.30        34.03374
305.75        34.33175
306.20        34.52732
306.66        34.61411
307.11        34.60958
307.57        34.56361
308.02        34.50631
308.47        34.46483
308.93         34.4321
309.38         34.4088
309.83        34.44283
310.29        34.53256
310.74        34.66057
311.19        34.76294
311.65        34.72871
312.10          34.534
312.55        34.21378
313.00         33.8596
313.46        33.60861
313.91        33.47963
314.36         33.4439
314.82        33.42402
315.27        33.30294
315.72        33.05177
316.18        32.72187
316.63        32.37914
317.08        32.13779
317.53        32.01961
317.99        31.97609
318.44        31.95153
318.89        31.84731
319.35        31.63564
319.80        31.35038
320.25        31.02601
320.70        30.71631
321.16        30.44076
321.61        30.19435
322.06        29.97009
322.51         29.7613
322.97        29.55944
323.42        29.37041
323.87         29.2009
324.32          29.064
324.78        28.94418
325.23        28.84614
325.68        28.71027
326.13        28.45339
326.59        28.06571
327.04        27.58936
327.49        27.10462
327.94        26.73604
328.39        26.51066
328.85        26.38729
329.30        26.32668
329.75        26.20501
330.20        25.98762
330.66        25.70333
331.11        25.41916
331.56        25.21966
332.01        25.12525
332.46        25.10343
332.92        25.08233
333.37         24.9856
333.82        24.77762
334.27        24.49322
334.72        24.19886
335.17         23.9999
335.63        23.92396
336.08        23.95237
336.53        24.02908
336.98        24.07035
337.43        24.04444
337.88        23.96365
338.34         23.8562
338.79        23.79712
339.24        23.79147
339.69        23.81554
340.14         23.8071
340.59        23.67217
341.05        23.40697
341.50        23.05143
341.95         22.6948
342.40        22.46654
342.85        22.39815
343.30        22.45056
343.75        22.55912
344.20        22.61869
344.66        22.59759
345.11        22.52066
345.56        22.42129
346.01        22.35392
346.46        22.33518
346.91        22.34632
347.36        22.35984
347.81        22.33876
348.26        22.27697
348.72         22.1911
349.17        22.11245
349.62        22.09943
350.07        22.16016
350.52        22.27297
350.97        22.38403
351.42        22.40897
351.87        22.32825
352.32        22.16816
352.77        21.98154
353.22         21.8456
353.67        21.77861
354.13         21.7614
354.58        21.75396
355.03        21.69454
355.48        21.57269
355.93        21.41719
356.38        21.27189
356.83        21.19945
357.28         21.2079
357.73        21.26495
358.18        21.33452
358.63        21.36033
359.08        21.32195
359.53        21.23912
359.98         21.1115
360.43        20.93758
360.88        20.72607
361.33        20.47786
361.78        20.23427
362.23        20.06355
362.68        19.98148
363.13        19.97593
363.58        19.99312
364.03        19.94337
364.48        19.80663
364.93        19.60579
365.38        19.39881
365.83        19.28364
366.28        19.27884
366.73         19.3453
367.18        19.41703
367.63        19.39332
368.08         19.2506
368.53          19.026
368.98        18.76614
369.43        18.54299
369.88        18.38207
370.33        18.26329
370.78        18.17567
371.23        18.10165
371.68        18.03252
372.13        17.97666
372.58        17.92945
373.03        17.87941
373.48         17.8215
373.93        17.75205
374.38          17.672
374.83        17.58776
375.28        17.50244
375.72        17.41268
376.17        17.32936
376.62        17.24534
377.07        17.16341
377.52        17.08823
377.97        17.02808
378.42        16.99763
378.87        16.99393
379.32        17.00005
379.77        17.00713
380.22        17.00334
380.67        16.97999
381.11        16.94616
381.56        16.86562
382.01        16.70086
382.46        16.46258
382.91        16.18045
383.36        15.92248
383.81        15.77704
384.26        15.75594
384.71        15.83322
385.15        15.95316
385.60        16.02378
386.05        16.01251
386.50         15.9402
386.95         15.8416
387.40        15.77342
387.85          15.749
388.29        15.73852
388.74        15.72906
389.19         15.6694
389.64        15.55186
390.09        15.38947
390.54        15.22235
390.98        15.11088
391.43        15.07873
391.88        15.10614
392.33        15.13979
392.78        15.10218
393.23        14.98538
393.67        14.81207
394.12        14.65707
394.57        14.59953
395.02        14.65292
395.47        14.78289
395.91        14.93534
396.36         15.0093
396.81        14.98439
397.26        14.89351
397.71         14.7734
398.15        14.68751
398.60        14.66867
399.05        14.63317
399.50        14.58225
399.95         14.6275
400.39        14.71535
400.84        14.59127
401.29        14.29429
401.74        14.11184
402.18        14.07243
402.63        14.02193
403.08        13.95552
403.53        13.92786
403.97        13.93417
404.42        13.95869
404.87         13.9888
405.32        14.00124
405.76        13.98567
406.21        13.95248
406.66        13.90685
407.11         13.8617
407.55        13.82507
408.00        13.78596
408.45        13.74455
408.90         13.6964
409.34        13.64195
409.79        13.58831
410.24        13.53934
410.68        13.49241
411.13         13.4505
411.58         13.4117
412.03        13.37315
412.47        13.33373
412.92        13.29031
413.37        13.24806
413.81        13.20875
414.26         13.1855
414.71        13.17418
415.15        13.17309
415.60        13.17163
416.05        13.16277
416.49        13.14458
416.94         13.1181
417.39        13.08529
417.83        13.04776
418.28        13.00688
418.73        12.96279
419.17        12.92361
419.62        12.90179
420.07        12.90044
420.51        12.91333
420.96        12.93225
421.41        12.94177
421.85        12.93136
422.30         12.8979
422.74        12.84438
423.19        12.83577
423.64        12.85276
424.08        12.81195
424.53        12.70749
424.98        12.63234
425.42        12.60029
425.87        12.53263
426.31        12.43992
426.76        12.42687
427.21        12.45942
427.65        12.36265
428.10        12.18457
428.54        12.12417
428.99         12.1962
429.44        12.33584
429.88        12.47548
430.33        12.46387
430.77        12.32721
431.22        12.30939
431.66        12.41424
432.11         12.4321
432.56        12.36891
433.00         12.3936
433.45        12.44614
433.89        12.33346
434.34        12.14477
434.78        11.82687
435.23        12.07142
435.67        12.13099
436.12        12.17532
436.57        12.22787
437.01        12.26888
437.46        12.27157
437.90        12.22187
438.35        12.09471
438.79        11.94075
439.24        11.87598
439.68        11.91683
440.13        12.02758
440.57        12.15345
441.02        12.21477
441.46        12.18708
441.91        12.06832
442.35        11.90871
442.80        11.88984
443.24        11.97267
443.69        11.93746
444.13        11.78965
444.58        11.72791
445.02        11.75374
445.47          11.757
445.91        11.74109
446.36        11.76607
446.80        11.82748
447.24        11.90511
447.69        11.97438
448.13        11.99314
448.58        11.95647
449.02        11.87639
449.47        11.78363
449.91        11.72127
450.36        11.70428
450.80        11.71892
451.25        11.74742
451.69        11.75471
452.13        11.73327
452.58        11.69244
453.02        11.64734
453.47        11.62298
453.91        11.62494
454.36        11.64606
454.80        11.66572
455.24        11.65079
455.69        11.60012
456.13        11.51873
456.58        11.44496
457.02        11.41607
457.46        11.44413
457.91        11.51344
458.35        11.58545
458.79         11.6011
459.24        11.55895
459.68        11.47168
460.13        11.38742
460.57        11.34657
461.01         11.3689
461.46        11.42879
461.90        11.51029
462.34        11.57583
462.79        11.60771
463.23        11.62099
463.68        11.61144
464.12        11.58023
464.56        11.53029
465.01        11.47615
465.45        11.41502
465.89        11.37615
466.34        11.36257
466.78        11.36509
467.22        11.38079
467.67        11.39214
468.11        11.39997
468.55        11.40448
468.99        11.40509
469.44        11.39931
469.88        11.38878
470.32        11.37369
470.77        11.36279
471.21        11.37309
471.65        11.40593
472.10        11.45818
472.54        11.51508
472.98        11.55818
473.42        11.58235
473.87        11.59606
474.31        11.60094
474.75        11.61187
475.20        11.63505
475.64        11.66084
476.08        11.68925
476.52        11.71411
476.97         11.7343
477.41        11.75866
477.85        11.78987
478.29        11.81388
478.74        11.83972
479.18        11.89649
479.62        11.97389
480.06        12.03537
480.50        12.07902
480.95        12.10997
481.39         12.1205
481.83        12.21422
482.27        12.21425
482.72        12.27277
483.16        12.34767
483.60        12.41335
484.04        12.44644
484.48        12.57893
484.93        12.85681
485.37         12.7739
485.81        12.72816
486.25        13.23785
486.69        13.18569
487.14        13.00101
487.58         13.6195
488.02        13.45635
488.46        13.09867
488.90        13.19032
489.34        13.32222
489.79        13.59209
490.23        13.73834
490.67        13.93968
491.11        14.13778
491.55        14.14767
491.99        14.02829
492.43        14.01654
492.88        14.14282
493.32        14.28548
493.76        14.41933
494.20        14.56263
494.64        14.70995
495.08        14.83142
495.52        14.92641
495.96        15.08931
496.41        15.28822
496.85        15.29125
497.29        15.14883
497.73        15.29572
498.17        15.51466
498.61        15.69773
499.05        15.75017
499.49        15.81307
499.93        15.85476
500.37        15.96369
500.82        16.11716
501.26        16.23376
501.70        16.30751
502.14         16.3958
502.58        16.51329
503.02        16.65026
503.46        16.80525
503.90        16.97766
504.34        17.13992
504.78        17.24613
505.22        17.28584
505.66        17.27234
506.10        17.23414
506.54        17.21818
506.98        17.24013
507.42        17.29033
507.86        17.35709
508.30        17.41938
508.74        17.46995
509.18        17.51563
509.62        17.56328
510.06        17.62253
510.50        17.69433
510.94        17.77288
511.38        17.84659
511.82        17.89862
512.26        17.92654
512.70         17.9372
513.14         17.9445
513.58        17.97112
514.02        18.02163
514.46        18.08574
514.90        18.15339
515.34        18.20888
515.78        18.24476
516.22        18.26509
516.66        18.26499
517.10        18.23685
517.54        18.18366
517.98        18.11111
518.42        18.03558
518.86        17.98295
519.30        17.96099
519.74        17.96432
520.18        17.98426
520.62        18.00485
521.06        18.01999
521.50        18.03326
521.93        18.04515
522.37        18.05004
522.81        18.04931
523.25           18.04
523.69        18.02411
524.13        18.00723
524.57        17.98903
525.01        17.96632
525.45        17.93576
525.89        17.89162
526.32        17.83237
526.76        17.76814
527.20        17.69882
527.64        17.62493
528.08        17.55009
528.52        17.47533
528.96        17.41419
529.40        17.38681
529.83        17.39419
530.27        17.43003
530.71        17.46991
531.15        17.47643
531.59        17.44065
532.03        17.37131
532.46        17.28832
532.90        17.23696
533.34         17.2235
533.78         17.2253
534.22         17.2229
534.66        17.20751
535.09        17.16167
535.53        17.05902
535.97        16.92672
536.41        16.84991
536.85        16.84124
537.28        16.86098
537.72        16.90133
538.16        16.96157
538.60        17.03304
539.04        17.11545
539.47        17.19269
539.91        17.25104
540.35        17.28588
540.79         17.3027
541.22        17.31829
541.66        17.36722
542.10        17.45457
542.54        17.57059
542.97        17.69815
543.41        17.81705
543.85        17.91809
544.29        18.00929
544.72         18.0934
545.16        18.18779
545.60        18.29315
546.04        18.40671
546.47        18.52937
546.91        18.65891
547.35        18.79191
547.79        18.93102
548.22         19.0698
548.66        19.19396
549.10        19.32467
549.53         19.4549
549.97        19.59312
550.41        19.70813
550.84         19.8205
551.28        19.98138
551.72        20.16103
552.15        20.32838
552.59        20.50145
553.03        20.38911
553.46          20.622
553.90        20.69306
554.34        20.78859
554.77        20.90163
555.21        21.03254
555.65        21.16317
556.08        21.27906
556.52        21.37333
556.96        21.44513
557.39        21.55185
557.83        21.67841
558.27        21.69752
558.70        21.63024
559.14        21.64238
559.57         21.7287
560.01        21.78228
560.45        21.80368
560.88        21.86073
561.32        21.96465
561.75        22.07229
562.19        22.17817
562.63        22.26935
563.06        22.33776
563.50        22.39078
563.93        22.42018
564.37        22.47136
564.80        22.55786
565.24        22.61447
565.68        22.59381
566.11        22.91346
566.55        22.75114
566.98        22.79652
567.42        22.85164
567.85        22.96236
568.29        23.13853
568.72        23.38065
569.16        23.68842
569.60        23.89091
570.03        24.04177
570.47        24.23615
570.90        24.52841
571.34        24.38842
571.77        24.49323
572.21        24.97477
572.64        24.84215
573.08        24.99969
573.51        25.10678
573.95        25.26418
574.38         25.4744
574.82        25.58775
575.25        25.51665
575.69         25.5255
576.12        25.60472
576.56          25.582
576.99         25.8421
577.42        25.71877
577.86        25.67986
578.29        25.94036
578.73        25.86231
579.16        25.80257
579.60         25.5212
580.03         25.5272
580.47        25.50904
580.90        25.50232
581.33        25.46619
581.77        25.53292
582.20        25.56332
582.64         25.3866
583.07        25.06287
583.51         24.8166
583.94        24.77646
584.37        24.69713
584.81         24.5672
585.24        24.53309
585.68        24.58594
586.11        24.32651
586.54        24.18024
586.98        24.03931
587.41        24.05626
587.85        23.96843
588.28        23.72406
588.71        23.82005
589.15        23.83397
589.58        23.60152
590.01        23.81437
590.45        23.80386
590.88        23.79827
591.31        23.74733
591.75        23.72624
592.18         23.6736
592.61        23.55668
593.05        24.14354
593.48        24.16164
593.91        24.06482
594.35        24.17462
594.78        24.07977
595.21        24.03459
595.65        24.19666
596.08         24.5933
596.51        24.79719
596.94        24.72272
597.38        24.81626
597.81        25.05809
598.24        25.43428
598.68        25.41636
599.11        25.71597
599.54         26.1972
599.97        25.96779
600.41         26.5835
600.84          26.647
601.27        27.00459
601.70        27.31089
602.14        27.69069
602.57        27.95477
603.00        28.16961
603.43         28.3607
603.87        28.99697
604.30        29.35719
604.73         29.6866
605.16        29.58456
605.60        30.17591
606.03        30.47473
606.46        30.76596
606.89        31.01694
607.32        31.44412
607.76        31.81309
608.19        32.17735
608.62        32.52993
609.05        32.89425
609.48        33.22839
609.92        33.97676
610.35        33.83987
610.78        34.03601
611.21        34.10305
611.64        34.50037
612.07        34.89346
612.50        35.09819
612.94        35.38015
613.37        35.66378
613.80        35.74443
614.23        35.69788
614.66        35.93465
615.09        36.44509
615.52        36.76971
615.96        36.85989
616.39        37.26912
616.82        37.57022
617.25        37.69963
617.68        37.94642
618.11        38.18037
618.54         38.4962
618.97        38.64924
619.40         38.6577
619.84        38.86918
620.27        38.92188
620.70        39.12425
621.13        39.33122
621.56        39.23895
621.99         38.8964
622.42        39.12146
622.85        39.37138
623.28        39.32077
623.71        39.44969
624.14        39.43576
624.57        39.60625
625.00        39.60577
625.43        39.67069
625.86        39.57227
626.29        39.33237
626.72         39.5312
627.15        39.23697
627.58        39.16032
628.01        38.99221
628.44        38.92701
628.87         38.6892
629.30        38.45289
629.73        38.14663
630.16        38.10852
630.59        37.79242
631.02        37.62809
631.45        37.44225
631.88        37.22823
632.31        36.97283
632.74        36.68389
633.17        36.35732
633.60        35.97271
634.03        35.53672
634.46        35.06057
634.89        34.57113
635.32        34.11847
635.75        33.72036
636.18        33.33171
636.61        32.96309
637.04        32.64585
637.47        32.37329
637.89        32.13041
638.32        31.87761
638.75        31.58402
639.18        31.24504
639.61        30.87346
640.04        30.50553
640.47        30.19608
640.90        29.95855
641.33        29.78127
641.76        29.63911
642.18        29.49359
642.61        29.32632
643.04         29.1534
643.47        29.00195
643.90        28.91322
644.33        28.89479
644.76        28.93418
645.18         28.9966
645.61        29.01861
646.04        28.99338
646.47         28.9467
646.90        28.92627
647.33        28.99948
647.75        29.16957
648.18        29.44557
648.61        29.80471
649.04        30.07392
649.47        30.20608
649.89        30.76246
650.32        30.92438
650.75          31.156
651.18        31.29139
651.61        31.72925
652.03        32.42889
652.46        32.91814
652.89         33.1571
653.32        33.47873
653.74        33.98249
654.17        34.01101
654.60        34.30798
655.03        34.79303
655.46        34.98834
655.88        35.52771
656.31        37.50547
656.74        39.61425
657.16        39.53157
657.59        39.20018
658.02        38.09353
658.45        38.38168
658.87        38.15929
659.30        38.88039
659.73        38.99644
660.15        39.73906
660.58        39.44203
661.01        39.61403
661.44        39.91642
661.86        40.09772
662.29        40.14445
662.72        40.67993
663.14        40.89167
663.57        41.06199
664.00        41.04417
664.42        41.25581
664.85        41.72455
665.27        42.24137
665.70        42.67942
666.13        42.96001
666.55        43.05275
666.98        42.94204
667.41         42.7219
667.83        42.82121
668.26        42.84224
668.69        43.10464
669.11        43.42836
669.54        43.73016
669.96        43.98124
670.39        44.21504
670.82        44.44749
671.24        44.66117
671.67        44.86538
672.09        45.07042
672.52         45.3005
672.94        45.47217
673.37         45.5962
673.80        45.70381
674.22        45.81166
674.65        45.90293
675.07        45.99392
675.50        46.08462
675.92        46.17727
676.35        46.26507
676.77        46.35102
677.20        46.43512
677.62        46.53314
678.05        46.66811
678.47        46.83747
678.90        47.03302
679.32        47.22181
679.75        47.35687
680.17        47.42381
680.60        47.45482
681.02        47.47787
681.45        47.49576
681.87        47.54996
682.30         47.7117
682.72        47.95205
683.15        48.11358
683.57        48.18486
684.00        48.22194
684.42        48.27388
684.85        48.39539
685.27        48.58911
685.70        48.85282
686.12        49.10758
686.54        49.21064
686.97        49.15747
687.39        49.06942
687.82        49.00132
688.24         48.9853
688.66        49.04543
689.09        49.19178
689.51        49.39294
689.94        49.55743
690.36        49.66771
690.78        49.73174
691.21        49.79574
691.63        49.92741
692.06        50.14067
692.48         50.4196
692.90        50.67841
693.33        50.78686
693.75        50.71894
694.17        50.49451
694.60        50.26061
695.02        50.23601
695.44        50.44341
695.87        50.89358
696.29        51.40908
696.71        51.40448
697.14        51.00908
697.56        51.00962
697.98        51.37778
698.41        51.81237
698.83        51.60862
699.25         51.7697
699.68        52.04052
700.10        52.18333
700.52        52.15821
700.94        52.05933
701.37        51.97094
701.79        52.01312
702.21         52.2083
702.64         52.4975
703.06        52.81042
703.48        53.02163
703.90        53.09612
704.33        53.07862
704.75        53.00938
705.17         52.9469
705.59        52.92309
706.01        52.91903
706.44        52.96371
706.86        53.11728
707.28          53.367
707.70        53.69589
708.12        54.03738
708.55        54.26546
708.97        54.36106
709.39        54.37249
709.81        54.33696
710.23        54.31189
710.66        54.31965
711.08        54.37206
711.50        54.44101
711.92        54.46564
712.34        54.43432
712.76        54.48596
713.19         54.4285
713.61        54.47709
714.03        54.56754
714.45        54.69744
714.87        54.84478
715.29        54.98286
715.71        55.10257
716.13        55.19635
716.56        55.27132
716.98        55.41641
717.40        55.60751
717.82        55.82288
718.24        55.99066
718.66        55.98619
719.08        55.80204
719.50        55.53269
719.92        55.27575
720.34        55.10289
720.76        55.08874
721.19        55.33854
721.61        55.80069
722.03        56.18913
722.45        56.43475
722.87        56.65558
723.29        56.82088
723.71        56.83594
724.13        56.70576
724.55        56.46237
724.97         56.1804
725.39        55.99577
725.81        55.95341
726.23        56.00651
726.65        56.12519
727.07        56.37907
727.49        56.53915
727.91        56.77466
728.33        57.00625
728.75        57.20689
729.17        57.35872
729.59        57.45502
730.01        57.49603
730.43        57.48973
730.85        57.44588
731.27        57.36865
731.69        57.27891
732.10        57.20693
732.52        57.16043
732.94        57.14735
733.36        57.18248
733.78        57.16567
734.20        57.08279
734.62        57.18621
735.04        57.52693
735.46        57.09515
735.88         57.6018
736.30        57.68895
736.72        57.87865
737.13        58.19647
737.55        58.52138
737.97        58.74455
738.39        58.77772
738.81        58.41641
739.23        57.84798
739.65        57.83327
740.06        58.30828
740.48        58.54906
740.90        58.50847
741.32        58.65118
741.74         58.9698
742.16          59.181
742.57         59.2562
742.99        59.27706
743.41        59.24877
743.83        59.13157
744.25        58.96245
744.67        58.80309
745.08        58.71666
745.50        58.74989
745.92        58.89752
746.34        59.08514
746.75        59.24542
747.17        59.30515
747.59        59.24341
748.01        59.08018
748.42        58.87992
748.84        58.72934
749.26        58.69296
749.68          58.812
750.09        59.02654
750.51        59.23139
750.93        59.33917
751.35        59.22931
751.76        58.96008
752.18         58.7944
752.60        58.76005
753.01        58.73152
753.43        58.67941
753.85        58.64454
754.27         58.6352
754.68         58.6627
755.10         58.7408
755.52        58.88334
755.93        59.06572
756.35        59.25447
756.77        59.49302
757.18         59.6639
757.60         59.7262
758.02        60.10917
758.43        60.70356
758.85        59.74992
759.26        59.46085
759.68        59.03572
760.10        59.18801
760.51         59.4955
760.93        59.87411
761.34        59.76431
761.76        59.88836
762.18        59.97775
762.59        60.25258
763.01        60.29799
763.42        60.18968
763.84        60.17767
764.26        60.29078
764.67        60.40153
765.09        60.48049
765.50        60.37317
765.92        60.15349
766.33        59.99562
766.75        59.86627
767.16        59.80006
767.58           59.78
768.00        59.62122
768.41        59.47132
768.83        59.97504
769.24        60.84981
769.66        61.04973
770.07        60.56947
770.49         59.9129
770.90        59.40477
771.32        59.76808
771.73        60.79816
772.15        61.18304
772.56        60.83179
772.97        60.50377
773.39        60.35628
773.80        60.32103
774.22         60.3955
774.63        60.53566
775.05        60.62372
775.46        60.64831
775.88        60.55961
776.29        60.34797
776.70        60.11703
777.12        60.09212
777.53        60.32158
777.95        60.69547
778.36        61.10842
778.77        61.35336
779.19        61.38519
779.60        61.28361
780.02        61.10127
780.43        60.98228
780.84        60.99358
781.26        60.87459
781.67        60.69174
782.09         61.1366
782.50        62.00244
782.91        61.92448
783.33        60.93967
783.74        61.31897
784.15        61.15413
784.57        61.45744
784.98        61.57431
785.39        61.47493
785.81        61.25257
786.22        61.46133
786.63        62.01858
787.04        62.23303
787.46        62.07347
787.87        61.87529
788.28        61.76646
788.70        61.75559
789.11        61.85367
789.52        62.15672
789.93        62.51154
790.35        62.51421
790.76        62.20565
791.17        61.93353
791.58        61.83432
792.00        61.91806
792.41        62.12014
792.82        62.31276
793.23        62.37531
793.65        62.02166
794.06         61.4792
794.47        61.54384
794.88        62.08139
795.29          62.529
795.71        62.03528
796.12         62.0164
796.53         62.2564
796.94         62.0284
797.35        61.51455
797.76        61.87032
798.18         62.9079
798.59        63.33837
799.00         63.0319
799.41        62.67797
799.82         62.4387
800.23        62.28495
800.64        62.27336
801.06        62.37591
801.47        62.56684
801.88        62.66631
802.29        62.61689
802.70        62.56158
803.11        62.54934
803.52        62.13005
803.93        62.18822
804.34        62.04376
804.75        61.98554
805.17        62.13035
805.58        62.53827
805.99        62.87861
806.40        63.12169
806.81        63.87672
807.22        64.79745
807.63        64.43766
808.04        63.07064
808.45        62.42737
808.86        62.67578
809.27        62.92463
809.68        62.98384
810.09         62.9445
810.50        62.75219
810.91        62.39959
811.32        62.08547
811.73        62.11596
812.14        62.54615
812.55        63.28416
812.96        64.07611
813.37        64.44177
813.78        64.24158
814.19         63.6483
814.60        62.91286
815.01        62.37717
815.42        62.13065
815.83        62.07144
816.24        62.14682
816.65        62.25841
817.05         62.3599
817.46        62.47186
817.87        62.58358
818.28        62.62078
818.69        62.57891
819.10        62.45118
819.51        62.31562
819.92        62.35801
820.33        62.61556
820.74        62.94707
821.14         63.2508
821.55        63.55268
821.96        63.72178
822.37        63.37553
822.78          62.681
823.19        62.33653
823.60         62.4539
824.00         62.7133
824.41        62.98288
824.82        63.26753
825.23         63.5005
825.64        63.67764
826.04         63.7935
826.45        63.80204
826.86        63.71738
827.27        63.55974
827.68        63.34767
828.08        63.14509
828.49        62.93785
828.90        62.73908
829.31        62.62389
829.72        62.70467
830.12        63.00937
830.53        63.45303
830.94        63.87648
831.35        63.96049
831.75        63.64842
832.16        63.02179
832.57        62.31019
832.97        61.86391
833.38         61.7833
833.79        61.94895
834.20        62.26743
834.60        62.58511
835.01        62.83953
835.42        63.11575
835.82        63.36512
836.23        63.42524
836.64        63.30476
837.04        63.00699
837.45        62.73858
837.86        62.90551
838.26        63.59684
838.67        64.65723
839.08        65.72938
839.48         66.1277
839.89        65.66974
840.29        64.59904
840.70        63.43164
841.11        62.74498
841.51        62.69995
841.92        63.11173
842.33        63.78317
842.73        64.36555
843.14        64.62346
843.54        64.70089
843.95        64.69947
844.35        64.82948
844.76        65.11569
845.17         65.4696
845.57        65.74437
845.98        65.69109
846.38        65.29356
846.79        64.65063
847.19        63.97206
847.60        63.56634
848.00        63.52286
848.41        63.71742
848.81         64.0455
849.22        64.24812
849.62        64.27696
850.03         64.2066
850.43        64.05759
850.84        63.79593
851.24        63.48743
851.65        63.07092
852.05         62.7735
852.46        62.90115
852.86        63.48272
853.27         64.3786
853.67        65.22269
854.07        65.61487
854.48         65.4577
854.88        64.89864
855.29        64.08084
855.69          63.404
856.10        62.96569
856.50        62.73852
856.90        62.65407
857.31        62.60523
857.71        62.59714
858.12        62.62902
858.52        62.72411
858.92         62.7932
859.33        62.79862
859.73        62.77769
860.13        62.71167
860.54        62.61219
860.94        62.52961
861.34        62.44752
861.75        62.39588
862.15         62.4651
862.55        62.64326
862.96        62.86574
863.36        63.11394
863.76        63.27472
864.17        63.30055
864.57        63.26121
864.97        63.10043
865.38        62.74203
865.78        62.22916
866.18        61.58284
866.58        61.01222
866.99         60.8797
867.39        61.27901
867.79        62.08786
868.19        63.02211
868.60        63.62689
869.00        63.81176
869.40        63.65723
869.80        63.33709
870.21        63.19872
870.61        63.40218
871.01        63.77309
871.41        64.10168
871.81        64.10039
872.22        63.71526
872.62         63.0561
873.02        62.32816
873.42        61.86502
873.82        61.77382
874.22        61.95598
874.63        62.23475
875.03        62.34863
875.43        62.20945
875.83         61.9046
876.23         61.5661
876.63        61.39251
877.03        61.44035
877.44        61.62234
877.84        61.85092
878.24        62.00937
878.64        62.01587
879.04        61.76556
879.44        61.45864
879.84        61.52159
880.24        61.98009
880.64        62.64064
881.04        63.21964
881.44        63.28559
881.84        62.74931
882.24        61.79031
882.65        60.70969
883.05        59.96337
883.45        59.69931
883.85        59.80183
884.25        60.16936
884.65        60.61078
885.05        61.02557
885.45        61.45399
885.85        61.85497
886.25        62.16923
886.65        62.38164
887.05        62.46604
887.45        62.44075
887.85        62.37035
888.25        62.27006
888.65        62.12821
889.04        61.93314
889.44        61.68342
889.84        61.37902
890.24          61.058
890.64        60.73787
891.04        60.44107
891.44        60.19256
891.84        59.99495
892.24        59.89441
892.64        59.94999
893.04        60.16621
893.44         60.5358
893.83        60.97802
894.23        61.30655
894.63        61.48926
895.03         61.5341
895.43         61.5667
895.83        61.81377
896.23        62.29146
896.63         62.8911
897.02        63.38314
897.42        63.43124
897.82        62.98093
898.22        62.20992
898.62        61.31601
899.01        60.57783
899.41        60.11157
899.81         59.8236
900.21        59.75868
900.61        59.98138
901.00        60.45459
901.40        61.15303
901.80        61.84169
902.20        62.13138
902.59        61.95515
902.99        61.40702
903.39        60.74926
903.79        60.43379
904.18        60.56242
904.58        60.97947
904.98        61.52068
905.38         61.9423
905.77        62.16461
906.17        62.29961
906.57        62.29709
906.96        62.06803
907.36        61.63084
907.76        61.02996
908.15        60.52876
908.55        60.53162
908.95        61.11263
909.34        62.14708
909.74        63.28221
910.14        64.00636
910.53        64.12115
910.93        63.77206
911.33        63.10488
911.72        62.34914
912.12         61.6833
912.52        61.08464
912.91         60.5694
913.31        60.17299
913.70        59.91099
914.10        59.76276
914.49        59.86477
914.89         60.3417
915.29        61.18846
915.68        62.33932
916.08        63.39542
916.47        63.76778
916.87        63.35498
917.26        62.32376
917.66        61.19069
918.05        60.60756
918.45        60.72733
918.84        61.40122
919.24        62.26628
919.64        62.80116
920.03        62.83689
920.42         62.4977
920.82         62.0624
921.21        61.90248
921.61         62.0925
922.00        62.53577
922.40        62.95808
922.79        63.03478
923.19        62.66491
923.58        62.02463
923.98        61.37433
924.37         61.0179
924.77        61.04637
925.16        61.32221
925.55        61.74272
925.95        62.11332
926.34        62.35389
926.74        62.48756
927.13        62.47776
927.52        62.20311
927.92         61.7255
928.31        61.09364
928.70        60.47118
929.10        60.08643
929.49        59.98248
929.89        60.04125
930.28        60.33128
930.67        60.84673
931.07        61.50431
931.46        62.36814
931.85        63.06091
932.24        63.02078
932.64        62.22071
933.03        60.81062
933.42         59.4289
933.82        59.02148
934.21        59.76342
934.60        61.41587
934.99        63.34512
935.39        64.38667
935.78        64.23026
936.17        63.15022
936.56        61.71563
936.96        60.82547
937.35        60.73656
937.74        61.16462
938.13        61.75718
938.53        61.98907
938.92        61.71737
939.31        61.16351
939.70        60.54539
940.09         60.1361
940.49        59.98025
940.88        59.98732
941.27        60.08822
941.66        60.17391
942.05        60.20446
942.44        60.25574
942.84        60.31469
943.23        60.32735
943.62        60.30272
944.01          60.216
944.40        60.18666
944.79        60.43502
945.18        60.96503
945.57        61.67634
945.97        62.27772
946.36        62.37326
946.75        61.84629
947.14        60.91332
947.53        59.83193
947.92        58.95577
948.31        58.40943
948.70        58.09593
949.09        58.07621
949.48        58.44624
949.87         59.1633
950.26        60.17635
950.65        61.20555
951.04        61.77824
951.43        61.76163
951.82        61.25919
952.21        60.49103
952.60        59.85284
952.99         59.4996
953.38        59.35836
953.77        59.37572
954.16         59.4591
954.55        59.55619
954.94        59.67676
955.33        59.84805
955.72        60.09149
956.11        60.38179
956.50        60.69831
956.89        60.83375
957.28        60.47417
957.66        59.60028
958.05        58.39078
958.44        57.24118
958.83        56.70795
959.22        56.88774
959.61        57.62667
960.00        58.59264
960.39        59.15433
960.78        59.08797
961.16        58.55856
961.55        57.87144
961.94        57.41028
962.33        57.29948
962.72        57.46595
963.11        57.74768
963.49        57.88583
963.88        57.73709
964.27        57.37593
964.66        57.13824
965.04        57.54039
965.43        58.60861
965.82        60.25701
966.21        61.82943
966.60        62.07693
966.98        60.69547
967.37         58.2129
967.76        55.67526
968.15        54.39631
968.53        54.61195
968.92        56.00863
969.31        57.88118
969.69        58.80968
970.08        58.26055
970.47        56.71126
970.86        55.08596
971.24        54.67556
971.63        55.75191
972.02        57.96416
972.40         60.5258
972.79        61.64226
973.17        60.82892
973.56        58.72576
973.95        56.42511
974.33        55.34564
974.72        55.77606
975.11         57.2541
975.49        59.18949
975.88        60.39432
976.26        60.44556
976.65        59.67339
977.04        58.48484
977.42        57.45282
977.81        56.77148
978.19        56.28035
978.58        56.00683
978.96        55.97366
979.35        56.13383
979.74        56.50693
980.12         57.1355
980.51        57.81369
980.89        58.54169
981.28        59.28956
981.66        59.88238
982.05        60.07479
982.43        59.88169
982.82        59.31969
983.20        58.87992
983.59        59.39341
983.97        61.11237
984.35         63.7608
984.74        66.44379
985.12        67.85989
985.51        67.58859
985.89        66.07011
986.28        64.12182
986.66        62.91611
987.04        62.82146
987.43        63.42199
987.81        64.38991
988.20        64.97846
988.58        64.92148
988.96        64.47625
989.35        63.70446
989.73        62.62246
990.12        61.30251
990.50        59.74214
990.88        58.22744
991.27        57.37103
991.65        57.33863
992.03        57.94826
992.42        58.89899
992.80        59.71625
993.18        60.29185
993.56        60.74794
993.95         60.9819
994.33         61.0473
994.71        60.88162
995.10        60.50425
995.48        60.09007
995.86        60.02388
996.24        60.36563
996.63        60.91811
997.01         61.5811
997.39        61.79731
997.77        61.38921
998.15        60.65183
998.54        59.69927
998.92        58.56495
999.30        57.42595
999.68        56.28637
1000.06        55.61549
1000.45        56.05904
1000.83        57.77497
1001.21        60.65909
1001.59         64.0152
1001.97        66.07493
1002.35        66.13084
1002.73        64.69567
1003.12        62.75726
1003.50        61.52106
1003.88        61.38756
1004.26        61.87863
1004.64        62.89205
1005.02        64.15058
1005.40        65.36316
1005.78         66.7542
1006.16        67.61646
1006.54        66.79463
1006.92        64.34589
1007.30         60.7589
1007.69        57.46131
1008.07        56.35095
1008.45        57.98454
1008.83        61.92983
1009.21        67.18437
1009.59        71.06503
1009.97        72.07391
1010.35        70.83064
1010.73        68.05847
1011.11        64.91934
1011.49        62.06109
1011.86        59.35111
1012.24        57.14443
1012.62        55.86414
1013.00        55.51468
1013.38         56.0479
1013.76         57.3816
1014.14        59.02738
1014.52        60.54959
1014.90         61.8735
1015.28        62.64616
1015.66        62.54634
1016.04        61.62709
1016.41        59.97017
1016.79        58.06785
1017.17        56.96902
1017.55         57.0029
1017.93        57.87863
1018.31        59.19547
1018.69        60.35946
1019.06        61.21756
1019.44        61.97806
1019.82        62.52403
1020.20        62.58175
1020.58        62.06929
1020.95        60.92318
1021.33        59.74509
1021.71        59.13692
1022.09         59.1856
1022.46        59.98038
1022.84        60.88464
1023.22        60.46825
1023.60        58.41075
1023.97        55.17121
1024.35         52.5217
1024.73        52.34362
