SpectraSmart Spectrum 2.9.0.0
--------- Device Information -----------
Spectrum Name :  反射率_0
Saving Time :  2024/05/01 16:44:50
Spectro-Module Model Name : SE2030-DUVN
Spectro-Module Serial Number : OS361AC55029948
Wavelength Start : 200
Wavelength End : 1025
Wavelength Unit : Wavelength(nm)
Spectrum Unit : Reflectance(%)
-----------Spectrum Setting ------------
Integration Time : 20ms
Average : 10
Boxcar : 0
Background removal :  enabled
linearity correction :  enabled
SC :  disabled
Intensity correction :  disabled
DWT denoise :  enabled
savitzky-golay :  disabled
FFT :  disabled
Running average :  disabled
Kalman :  disabled
High pass :  disabled
---------------BEGIN--------------------
Wavelength(nm)             Reflectance(%)
200.29               0
200.75        119.9687
201.21        451.7908
201.67       -166.7767
202.13       -48.75294
202.58       -9.531292
203.04        14.03779
203.50        28.20369
203.96        33.07758
204.42        29.28487
204.88        6.525616
205.34       -596.5148
205.80        124.2039
206.26        75.17664
206.72        30.26676
207.18       -145.9784
207.64        332.4469
208.10        155.1897
208.55         106.742
209.01         79.7877
209.47        63.86829
209.93        54.02008
210.39        45.72763
210.85        37.55671
211.31        25.81618
211.77       -9.481715
212.23        247.4506
212.69        92.58305
213.14        91.15566
213.60        137.1786
214.06       -416.7354
214.52       -34.26679
214.98       -6.886255
215.44        4.434328
215.90        18.87487
216.36        203.1381
216.81       -98.77469
217.27       -170.7401
217.73        462.2647
218.19        115.6171
218.65        89.00098
219.11        95.72301
219.57        144.4956
220.02        342.5872
220.48        172.2901
220.94        67.27465
221.40        43.02376
221.86         36.6082
222.32         37.5971
222.77        43.48508
223.23        54.60765
223.69        70.18636
224.15        79.07343
224.61        75.73466
225.06        67.36227
225.52        61.41417
225.98        60.57401
226.44        64.45343
226.90        72.66245
227.36         83.8838
227.81        90.30922
228.27        88.28717
228.73        82.58263
229.19        78.05807
229.65        77.74394
230.10        81.43175
230.56        88.38003
231.02        96.93405
231.48        101.5829
231.93         99.6867
232.39        94.69176
232.85        89.15465
233.31         85.2595
233.77        83.26002
234.22        82.22022
234.68        82.25919
235.14         83.6674
235.60        86.60885
236.05        91.96632
236.51        99.58949
236.97        106.8936
237.43         110.471
237.88        109.1194
238.34        104.4173
238.80        100.9401
239.26        99.89618
239.71        101.3004
240.17        103.0231
240.63        98.68507
241.08        85.41466
241.54         69.0032
242.00        57.41815
242.46        54.37297
242.91         59.9939
243.37        75.77193
243.83        104.0049
244.28         124.361
244.74        115.4233
245.20        95.14984
245.66        78.33742
246.11        68.10011
246.57        61.34184
247.03        54.31225
247.48        42.90345
247.94        23.20842
248.40      -0.5266268
248.85       -20.85099
249.31         -27.261
249.77       -16.80862
250.22        1.529763
250.68        20.10846
251.14        34.62695
251.59        43.85973
252.05        50.09087
252.51        56.24935
252.96        66.09237
253.42        85.97009
253.88         98.4984
254.33        90.41051
254.79        81.53539
255.25        76.40234
255.70        73.34148
256.16        72.05006
256.62        71.82327
257.07        72.28158
257.53        73.51575
257.99        74.77675
258.44        75.80587
258.90        77.02071
259.35        77.98927
259.81        79.10321
260.27        79.77094
260.72        79.29756
261.18        78.15958
261.63        76.38811
262.09        74.94833
262.55        74.35287
263.00        74.37717
263.46        74.87519
263.91        75.15318
264.37        74.81996
264.83        73.78347
265.28        72.32176
265.74         70.8561
266.19        69.56562
266.65        68.66662
267.11        67.95362
267.56        67.47567
268.02        67.44663
268.47        67.77836
268.93        68.37888
269.38        68.91256
269.84        68.78638
270.30        67.89753
270.75        66.39813
271.21         64.6639
271.66        63.13362
272.12        62.00732
272.57        61.07846
273.03        60.29371
273.48        59.46566
273.94        58.59822
274.39        57.73802
274.85         56.9066
275.31        55.98498
275.76        54.96052
276.22        53.94151
276.67        52.97021
277.13        52.30129
277.58        51.84825
278.04        51.57096
278.49        51.28157
278.95        50.87085
279.40        50.23042
279.86        49.49268
280.31        48.61167
280.77        47.68532
281.22        46.67834
281.68        45.67769
282.13        44.68425
282.59        43.84181
283.04        43.11584
283.50         42.5405
283.95        42.03803
284.41        41.57667
284.86         41.1137
285.32        40.68303
285.77        40.29857
286.22        40.04564
286.68        39.91927
287.13        39.86406
287.59        39.77372
288.04        39.43793
288.50          38.874
288.95        38.11051
289.41        37.38086
289.86        36.90366
290.32        36.74205
290.77        36.78736
291.22        36.86052
291.68        36.67195
292.13        36.16613
292.59         35.4878
293.04        34.79708
293.50        34.40329
293.95        34.35542
294.40        34.54889
294.86        34.87738
295.31         35.1841
295.77         35.3995
296.22        35.56651
296.68           35.65
297.13        35.56738
297.58        35.34315
298.04        35.01682
298.49        34.70134
298.95        34.63087
299.40        34.82622
299.85        35.20832
300.31        35.67088
300.76        36.03625
301.21         36.2536
301.67        36.38372
302.12        36.39841
302.58        36.29461
303.03         36.0811
303.48        35.78955
303.94        35.54934
304.39        35.48346
304.84        35.62795
305.30        35.92235
305.75        36.25488
306.20         36.4702
306.66        36.52783
307.11        36.45473
307.57        36.29006
308.02        36.03719
308.47        35.73405
308.93        35.38667
309.38        35.03107
309.83        34.77774
310.29        34.65389
310.74        34.63318
311.19        34.65059
311.65        34.58385
312.10        34.39997
312.55        34.13442
313.00        33.86942
313.46        33.73547
313.91        33.74945
314.36        33.86103
314.82        33.97086
315.27         33.9353
315.72        33.71414
316.18        33.36491
316.63        32.96005
317.08        32.61386
317.53        32.35859
317.99        32.16663
318.44        31.99778
318.89        31.80112
319.35        31.56606
319.80         31.3167
320.25        31.08677
320.70        30.91925
321.16        30.81623
321.61        30.76477
322.06         30.7277
322.51        30.65322
322.97        30.51849
323.42        30.34643
323.87        30.15286
324.32        29.97685
324.78         29.8258
325.23         29.6986
325.68        29.57458
326.13        29.42845
326.59        29.24598
327.04        29.05124
327.49        28.85019
327.94        28.66112
328.39         28.4917
328.85        28.32995
329.30        28.18686
329.75         28.0483
330.20        27.91216
330.66        27.77467
331.11        27.65423
331.56        27.54857
332.01        27.45892
332.46        27.38487
332.92        27.30905
333.37        27.23633
333.82        27.15713
334.27        27.07808
334.72        27.01542
335.17         26.9987
335.63        27.02299
336.08        27.08768
336.53        27.17051
336.98        27.25027
337.43        27.31652
337.88        27.37812
338.34        27.40208
338.79        27.35484
339.24        27.22722
339.69        27.02594
340.14        26.82856
340.59         26.7586
341.05        26.83046
341.50        27.01883
341.95         27.2143
342.40        27.23582
342.85        27.05342
343.30        26.74172
343.75        26.41921
344.20        26.26889
344.66        26.33684
345.11         26.5448
345.56         26.8373
346.01        27.11746
346.46        27.33243
346.91        27.50471
347.36        27.59077
347.81        27.52678
348.26         27.3202
348.72        27.00244
349.17        26.64852
349.62        26.42339
350.07        26.36458
350.52        26.42677
350.97        26.54233
351.42        26.58805
351.87        26.53214
352.32        26.43107
352.77        26.29206
353.22        26.12709
353.67        25.95141
354.13        25.75084
354.58        25.58747
355.03        25.59828
355.48         25.7913
355.93        26.13451
356.38         26.4575
356.83        26.47193
357.28        26.12979
357.73        25.53542
358.18        24.91586
358.63        24.60754
359.08        24.67578
359.53         25.0099
359.98        25.43817
360.43        25.66655
360.88         25.6051
361.33        25.35595
361.78         25.0187
362.23        24.73552
362.68        24.55356
363.13        24.41994
363.58        24.32413
364.03         24.2617
364.48        24.21644
364.93        24.18842
365.38        24.15277
365.83        24.06119
366.28        23.90237
366.73        23.69384
367.18        23.43445
367.63        23.13056
368.08        22.80644
368.53         22.4746
368.98        22.19265
369.43        22.04132
369.88        22.02425
370.33        22.10942
370.78        22.22856
371.23        22.25783
371.68        22.15727
372.13        21.96611
372.58        21.71374
373.03        21.44694
373.48        21.18741
373.93        20.91782
374.38        20.67944
374.83        20.54307
375.28        20.51897
375.72        20.59189
376.17        20.68232
376.62        20.65792
377.07        20.49226
377.52        20.21845
377.97        19.92359
378.42        19.74846
378.87        19.72079
379.32        19.79355
379.77         19.8775
380.22        19.83636
380.67        19.64358
381.11        19.35198
381.56        19.04143
382.01        18.84666
382.46        18.80607
382.91        18.87477
383.36        18.98806
383.81        19.05004
384.26        19.02687
384.71        18.93874
385.15        18.81429
385.60        18.71555
386.05        18.65211
386.50        18.61296
386.95        18.55329
387.40        18.40938
387.85        18.18342
388.29        17.89252
388.74        17.65139
389.19        17.56099
389.64         17.6302
390.09        17.81104
390.54        18.00696
390.98        18.06175
391.43        17.94789
391.88        17.72664
392.33        17.47198
392.78        17.29494
393.23        17.22286
393.67        17.19023
394.12        17.19499
394.57        17.25083
395.02        17.31938
395.47        17.29296
395.91        17.19979
396.36        17.17509
396.81        17.23417
397.26        17.29993
397.71         17.3365
398.15        17.33613
398.60        17.31311
399.05         17.2009
399.50        17.05652
399.95        17.08402
400.39        17.23717
400.84        17.19456
401.29        16.95213
401.74         16.7794
402.18        16.69266
402.63        16.52911
403.08        16.33383
403.53        16.24909
403.97         16.2832
404.42         16.3938
404.87        16.51774
405.32        16.55439
405.76        16.47751
406.21        16.32796
406.66        16.15651
407.11         16.0455
407.55        16.02215
408.00        16.05933
408.45        16.12874
408.90        16.15826
409.34        16.13508
409.79        16.11672
410.24        16.10455
410.68        16.05967
411.13          15.988
411.58        15.91116
412.03        15.83417
412.47         15.7622
412.92        15.70013
413.37        15.65032
413.81        15.62152
414.26        15.63895
414.71        15.69505
415.15        15.78685
415.60        15.86946
416.05        15.88513
416.49        15.82094
416.94        15.69565
417.39        15.55321
417.83        15.46497
418.28        15.44989
418.73        15.48351
419.17        15.54047
419.62        15.57186
420.07        15.56601
420.51        15.53737
420.96        15.49935
421.41        15.44782
421.85         15.3836
422.30        15.31372
422.74        15.25567
423.19        15.25229
423.64        15.30365
424.08        15.40441
424.53        15.50068
424.98        15.52283
425.42        15.45674
425.87        15.33156
426.31        15.18764
426.76          15.099
427.21        15.07948
427.65        15.10254
428.10        15.16916
428.54        15.27642
428.99        15.41339
429.44        15.59952
429.88        15.75062
430.33        15.74919
430.77        15.58752
431.22        15.32057
431.66        15.05331
432.11        14.97338
432.56        15.05878
433.00        15.21684
433.45        15.29697
433.89        15.00706
434.34        14.38505
434.78        14.38592
435.23        15.04743
435.67         15.3017
436.12        15.13351
436.57        15.11124
437.01        15.25177
437.46        15.28568
437.90        15.20438
438.35        15.10368
438.79        15.00891
439.24        14.92181
439.68        14.88116
440.13        14.98916
440.57        15.17525
441.02        15.25865
441.46        15.21601
441.91        15.03491
442.35        14.80969
442.80        14.92865
443.24        15.28636
443.69         15.2697
444.13        14.90847
444.58        14.77468
445.02        14.87351
445.47        14.88809
445.91        14.83205
446.36        14.88009
446.80        15.03107
447.24        15.23099
447.69        15.41882
448.13         15.5015
448.58         15.4608
449.02          15.326
449.47        15.16243
449.91        15.06059
450.36        15.04958
450.80        15.09858
451.25        15.16539
451.69        15.17188
452.13        15.10272
452.58        14.99059
453.02        14.86771
453.47        14.79272
453.91         14.7783
454.36        14.80626
454.80        14.85307
455.24        14.88079
455.69        14.88032
456.13        14.85443
456.58        14.82594
457.02         14.8075
457.46        14.80804
457.91        14.82272
458.35        14.83211
458.79        14.78507
459.24         14.6866
459.68        14.59211
460.13        14.56049
460.57        14.38292
461.01        14.48643
461.46         14.5385
461.90        14.63804
462.34        14.67743
462.79        14.72234
463.23        14.71277
463.68        14.69353
464.12        14.70275
464.56         14.7474
465.01        14.83309
465.45        14.89367
465.89        14.85769
466.34        14.72438
466.78        14.51375
467.22        14.29792
467.67        14.22758
468.11        14.27515
468.55        14.45232
468.99        14.66851
469.44        14.81005
469.88        14.84704
470.32        14.80626
470.77        14.72712
471.21        14.67251
471.65        14.66258
472.10        14.67671
472.54        14.69038
472.98        14.67726
473.42        14.63406
473.87        14.58545
474.31         14.5382
474.75        14.51336
475.20        14.51811
475.64        14.53709
476.08        14.56958
476.52        14.63522
476.97        14.73265
477.41        14.85313
477.85        14.82205
478.29        15.07153
478.74        14.91155
479.18        14.85272
479.62        14.74894
480.06        14.76818
480.50        14.92975
480.95        14.91009
481.39         15.1678
481.83        15.20182
482.27        15.15832
482.72        15.07139
483.16        14.97774
483.60        14.96066
484.04        15.02459
484.48        15.07501
484.93         15.2002
485.37        15.48369
485.81        15.73914
486.25        16.12459
486.69        15.48787
487.14        14.99592
487.58        15.18423
488.02        15.80177
488.46        15.59571
488.90        15.68562
489.34        15.51522
489.79        15.34844
490.23        15.78545
490.67         16.0324
491.11        16.21064
491.55        16.15862
491.99        15.93918
492.43        15.86518
492.88        15.96198
493.32        16.01872
493.76        16.02608
494.20         16.0938
494.64        16.22523
495.08        16.37194
495.52        16.51019
495.96        16.65756
496.41          16.787
496.85        16.77655
497.29         16.6839
497.73        16.77578
498.17          17.036
498.61        17.17419
499.05        17.17325
499.49         17.2324
499.93        17.35008
500.37        17.40574
500.82        17.41489
501.26        17.45679
501.70        17.54035
502.14        17.64362
502.58        17.74169
503.02        17.79622
503.46        17.80174
503.90        17.77514
504.34        17.75036
504.78        17.77958
505.22         17.8741
505.66        18.01533
506.10        18.16852
506.54        18.27667
506.98        18.32229
507.42        18.32269
507.86        18.29926
508.30        18.28477
508.74        18.29273
509.18        18.31693
509.62        18.35275
510.06        18.39344
510.50        18.43602
510.94        18.48142
511.38        18.53739
511.82        18.61426
512.26        18.70805
512.70         18.8093
513.14        18.89091
513.58        18.91326
514.02        18.87024
514.46        18.77629
514.90        18.66295
515.34        18.58166
515.78        18.54987
516.22        18.55768
516.66        18.58789
517.10        18.61064
517.54        18.61657
517.98        18.61367
518.42         18.6131
518.86        18.63171
519.30        18.67097
519.74        18.72059
520.18        18.76131
520.62        18.76683
521.06        18.73139
521.50        18.66245
521.93        18.58236
522.37        18.52241
522.81        18.49478
523.25        18.49408
523.69        18.49955
524.13        18.47711
524.57         18.4219
525.01        18.34623
525.45        18.27895
525.89         18.2644
526.32        18.30891
526.76        18.39254
527.20        18.48148
527.64        18.52183
528.08        18.49977
528.52        18.43452
528.96        18.34804
529.40        18.27486
529.83        18.22465
530.27        18.19061
530.71        18.17015
531.15        18.16471
531.59        18.16998
532.03         18.1849
532.46        18.19382
532.90        18.17294
533.34        18.12124
533.78        18.03574
534.22        17.93327
534.66        17.87113
535.09        17.83962
535.53        17.76715
535.97        17.67256
536.41        17.64905
536.85        17.70078
537.28        17.78289
537.72        17.86029
538.16        17.89577
538.60        17.87836
539.04        17.81878
539.47        17.75405
539.91        17.75284
540.35        17.82405
540.79        17.95607
541.22        18.10917
541.66        18.19167
542.10        18.23545
542.54        18.22462
542.97        18.21116
543.41        18.26567
543.85        18.39715
544.29        18.58086
544.72        18.77448
545.16        18.92262
545.60        19.00832
546.04         19.0489
546.47        19.07209
546.91        19.12652
547.35        19.22552
547.79        19.34865
548.22        19.46327
548.66        19.56277
549.10        19.64293
549.53         19.6219
549.97         19.7005
550.41        19.79309
550.84        19.95739
551.28        20.17773
551.72        20.41366
552.15        20.58004
552.59        20.66956
553.03        20.73159
553.46        20.78407
553.90        20.86728
554.34        20.99241
554.77        21.11374
555.21        21.19689
555.65        21.41956
556.08        21.37015
556.52        21.39636
556.96        21.40081
557.39        21.44078
557.83        21.52996
558.27        21.62374
558.70         21.7033
559.14        21.84435
559.57        21.84459
560.01        21.90851
560.45        21.96095
560.88        21.95755
561.32        21.94825
561.75        21.94174
562.19        21.97998
562.63        22.22355
563.06        22.56916
563.50        22.55262
563.93        22.23775
564.37        22.16148
564.80        22.33791
565.24        22.48053
565.68        22.55897
566.11        22.65905
566.55        22.77988
566.98        22.89041
567.42        23.00573
567.85        23.13167
568.29        23.27907
568.72        23.42432
569.16        23.57447
569.60        23.70701
570.03        23.80828
570.47        23.85965
570.90        24.05692
571.34         23.9911
571.77        24.17165
572.21         24.2649
572.64        24.42137
573.08        24.43735
573.51        24.83323
573.95        24.86933
574.38        24.90814
574.82        24.98396
575.25        25.11966
575.69        25.14855
576.12        25.07969
576.56         25.1618
576.99        25.35068
577.42        25.27578
577.86        25.46115
578.29        25.44046
578.73        25.50779
579.16        25.26014
579.60        24.93215
580.03        24.77267
580.47        24.99216
580.90        24.59762
581.33        24.93438
581.77        25.24586
582.20        25.17742
582.64          24.808
583.07        24.74989
583.51        24.50459
583.94        24.41318
584.37        24.42772
584.81        24.51785
585.24        24.42556
585.68         24.1861
586.11        24.03494
586.54        23.95522
586.98        23.72345
587.41         23.7735
587.85        23.70024
588.28        23.70839
588.71         23.4026
589.15        23.78746
589.58        23.41963
590.01        23.66033
590.45        23.57484
590.88        23.50936
591.31         23.4821
591.75        23.48156
592.18         23.4122
592.61        23.29265
593.05        23.47181
593.48        23.48956
593.91        23.77936
594.35        23.64041
594.78         23.7118
595.21        23.80983
595.65        23.97801
596.08        24.19081
596.51        24.10211
596.94        24.20543
597.38        24.32789
597.81        24.66146
598.24         24.7062
598.68        25.22785
599.11        25.26574
599.54        25.92043
599.97        25.65123
600.41        25.86559
600.84        26.58178
601.27        26.61507
601.70         27.1385
602.14        27.48497
602.57        27.75211
603.00        27.90234
603.43        28.09758
603.87         28.5652
604.30        28.91843
604.73        29.17328
605.16        29.52519
605.60         29.9458
606.03         30.3854
606.46        30.73878
606.89        31.12473
607.32        31.32432
607.76        31.60884
608.19        31.90384
608.62        32.38021
609.05        32.71651
609.48        33.03743
609.92        33.27625
610.35        33.69139
610.78        34.14143
611.21        34.62769
611.64        34.61729
612.07        35.04549
612.50        35.32524
612.94        35.56552
613.37        35.66707
613.80        35.88698
614.23        36.07467
614.66        36.53456
615.09        36.64368
615.52         36.8888
615.96        37.10761
616.39        37.53588
616.82        37.85717
617.25        38.20811
617.68        38.46675
618.11        38.55334
618.54        38.53115
618.97        38.66726
619.40        38.99137
619.84        39.20239
620.27        39.27571
620.70        39.59553
621.13        40.12667
621.56         39.9099
621.99        39.62825
622.42        39.95789
622.85        39.95625
623.28        40.00376
623.71        40.08724
624.14        40.15776
624.57        40.28235
625.00        40.32949
625.43        40.28499
625.86        40.18319
626.29        40.08079
626.72        39.74866
627.15        39.66482
627.58        39.44634
628.01        39.23776
628.44         39.0287
628.87        38.81995
629.30        38.63909
629.73        38.47863
630.16        38.28473
630.59         38.0424
631.02        37.78355
631.45        37.50006
631.88        37.16479
632.31        36.77761
632.74        36.34319
633.17        35.90393
633.60        35.52096
634.03        35.20454
634.46        34.95769
634.89        34.71423
635.32        34.32547
635.75        33.79274
636.18        33.24342
636.61        32.74104
637.04        32.30372
637.47         31.9543
637.89        31.70729
638.32        31.49358
638.75        31.22535
639.18        30.88825
639.61        30.39417
640.04        30.02962
640.47        29.69559
640.90        29.48149
641.33        29.34526
641.76         29.2492
642.18        29.17486
642.61        29.10403
643.04        28.98371
643.47        28.79535
643.90          28.914
644.33        28.72195
644.76        28.67484
645.18        28.61727
645.61        28.71098
646.04        28.91369
646.47        28.99036
646.90        28.96908
647.33        29.08673
647.75        29.35477
648.18        29.63425
648.61        29.90346
649.04        30.18087
649.47        30.46057
649.89        30.78228
650.32        31.13721
650.75        31.43275
651.18        31.69896
651.61        32.14964
652.03        32.77108
652.46          33.238
652.89        33.53355
653.32        33.92524
653.74        34.52855
654.17        34.81626
654.60        35.36489
655.03        36.09288
655.46          35.928
655.88        37.10642
656.31        42.07749
656.74        42.12766
657.16        38.48062
657.59         37.6897
658.02          39.265
658.45        39.72922
658.87        40.07507
659.30         39.9867
659.73        40.46828
660.15        41.22595
660.58        41.28151
661.01        41.58023
661.44        41.81677
661.86        42.17422
662.29         42.6405
662.72         42.9598
663.14        43.18501
663.57        43.61938
664.00        44.20036
664.42        44.55857
664.85        44.68054
665.27        44.74346
665.70        44.82059
666.13        44.95263
666.55        45.17389
666.98        45.46912
667.41        45.79835
667.83        46.08947
668.26        46.30767
668.69        46.47529
669.11        46.61691
669.54        46.79135
669.96        47.00417
670.39        47.18865
670.82        47.34312
671.24        47.50486
671.67         47.6789
672.09         47.8169
672.52        47.92037
672.94        48.04097
673.37        48.20148
673.80        48.10453
674.22        48.29237
674.65        48.36699
675.07        48.49958
675.50        48.66347
675.92        48.84885
676.35        49.01163
676.77        49.14032
677.20        49.26182
677.62        49.39938
678.05        49.48883
678.47        49.67937
678.90        49.84908
679.32        50.01949
679.75        50.17079
680.17        50.29191
680.60        50.39539
681.02        50.49691
681.45        50.59062
681.87        50.68671
682.30        50.86732
682.72        50.98053
683.15        51.09635
683.57        51.17681
684.00        51.26296
684.42        51.36808
684.85        51.48486
685.27        51.60233
685.70        51.76321
686.12        51.92169
686.54        51.93531
686.97        51.82042
687.39        51.81306
687.82        51.91289
688.24         51.8675
688.66        51.74987
689.09         51.9641
689.51        52.45975
689.94         52.7723
690.36        52.86868
690.78        52.97689
691.21        53.15386
691.63        53.38223
692.06        53.68177
692.48        54.09729
692.90        54.54789
693.33        54.82669
693.75        54.89995
694.17        54.83103
694.60        54.70878
695.02        54.56435
695.44        54.62009
695.87        54.54096
696.29        54.44133
696.71        54.30584
697.14        54.36122
697.56        54.78791
697.98        55.47791
698.41        55.86287
698.83          55.901
699.25        55.95041
699.68        56.05023
700.10        56.13287
700.52        56.21677
700.94        56.30619
701.37        56.41062
701.79        56.62851
702.21        56.89383
702.64        57.05732
703.06        57.10918
703.48        57.08885
703.90        56.98945
704.33        57.15053
704.75        56.89421
705.17        56.92574
705.59        57.05017
706.01        57.24019
706.44         57.4796
706.86        57.74779
707.28        58.00787
707.70        58.32626
708.12        58.63335
708.55        58.64136
708.97         58.4197
709.39        58.40338
709.81        58.59921
710.23        58.66323
710.66        58.59434
711.08        58.63032
711.50         58.7738
711.92        58.92697
712.34        59.08519
712.76        59.27563
713.19        59.46508
713.61        59.63892
714.03        59.76496
714.45        59.83594
714.87        59.88404
715.29        59.95863
715.71        60.07273
716.13         60.2464
716.56        60.40887
716.98         60.4645
717.40        60.40601
717.82        60.36317
718.24        60.40038
718.66        60.57243
719.08        60.85747
719.50        61.12574
719.92        61.30801
720.34         61.4566
720.76        61.44904
721.19         61.3296
721.61        61.13728
722.03        61.01954
722.45        61.01943
722.87        61.10668
723.29         61.2584
723.71        61.43254
724.13        61.60483
724.55        61.77316
724.97        61.95158
725.39        62.16064
725.81         62.3924
726.23        62.63366
726.65        62.80817
727.07        62.80043
727.49        62.60548
727.91        62.27468
728.33        61.94233
728.75        61.81963
729.17        61.95313
729.59        62.27788
730.01        62.68716
730.43        62.98516
730.85        63.11262
731.27        63.14542
731.69        63.11179
732.10         63.0578
732.52        63.00615
732.94        62.91516
733.36        62.87428
733.78         62.9777
734.20        63.21614
734.62        63.75665
735.04        64.40135
735.46        64.27957
735.88        63.55276
736.30        63.54647
736.72        64.27189
737.13         64.0572
737.55        64.14348
737.97        63.79324
738.39        63.57107
738.81        63.85554
739.23        64.56476
739.65        64.91258
740.06        64.78883
740.48        64.83235
740.90        65.00758
741.32        64.94716
741.74        64.69328
742.16        64.50526
742.57        64.42194
742.99        64.47475
743.41        64.63897
743.83        64.59238
744.25        64.44379
744.67        64.83538
745.08        65.61707
745.50        65.88686
745.92        65.56494
746.34        65.08231
746.75        64.64137
747.17        64.37572
747.59        64.33759
748.01        64.65386
748.42         65.1397
748.84        65.10894
749.26        64.68277
749.68        64.68195
750.09        65.11155
750.51        65.52144
750.93        65.77557
751.35        65.74326
751.76        65.51468
752.18        65.51116
752.60        65.77086
753.01        66.03195
753.43        66.16805
753.85        66.33605
754.27         66.4883
754.68        66.51609
755.10         66.4699
755.52        66.50848
755.93        66.63838
756.35        66.77883
756.77        66.90289
757.18        66.94467
757.60        66.90473
758.02         66.9382
758.43          66.939
758.85        66.73652
759.26        66.27423
759.68        66.23796
760.10        66.78252
760.51        67.66581
760.93        67.27917
761.34        66.74181
761.76        67.34265
762.18        66.89443
762.59        66.20186
763.01        66.49862
763.42        67.65965
763.84        68.16673
764.26          67.915
764.67        67.34081
765.09        66.75778
765.50        67.04192
765.92        68.04844
766.33        67.47882
766.75        66.86099
767.16        66.50673
767.58        66.66453
768.00        66.90606
768.41        67.25069
768.83        68.24657
769.24        69.39925
769.66        70.47935
770.07        69.57325
770.49        68.87312
770.90        68.18897
771.32         68.1865
771.73        68.75576
772.15        68.87063
772.56        68.51536
772.97        68.42699
773.39         68.6324
773.80        68.79597
774.22        68.86607
774.63        68.99205
775.05        69.11633
775.46        69.20227
775.88        69.22353
776.29        69.21733
776.70        69.20589
777.12        69.26538
777.53        69.40173
777.95        69.52759
778.36        69.65524
778.77        69.69904
779.19        69.64011
779.60         69.7851
780.02        69.95552
780.43        69.35952
780.84        68.34166
781.26         67.9781
781.67         68.3619
782.09        69.22977
782.50        70.21837
782.91        69.44474
783.33        68.69587
783.74        68.47553
784.15        69.34982
784.57        70.19481
784.98        70.82783
785.39         71.3974
785.81        71.80057
786.22        71.78368
786.63        71.82805
787.04        71.70193
787.46          71.612
787.87        71.52924
788.28        71.51935
788.70        71.56931
789.11        71.66194
789.52        71.94768
789.93        72.27618
790.35        72.23491
790.76        71.88422
791.17        71.51494
791.58        71.30037
792.00         71.4427
792.41        71.83447
792.82        72.00722
793.23        71.85017
793.65        71.49968
794.06        71.10531
794.47        70.85784
794.88         70.9911
795.29        71.03374
795.71         70.9747
796.12        71.30144
796.53        71.88941
796.94        71.71537
797.35        71.41236
797.76        70.99415
798.18         70.8355
798.59        70.82488
799.00        71.02757
799.41        71.43639
799.82        72.10445
800.23        72.49122
800.64        72.56624
801.06        72.40686
801.47        72.14748
801.88        71.92247
802.29          71.793
802.70        71.69932
803.11        71.65206
803.52        71.67841
803.93        71.79068
804.34        72.00757
804.75         72.2485
805.17        72.45887
805.58        72.66607
805.99         72.5047
806.40        72.13161
806.81        72.62393
807.22         73.6467
807.63        73.30489
808.04        71.81683
808.45        71.20898
808.86        71.63848
809.27        71.97128
809.68        72.08613
810.09        72.31159
810.50        72.59994
810.91        72.86382
811.32        73.06293
811.73        73.13458
812.14        73.07259
812.55        72.89699
812.96        72.71297
813.37        72.69649
813.78        72.89117
814.19        73.25436
814.60        73.65981
815.01        73.90701
815.42        73.94801
815.83         73.8316
816.24        73.65308
816.65        73.59381
817.05        73.70985
817.46        73.91083
817.87        74.11988
818.28        74.18432
818.69        74.06981
819.10        73.82732
819.51        73.53758
819.92        73.34831
820.33        73.31087
820.74        73.37459
821.14        73.47588
821.55        73.54588
821.96        73.55231
822.37        73.54926
822.78        73.54379
823.19        73.54056
823.60        73.55614
824.00        73.59271
824.41        73.68177
824.82        73.99449
825.23        74.53053
825.64        75.21949
826.04         75.8934
826.45        76.18746
826.86        76.04317
827.27        75.56777
827.68        74.90612
828.08        74.32964
828.49        73.90985
828.90        73.59174
829.31        73.41403
829.72        73.41999
830.12        73.63073
830.53        74.02769
830.94        74.44386
831.35        74.51628
831.75        74.18965
832.16         73.5107
832.57        72.84779
832.97        72.76508
833.38        73.34536
833.79        74.40381
834.20        75.55298
834.60        76.12572
835.01        75.91122
835.42        75.15962
835.82        74.17291
836.23        73.41217
836.64        73.03854
837.04         72.9292
837.45         73.0166
837.86        73.25564
838.26        73.59599
838.67        74.02016
839.08        74.43391
839.48        74.63556
839.89         74.5676
840.29        74.28291
840.70        73.87594
841.11        73.47929
841.51        73.17133
841.92        72.90225
842.33        72.76108
842.73        72.89159
843.14        73.25345
843.54        73.86307
843.95        74.50954
844.35        74.90277
844.76        74.92873
845.17        74.65959
845.57        74.28356
845.98        74.10123
846.38        74.21023
846.79        74.50243
847.19        74.84642
847.60        74.92963
848.00        74.70219
848.41        74.25862
848.81        73.78067
849.22        73.51762
849.62        73.54789
850.03         73.7567
850.43        74.04777
850.84        74.11156
851.24        73.94103
851.65        73.60863
852.05        73.28284
852.46        73.18492
852.86        73.34919
853.27        73.67979
853.67        74.07742
854.07        74.60638
854.48        75.18312
854.88        75.91543
855.29        76.46984
855.69        76.49412
856.10        75.79814
856.50        74.60652
856.90        73.36717
857.31        72.74343
857.71        72.86446
858.12        73.48878
858.52        74.38795
858.92         74.8934
859.33        74.76099
859.73        74.24972
860.13        73.46415
860.54        72.59576
860.94        71.76003
861.34        70.88342
861.75        70.15704
862.15        69.97347
862.55        70.37442
862.96        71.24969
863.36        72.27591
863.76         72.8136
864.17        72.70404
864.57        72.13851
864.97        71.40287
865.38        70.99533
865.78        71.08865
866.18        71.48779
866.58        72.04089
866.99        72.47816
867.39        72.71216
867.79        72.83717
868.19        72.80478
868.60         72.4948
869.00        71.92123
869.40        71.10843
869.80        70.32782
870.21        70.09599
870.61         70.5797
871.01        71.55095
871.41        72.60204
871.81        73.10773
872.22         72.9159
872.62         72.2298
873.02        71.29411
873.42        70.52074
873.82        70.08543
874.22        69.89264
874.63          69.919
875.03        70.12347
875.43        70.45951
875.83        70.94484
876.23        71.55713
876.63        72.13619
877.03        72.61176
877.44        73.15673
877.84        73.76788
878.24        73.35861
878.64        73.57812
879.04         73.1217
879.44        72.64572
879.84        72.35508
880.24        72.31651
880.64        72.47596
881.04        72.66817
881.44         72.6478
881.84        72.36317
882.24        71.89917
882.65        71.42321
883.05         71.3438
883.45        71.70084
883.85        72.33763
884.25        73.05119
884.65        73.56484
885.05        73.81126
885.45         73.8886
885.85        73.82622
886.25        73.67807
886.65         73.4874
887.05        73.22052
887.45        72.99083
887.85        72.98302
888.25        73.21626
888.65        73.64772
889.04        74.07542
889.44        74.13653
889.84        73.76858
890.24        73.07495
890.64        72.29691
891.04        71.78037
891.44        71.61217
891.84        71.72892
892.24        71.92596
892.64        71.85564
893.04        71.45643
893.44        70.84685
893.83         70.3314
894.23        70.38569
894.63        71.05664
895.03        72.17779
895.43        73.35977
895.83        73.89677
896.23        73.60496
896.63        72.75616
897.02        71.68958
897.42        71.00952
897.82         70.8101
898.22        70.96567
898.62        71.37885
899.01        71.91214
899.41        72.42971
899.81        72.99081
900.21        73.61475
900.61         74.3143
901.00        75.04828
901.40        75.73134
901.80         76.2034
902.20        76.25641
902.59        75.88371
902.99        75.17222
903.39        74.36242
903.79        73.84122
904.18        73.69777
904.58        73.84663
904.98        74.12127
905.38        74.25961
905.77        74.18879
906.17        74.03665
906.57        73.81728
906.96        73.56511
907.36        73.30573
907.76        73.02187
908.15        72.87802
908.55        73.10514
908.95        73.73013
909.34         74.6685
909.74        75.60458
910.14        76.09745
910.53        76.02285
910.93        75.51991
911.33        74.79712
911.72        74.19262
912.12        73.84541
912.52        73.65508
912.91        73.57758
913.31        73.52773
913.70        73.48089
914.10        73.49734
914.49        73.56209
914.89        73.61185
915.29         73.6407
915.68        73.63656
916.08        73.65794
916.47        73.83775
916.87        74.18258
917.26        74.64246
917.66        75.08314
918.05        75.30226
918.45        75.25143
918.84        75.02153
919.24        74.72858
919.64        74.66037
920.03        74.90742
920.42         75.3613
920.82        75.86546
921.21        76.21306
921.61        76.30527
922.00        76.19086
922.40        75.93861
922.79        75.75603
923.19        75.68521
923.58        75.69004
923.98        75.60148
924.37        75.10305
924.77        74.21499
925.16        73.04699
925.55        71.96735
925.95        71.57721
926.34        72.05383
926.74        73.15562
927.13        74.57392
927.52        75.71163
927.92        76.34632
928.31        76.62643
928.70         76.6187
929.10         76.4802
929.49        76.31491
929.89        76.06023
930.28        75.75816
930.67        75.45641
931.07        75.16675
931.46        74.89292
931.85        74.72262
932.24        74.76763
932.64        75.02328
933.03        75.50311
933.42         75.8968
933.82        75.74538
934.21        74.99516
934.60        73.76901
934.99        72.60611
935.39        72.30693
935.78        73.06165
936.17          74.687
936.56        76.50143
936.96        77.22815
937.35        76.56212
937.74        74.87154
938.13        73.00819
938.53        72.11373
938.92        72.37286
939.31        73.48798
939.70        74.88725
940.09        75.53188
940.49        75.12093
940.88        74.02869
941.27         72.8066
941.66        72.26411
942.05        72.59763
942.44         73.5445
942.84        74.70325
943.23        75.44653
943.62        75.49107
944.01         75.0753
944.40        74.47328
944.79        74.10635
945.18        74.10319
945.57         74.2837
945.97        74.55055
946.36        74.87535
946.75        75.16672
947.14        75.45934
947.53        75.63326
947.92         75.4529
948.31        74.90445
948.70        74.11072
949.09        73.28164
949.48        72.72177
949.87        72.54139
950.26        72.69193
950.65        73.16751
951.04        73.93076
951.43        74.87343
951.82        75.88978
952.21        76.85105
952.60        77.60821
952.99         78.0863
953.38        78.28831
953.77        78.08863
954.16        77.30991
954.55        76.04059
954.94        74.48845
955.33        73.01218
955.72        72.12541
956.11        71.94966
956.50         72.3044
956.89        73.08844
957.28        74.11739
957.66         75.2855
958.05        76.49809
958.44        77.39311
958.83        77.28196
959.22         76.1005
959.61        74.16613
960.00        72.11736
960.39        70.86204
960.78        70.60605
961.16         71.1184
961.55        72.14603
961.94         73.3466
962.33        74.50299
962.72        75.70706
963.11        76.64572
963.49        76.77547
963.88        75.97646
964.27        74.46752
964.66        72.78886
965.04        71.70843
965.43        71.37292
965.82        71.57977
966.21         72.1097
966.60        72.50739
966.98        72.60873
967.37        72.56512
967.76        72.39225
968.15        72.08144
968.53         71.6843
968.92        71.13813
969.31        70.66581
969.69        70.66843
970.08        71.14787
970.47        71.98651
970.86        72.81934
971.24        72.97997
971.63        72.24364
972.02        70.92068
972.40        69.32922
972.79        67.98018
973.17        67.08816
973.56        66.52424
973.95         66.3503
974.33        66.66816
974.72        67.38361
975.11        68.44431
975.49        69.68961
975.88        70.70712
976.26        71.36691
976.65         71.6794
977.04        71.53893
977.42        70.80127
977.81        69.54253
978.19        67.81234
978.58        66.47282
978.96         66.5824
979.35        68.30489
979.74        71.48717
980.12         75.2971
980.51        77.39645
980.89        77.21473
981.28        75.16198
981.66        72.51957
982.05        71.51289
982.43        72.65578
982.82        75.24536
983.20        78.40952
983.59        80.45173
983.97        80.93187
984.35        80.37131
984.74        79.06399
985.12        77.59565
985.51          76.218
985.89        74.68668
986.28        73.40927
986.66        72.90458
987.04        73.33613
987.43        74.60936
987.81        76.09586
988.20        76.45231
988.58        75.42499
988.96        73.26471
989.35        70.94041
989.73        70.00816
990.12        70.78944
990.50        72.88181
990.88        75.23776
991.27        76.14477
991.65        75.26604
992.03        73.17635
992.42        70.91061
992.80        69.81238
993.18        70.33025
993.56        71.94449
993.95        73.97004
994.33        75.56002
994.71        76.15965
995.10        76.09856
995.48        75.46177
995.86        74.36678
996.24        73.01588
996.63        71.38551
997.01        69.84711
997.39        68.95131
997.77        68.78988
998.15         69.3029
998.54        70.14458
998.92        70.63285
999.30        70.56358
999.68        70.12394
1000.06        69.64707
1000.45        69.70062
1000.83        70.55382
1001.21        71.86366
1001.59        73.33781
1001.97         74.5163
1002.35        75.15862
1002.73        75.36874
1003.12        75.07301
1003.50        74.11523
1003.88        72.66091
1004.26        70.92319
1004.64        69.24519
1005.02        68.08385
1005.40        67.56013
1005.78        67.55244
1006.16        68.09987
1006.54        69.19744
1006.92        70.68883
1007.30         72.4774
1007.69         74.0181
1008.07        74.70145
1008.45        74.30739
1008.83        73.02993
1009.21        71.35826
1009.59        70.16411
1009.97        69.76283
1010.35        69.97303
1010.73        70.68304
1011.11        71.63832
1011.49         72.7244
1011.86         74.2115
1012.24         75.7105
1012.62        76.94565
1013.00        77.78076
1013.38        78.12585
1013.76        78.24728
1014.14        78.78006
1014.52        79.84925
1014.90        81.23267
1015.28        82.36987
1015.66         82.2803
1016.04        80.89789
1016.41        78.81829
1016.79        76.69423
1017.17        74.87022
1017.55        73.22482
1017.93        71.37665
1018.31        69.40567
1018.69        68.13045
1019.06        68.07388
1019.44        69.02786
1019.82        69.98863
1020.20        69.98147
1020.58        68.95545
1020.95        66.92857
1021.33        64.62013
1021.71        63.86439
1022.09        65.59985
1022.46        69.26717
1022.84        73.29694
1023.22        75.72564
1023.60         76.0707
1023.97        74.89953
1024.35        72.83958
1024.73        71.09423
