SpectraSmart Spectrum 2.9.0.0
--------- Device Information -----------
Spectrum Name :  反射率_0
Saving Time :  2024/05/01 16:45:22
Spectro-Module Model Name : SE2030-DUVN
Spectro-Module Serial Number : OS361AC55029948
Wavelength Start : 200
Wavelength End : 1025
Wavelength Unit : Wavelength(nm)
Spectrum Unit : Reflectance(%)
-----------Spectrum Setting ------------
Integration Time : 20ms
Average : 10
Boxcar : 0
Background removal :  enabled
linearity correction :  enabled
SC :  disabled
Intensity correction :  disabled
DWT denoise :  enabled
savitzky-golay :  disabled
FFT :  disabled
Running average :  disabled
Kalman :  disabled
High pass :  disabled
---------------BEGIN--------------------
Wavelength(nm)             Reflectance(%)
200.29               0
200.75        178.5602
201.21        812.1865
201.67       -354.4484
202.13       -134.7595
202.58         -64.329
203.04       -23.00042
203.50        2.030854
203.96        12.14131
204.42        9.542995
204.88       -18.01662
205.34       -791.0186
205.80        136.9818
206.26        77.84813
206.72        29.04366
207.18       -150.1514
207.64        326.0035
208.10        146.4018
208.55        95.91621
209.01        69.16115
209.47         57.7977
209.93        55.80354
210.39        57.47502
210.85        60.63398
211.31         62.2394
211.77        57.43802
212.23        96.99036
212.69        80.51738
213.14        99.76392
213.60        179.3127
214.06       -698.5375
214.52       -89.03246
214.98       -45.44883
215.44       -28.81032
215.90       -10.94061
216.36        193.3856
216.81       -138.5992
217.27       -216.2273
217.73        469.0872
218.19        87.91929
218.65        45.66796
219.11        22.66035
219.57       -18.02302
220.02       -168.6131
220.48       -79.06275
220.94      -0.2939346
221.40        21.24631
221.86         31.4232
222.32        40.51345
222.77        52.30688
223.23        70.03119
223.69        91.67691
224.15        99.47275
224.61        88.14248
225.06         70.7347
225.52        59.05362
225.98        57.09985
226.44        63.65578
226.90        78.17536
227.36        98.12418
227.81        109.0281
228.27        104.4339
228.73        93.20625
229.19        83.96455
229.65        81.76884
230.10        86.04307
230.56        95.21831
231.02        106.8355
231.48        113.0421
231.93        110.1038
232.39        102.7807
232.85        94.73568
233.31        89.01124
233.77        85.91218
234.22        84.17073
234.68        83.62436
235.14        84.19014
235.60        85.84428
236.05        89.31789
236.51         94.5939
236.97        100.2846
237.43        104.1839
237.88         105.207
238.34        103.6472
238.80        102.2277
239.26        101.7271
239.71        102.0713
240.17        101.4257
240.63        96.20494
241.08        85.89716
241.54        74.99023
242.00        68.28101
242.46         67.4746
242.91        72.84184
243.37        85.45867
243.83        108.1584
244.28        127.5093
244.74        124.7781
245.20        111.6789
245.66        98.90468
246.11        88.43126
246.57         77.6859
247.03        62.21369
247.48        37.40238
247.94        6.325392
248.40       -17.18162
248.85       -27.90124
249.31        -21.6308
249.77       -3.337882
250.22        17.15083
250.68        35.48272
251.14        48.47218
251.59        55.08481
252.05        56.80836
252.51        53.33078
252.96         40.3641
253.42        23.10294
253.88        30.52334
254.33        51.15433
254.79        62.94288
255.25        67.19359
255.70        68.18003
256.16         68.8472
256.62         69.5961
257.07        70.55695
257.53        72.07748
257.99        73.51334
258.44        74.60704
258.90         75.8035
259.35        76.70893
259.81        77.66801
260.27        78.36506
260.72         78.4257
261.18        78.20937
261.63        77.56244
262.09        76.94386
262.55        76.31932
263.00        75.59633
263.46        74.95995
263.91        74.27101
264.37          73.828
264.83        73.52199
265.28        73.28158
265.74        73.06219
266.19        72.42078
266.65        71.48293
267.11        70.27763
267.56        69.13168
268.02        68.67955
268.47        68.94633
268.93        69.69305
269.38        70.45198
269.84        70.42825
270.30        69.46434
270.75        67.81729
271.21        65.92045
271.66        64.27417
272.12        63.10655
272.57        62.17286
273.03         61.4412
273.48        60.76509
273.94          60.133
274.39        59.56218
274.85        58.99254
275.31        58.18697
275.76        57.11539
276.22        55.92715
276.67        54.73964
277.13         53.9191
277.58        53.39825
278.04        53.11074
278.49        52.80974
278.95        52.30264
279.40        51.47221
279.86        50.49224
280.31        49.39071
280.77        48.36294
281.22        47.38422
281.68        46.51034
282.13        45.65894
282.59        44.86304
283.04        44.06945
283.50        43.34184
283.95        42.69377
284.41        42.23548
284.86         41.9381
285.32        41.77851
285.77         41.6418
286.22        41.43856
286.68        41.13696
287.13        40.73652
287.59        40.26378
288.04         39.7229
288.50        39.18382
288.95        38.61241
289.41        38.10729
289.86        37.69037
290.32        37.40108
290.77        37.20626
291.22        37.05598
291.68        36.85624
292.13         36.5771
292.59        36.26856
293.04        35.97438
293.50        35.82848
293.95        35.82974
294.40        35.94262
294.86        36.08996
295.31        36.16175
295.77        36.13012
296.22        36.02842
296.68        35.90531
297.13        35.80505
297.58        35.76177
298.04        35.77868
298.49        35.83834
298.95        35.96016
299.40        36.11603
299.85        36.28898
300.31         36.4909
300.76        36.72601
301.21        36.98311
301.67        37.25991
302.12        37.44476
302.58        37.40524
303.03        37.12027
303.48        36.67896
303.94         36.2697
304.39        36.08995
304.84        36.19633
305.30        36.50047
305.75        36.86942
306.20        37.12007
306.66        37.19896
307.11        37.13959
307.57        36.98619
308.02        36.74504
308.47        36.45667
308.93        36.12875
309.38        35.78344
309.83        35.51384
310.29        35.34715
310.74        35.25922
311.19        35.22447
311.65        35.18032
312.10        35.10006
312.55        35.00183
313.00        34.89829
313.46        34.81138
313.91        34.73553
314.36        34.64753
314.82        34.53447
315.27        34.39593
315.72        34.22361
316.18         34.0328
316.63        33.79647
317.08        33.47771
317.53        33.08019
317.99        32.62648
318.44        32.17696
318.89        31.84583
319.35         31.6644
319.80          31.602
320.25        31.59804
320.70        31.54643
321.16        31.40882
321.61        31.21966
322.06         31.0083
322.51        30.83143
322.97        30.69851
323.42        30.59407
323.87        30.49287
324.32        30.36892
324.78        30.20863
325.23        30.03808
325.68        29.85508
326.13        29.65927
326.59        29.44773
327.04        29.23368
327.49        29.02634
327.94        28.85315
328.39        28.71975
328.85         28.6111
329.30        28.52332
329.75        28.41408
330.20        28.27271
330.66        28.10252
331.11        27.92976
331.56        27.76732
332.01        27.62534
332.46        27.50135
332.92        27.38743
333.37        27.30337
333.82        27.24084
334.27        27.20213
334.72         27.1874
335.17         27.1968
335.63         27.2137
336.08        27.24198
336.53        27.26796
336.98        27.28541
337.43        27.29351
337.88        27.30567
338.34        27.28914
338.79        27.20907
339.24        27.06078
339.69        26.85316
340.14        26.68473
340.59        26.71054
341.05        26.94102
341.50          27.329
341.95        27.71483
342.40        27.84071
342.85        27.65385
343.30        27.24676
343.75        26.77494
344.20        26.48074
344.66        26.43447
345.11        26.55477
345.56        26.77293
346.01        26.96792
346.46        27.08805
346.91        27.16987
347.36        27.20858
347.81        27.19379
348.26         27.1336
348.72        27.03341
349.17        26.90098
349.62        26.79743
350.07          26.734
350.52        26.69092
350.97        26.65979
351.42        26.61932
351.87        26.56384
352.32        26.51637
352.77        26.43895
353.22        26.27351
353.67        26.02127
354.13        25.70223
354.58        25.40859
355.03        25.31674
355.48        25.45173
355.93        25.77234
356.38         26.1095
356.83        26.17755
357.28         25.9218
357.73        25.43883
358.18        24.94433
358.63        24.76002
359.08        24.94335
359.53        25.38146
359.98        25.88457
360.43         26.1335
360.88        26.03328
361.33        25.69115
361.78         25.2394
362.23        24.86856
362.68        24.63735
363.13        24.48805
363.58         24.3772
364.03        24.24349
364.48        24.06547
364.93        23.86791
365.38        23.68037
365.83        23.53601
366.28        23.43723
366.73        23.37114
367.18        23.28187
367.63        23.08546
368.08        22.77947
368.53        22.40383
368.98        22.04851
369.43        21.84501
369.88         21.8119
370.33        21.89659
370.78         22.0253
371.23        22.06749
371.68         21.9761
372.13        21.79695
372.58        21.54667
373.03        21.24638
373.48        20.92049
373.93        20.56814
374.38        20.25357
374.83        20.08745
375.28        20.09022
375.72        20.22465
376.17        20.41229
376.62        20.52404
377.07        20.51768
377.52         20.4174
377.97        20.25299
378.42        20.07712
378.87        19.91197
379.32        19.74937
379.77        19.57808
380.22        19.38123
380.67        19.16323
381.11        18.94312
381.56        18.76276
382.01         18.6887
382.46        18.73142
382.91        18.86539
383.36        19.02269
383.81        19.10262
384.26        19.07427
384.71        18.95187
385.15        18.78353
385.60        18.66809
386.05        18.62192
386.50        18.62558
386.95        18.61138
387.40        18.47747
387.85        18.21991
388.29        17.87151
388.74        17.56847
389.19        17.44118
389.64        17.50547
390.09        17.70394
390.54         17.9284
390.98         18.0042
391.43        17.89826
391.88        17.67777
392.33        17.42326
392.78        17.25516
393.23        17.20079
393.67        17.18736
394.12        17.20689
394.57        17.26566
395.02        17.32293
395.47        17.27498
395.91        17.15044
396.36        17.08423
396.81        17.09628
397.26         17.1146
397.71        17.11429
398.15        17.10224
398.60        17.09405
399.05        17.01715
399.50         16.9194
399.95        16.99269
400.39        17.18792
400.84        17.18587
401.29         16.9769
401.74        16.82347
402.18        16.73957
402.63         16.5616
403.08        16.34074
403.53        16.23012
403.97        16.24232
404.42         16.3357
404.87        16.44372
405.32        16.45939
405.76        16.35587
406.21        16.17571
406.66        15.97889
407.11        15.86146
407.55        15.85225
408.00        15.92062
408.45        16.02182
408.90        16.05502
409.34        16.00312
409.79         15.9354
410.24        15.87507
410.68         15.8165
411.13        15.77112
411.58         15.7458
412.03        15.73274
412.47        15.71391
412.92        15.68157
413.37        15.64462
413.81        15.60455
414.26        15.57488
414.71        15.55239
415.15        15.54127
415.60        15.52131
416.05        15.47886
416.49         15.4122
416.94        15.32471
417.39        15.24489
417.83        15.21662
418.28        15.24685
418.73        15.32116
419.17        15.39798
419.62        15.40345
420.07        15.32924
420.51        15.19884
420.96        15.07041
421.41        15.01042
421.85        15.02807
422.30         15.1029
422.74        15.20234
423.19        15.29382
423.64        15.35879
424.08        15.41366
424.53        15.43133
424.98        15.39085
425.42        15.29819
425.87        15.16964
426.31        15.03514
426.76         14.9535
427.21         14.9318
427.65        14.94752
428.10        15.00953
428.54        15.12395
428.99        15.27963
429.44        15.49319
429.88        15.65922
430.33        15.63104
430.77         15.4011
431.22        15.03462
431.66         14.6733
432.11        14.56433
432.56        14.70182
433.00        14.97972
433.45        15.20271
433.89        14.98917
434.34          14.352
434.78        14.27619
435.23        14.83034
435.67        15.01652
436.12        14.84181
436.57        14.84204
437.01        15.01909
437.46        15.08388
437.90        15.01765
438.35        14.92719
438.79        14.83339
439.24        14.72962
439.68        14.65551
440.13        14.71025
440.57        14.84469
441.02        14.91703
441.46        14.91048
441.91        14.80293
442.35        14.65225
442.80        14.79563
443.24        15.12158
443.69        15.03431
444.13        14.60688
444.58        14.46467
445.02        14.62128
445.47        14.74392
445.91        14.79424
446.36        14.86686
446.80        14.94516
447.24        15.00357
447.69        15.03041
448.13        15.00881
448.58        14.94273
449.02        14.84095
449.47        14.73744
449.91        14.67346
450.36        14.66415
450.80        14.69359
451.25        14.74222
451.69        14.76636
452.13        14.75502
452.58         14.7233
453.02        14.67499
453.47        14.62742
453.91        14.58506
454.36         14.5462
454.80        14.51244
455.24        14.48468
455.69        14.46627
456.13        14.44945
456.58        14.44609
457.02        14.45212
457.46        14.47006
457.91        14.50006
458.35         14.5231
458.79        14.48826
459.24         14.3993
459.68        14.30684
460.13        14.26869
460.57         14.0821
461.01        14.16573
461.46        14.19488
461.90        14.26537
462.34        14.26929
462.79         14.2732
463.23        14.22424
463.68        14.17348
464.12        14.16928
464.56        14.22044
465.01        14.32511
465.45         14.4161
465.89        14.42093
466.34        14.33485
466.78        14.17606
467.22        14.00218
467.67        13.93829
468.11        13.95389
468.55        14.06968
468.99        14.21553
469.44        14.30956
469.88        14.33176
470.32        14.30113
470.77        14.25098
471.21        14.23198
471.65        14.25693
472.10        14.30695
472.54        14.35048
472.98        14.35024
473.42        14.30137
473.87        14.23022
474.31        14.15132
474.75        14.10028
475.20         14.0899
475.64        14.09693
476.08        14.11698
476.52        14.17869
476.97        14.28337
477.41        14.35885
477.85        14.35203
478.29        14.58497
478.74        14.42435
479.18        14.35945
479.62        14.25649
480.06        14.28836
480.50        14.47196
480.95        14.48916
481.39        14.76945
481.83        14.80235
482.27        14.72625
482.72        14.58438
483.16        14.43313
483.60        14.37242
484.04         14.3933
484.48        14.46972
484.93        14.69569
485.37        14.93759
485.81        14.99808
486.25        15.86575
486.69        14.97392
487.14         14.6026
487.58        14.91654
488.02        15.16593
488.46        15.00933
488.90        14.94035
489.34        15.07045
489.79        14.86907
490.23        15.07569
490.67        15.29266
491.11        15.62107
491.55        15.64535
491.99        15.40209
492.43        15.32143
492.88        15.42722
493.32        15.45934
493.76        15.42381
494.20        15.47039
494.64        15.60965
495.08        15.78616
495.52        15.96628
495.96        16.15226
496.41        16.31291
496.85        16.31612
497.29        16.22288
497.73         16.3469
498.17        16.65267
498.61        16.74433
499.05        16.63272
499.49        16.65129
499.93        16.80881
500.37        16.91992
500.82        16.97072
501.26        17.02026
501.70        17.06829
502.14        17.10011
502.58        17.12066
503.02        17.13861
503.46        17.15794
503.90        17.18006
504.34        17.21153
504.78        17.25898
505.22        17.32294
505.66        17.40321
506.10        17.48511
506.54        17.54364
506.98         17.5731
507.42        17.57897
507.86        17.58057
508.30        17.60868
508.74        17.67035
509.18        17.75774
509.62        17.84919
510.06        17.90907
510.50        17.92799
510.94        17.91488
511.38        17.89444
511.82         17.9062
512.26        17.95761
512.70        18.03505
513.14        18.10893
513.58        18.13321
514.02        18.09937
514.46        18.02528
514.90         17.9412
515.34        17.89525
515.78        17.90115
516.22        17.94382
516.66        18.00404
517.10        18.05141
517.54        18.07561
517.98        18.08549
518.42         18.0863
518.86        18.08619
519.30        18.08764
519.74        18.08454
520.18        18.07578
520.62        18.06175
521.06        18.04259
521.50        18.02101
521.93        17.99701
522.37         17.9644
522.81        17.92681
523.25        17.88809
523.69        17.85453
524.13        17.83534
524.57        17.83161
525.01        17.83775
525.45        17.84946
525.89        17.86075
526.32        17.86692
526.76        17.86598
527.20        17.85129
527.64        17.81289
528.08        17.75175
528.52        17.67542
528.96        17.59397
529.40         17.5224
529.83        17.46469
530.27        17.42262
530.71        17.39727
531.15        17.39401
531.59        17.40932
532.03        17.43689
532.46        17.46116
532.90        17.46024
533.34        17.43133
533.78        17.37073
534.22        17.28837
534.66        17.22999
535.09        17.18612
535.53        17.09236
535.97        16.97695
536.41        16.94514
536.85        17.00503
537.28        17.10932
537.72        17.21723
538.16        17.28144
538.60         17.2865
539.04        17.24398
539.47        17.19148
539.91        17.19876
540.35         17.2748
540.79        17.40655
541.22        17.55121
541.66         17.6143
542.10        17.62665
542.54        17.57574
542.97        17.52114
543.41        17.54453
543.85        17.65844
544.29        17.83797
544.72        18.03223
545.16        18.17108
545.60        18.23572
546.04        18.24764
546.47        18.24917
546.91        18.31262
547.35        18.45332
547.79        18.63964
548.22        18.81842
548.66        18.95192
549.10        19.02967
549.53        18.98296
549.97        19.02054
550.41        19.08324
550.84        19.23476
551.28        19.45219
551.72        19.69246
552.15          19.867
552.59        19.96489
553.03        20.03649
553.46         20.0945
553.90        20.17013
554.34        20.27318
554.77        20.36082
555.21        20.40841
555.65        20.60051
556.08         20.5465
556.52        20.58132
556.96        20.60223
557.39        20.65006
557.83        20.73512
558.27        20.81486
558.70        20.88844
559.14        21.05691
559.57        21.12491
560.01        21.27603
560.45        21.40133
560.88        21.40275
561.32        21.32296
561.75        21.19448
562.19         21.0968
562.63        21.24172
563.06        21.54518
563.50        21.54656
563.93        21.28882
564.37        21.25635
564.80        21.45302
565.24        21.61547
565.68        21.70971
566.11        21.80987
566.55        21.91669
566.98        21.99988
567.42        22.09168
567.85        22.22732
568.29        22.41525
568.72         22.6277
569.16        22.85404
569.60        23.00587
570.03        23.05826
570.47        23.14368
570.90        23.26727
571.34        23.11639
571.77        23.28339
572.21        23.30762
572.64        23.40306
573.08        23.44719
573.51         23.8965
573.95        24.10972
574.38        23.81574
574.82         24.0807
575.25        24.12245
575.69        24.23812
576.12        24.20694
576.56        24.37914
576.99        24.72664
577.42        24.35597
577.86        24.53674
578.29        24.55851
578.73        24.62215
579.16        24.35088
579.60        24.01361
580.03        23.89405
580.47        24.20203
580.90        23.89043
581.33        24.24681
581.77        24.45995
582.20        24.29926
582.64        23.89261
583.07        23.75042
583.51        23.44841
583.94        23.30665
584.37          23.349
584.81        23.50248
585.24        23.43424
585.68        23.22092
586.11        22.90358
586.54        23.00727
586.98        22.95803
587.41        22.87177
587.85        22.86799
588.28        22.80106
588.71        22.41061
589.15        22.75716
589.58        22.52905
590.01        22.64069
590.45         22.6042
590.88        22.59586
591.31        22.58386
591.75        22.59163
592.18        22.54991
592.61        22.39112
593.05        22.90923
593.48         22.5705
593.91        22.67842
594.35        22.74493
594.78        22.84715
595.21        22.94926
595.65        22.96708
596.08        22.92124
596.51        23.12563
596.94        23.11523
597.38        23.31959
597.81        23.62074
598.24        23.61527
598.68        24.19589
599.11        24.25986
599.54        24.58632
599.97        24.71785
600.41        25.09945
600.84        25.33357
601.27        25.59842
601.70        25.97087
602.14         26.2885
602.57         26.5823
603.00        26.80361
603.43        26.99847
603.87        27.38569
604.30        27.68293
604.73        27.97959
605.16        28.34021
605.60        28.73721
606.03        29.11657
606.46        29.41039
606.89         29.6694
607.32        29.98372
607.76         30.2528
608.19        30.49859
608.62        30.98634
609.05         31.3058
609.48        31.57376
609.92        31.77455
610.35        31.80017
610.78        32.62589
611.21        32.96652
611.64        33.08751
612.07        33.40038
612.50        33.71402
612.94        33.89611
613.37        33.91254
613.80        34.47667
614.23        34.45436
614.66        34.92569
615.09        35.00677
615.52         35.1479
615.96        35.19669
616.39        35.66269
616.82         35.8303
617.25         36.2206
617.68        36.56638
618.11        36.72509
618.54        36.73243
618.97         36.8716
619.40        37.18351
619.84        37.37867
620.27        37.44345
620.70        37.73882
621.13        38.23522
621.56        37.96584
621.99        37.80746
622.42        37.94338
622.85         38.2226
623.28        38.19962
623.71        38.03861
624.14        38.40923
624.57        38.34257
625.00        38.43208
625.43        38.35838
625.86        38.23934
626.29        38.09301
626.72        37.89824
627.15        37.78296
627.58        37.64287
628.01         37.5042
628.44        37.34209
628.87        37.14669
629.30        36.94563
629.73        36.74166
630.16        36.50102
630.59        36.21629
631.02        35.90812
631.45        35.58637
631.88        35.25522
632.31        34.91922
632.74        34.57794
633.17        34.23454
633.60        33.89568
634.03        33.56915
634.46        33.22955
634.89        32.85521
635.32        32.50545
635.75         32.2009
636.18        31.57553
636.61        31.30145
637.04        30.90546
637.47        30.58836
637.89        30.31712
638.32        30.05361
638.75         29.7708
639.18         29.4608
639.61        29.02504
640.04        28.72012
640.47        28.42743
640.90        28.22484
641.33        28.08301
641.76        27.97015
642.18        27.87287
642.61        27.77861
643.04        27.63659
643.47        27.43496
643.90        27.54095
644.33         27.3673
644.76        27.34338
645.18        27.31552
645.61        27.42976
646.04        27.63914
646.47        27.71657
646.90        27.68419
647.33        27.76233
647.75        27.96596
648.18        28.17174
648.61        28.36285
649.04        28.57277
649.47        28.80495
649.89        29.05901
650.32        29.34965
650.75         29.7137
651.18        30.12837
651.61        30.59247
652.03        31.10528
652.46        31.51707
652.89        31.86509
653.32        32.39977
653.74        33.14795
654.17        33.57884
654.60        33.90562
655.03        34.38674
655.46        34.37318
655.88        35.45853
656.31        40.53184
656.74        40.74259
657.16        37.10636
657.59         36.2418
658.02        37.46614
658.45        37.83781
658.87        37.83201
659.30        38.08873
659.73        38.65436
660.15        39.02055
660.58        39.42407
661.01        39.53277
661.44         39.5502
661.86        39.92147
662.29        40.60102
662.72        40.93655
663.14        40.95639
663.57        41.26029
664.00        41.80636
664.42        42.10014
664.85        42.13606
665.27         42.1476
665.70        42.21795
666.13        42.38386
666.55        42.67573
666.98        43.07048
667.41        43.50268
667.83        43.86114
668.26         44.0969
668.69        44.23895
669.11        44.32573
669.54        44.43177
669.96        44.57203
670.39         44.7117
670.82        44.84958
671.24        44.94005
671.67         45.0168
672.09        45.22701
672.52        45.53172
672.94        45.69502
673.37        45.70613
673.80        45.68446
674.22        45.67935
674.65        45.69896
675.07        45.76824
675.50        45.88775
675.92         46.0596
676.35        46.22008
676.77        46.34798
677.20        46.67901
677.62        46.77517
678.05        46.91779
678.47         46.9776
678.90        46.98736
679.32        46.97652
679.75        47.01983
680.17        47.13513
680.60        47.29726
681.02        47.49628
681.45        47.70322
681.87        47.91184
682.30         48.1217
682.72        48.31666
683.15        48.44508
683.57        48.50714
684.00        48.51002
684.42        48.49818
684.85        48.55522
685.27        48.68444
685.70         48.8654
686.12        49.04353
686.54        49.13352
686.97        49.11813
687.39        49.08319
687.82        49.03685
688.24        48.92274
688.66        48.83449
689.09        48.87447
689.51        49.35695
689.94        49.64296
690.36        49.80259
690.78        50.04782
691.21        50.37986
691.63        50.61266
692.06        50.77898
692.48        51.12644
692.90         51.5774
693.33        51.79377
693.75        51.75175
694.17        51.58583
694.60        51.40875
695.02        51.34104
695.44        51.44036
695.87         51.5339
696.29        51.61861
696.71        51.57026
697.14        51.50395
697.56        51.88781
697.98        52.59021
698.41        52.95687
698.83        52.93279
699.25        52.86776
699.68        52.83033
700.10        52.83728
700.52        52.91938
700.94        53.03315
701.37        53.16472
701.79         53.3918
702.21        53.64337
702.64        53.78409
703.06        53.81558
703.48        53.79705
703.90        53.72586
704.33        53.90635
704.75        53.70428
705.17        53.79586
705.59        53.99674
706.01        54.28019
706.44        54.59153
706.86         54.8691
707.28        55.07527
707.70          55.221
708.12         55.3126
708.55        55.35265
708.97        55.34967
709.39        55.31301
709.81        55.26917
710.23        55.26867
710.66        55.32563
711.08        55.43994
711.50        55.58505
711.92         55.7277
712.34        55.85629
712.76        55.98011
713.19        56.08136
713.61        56.17139
714.03        56.23422
714.45        56.26685
714.87        56.29839
715.29         56.3768
715.71        56.51075
716.13        56.69085
716.56        56.85911
716.98        56.98634
717.40        57.03206
717.82        57.01309
718.24        56.97944
718.66        57.01265
719.08        57.13051
719.50        57.30736
719.92        57.49096
720.34        57.59674
720.76        57.60464
721.19        57.54387
721.61        57.46692
722.03        57.44872
722.45        57.51642
722.87        57.65522
723.29        57.83086
723.71        57.98472
724.13        58.09016
724.55         58.1627
724.97         58.2473
725.39        58.37212
725.81        58.53251
726.23        58.88866
726.65        59.03196
727.07        59.06841
727.49        58.88828
727.91        58.56001
728.33        58.22102
728.75        58.09318
729.17        58.23088
729.59         58.5625
730.01        58.97932
730.43        59.28989
730.85        59.43199
731.27         59.4605
731.69        59.39909
732.10        59.37092
732.52         59.4199
732.94        59.34779
733.36        59.14669
733.78        59.62208
734.20         59.4771
734.62        59.80077
735.04        60.10852
735.46        60.17851
735.88        60.04274
736.30        59.94945
736.72        59.96677
737.13         60.1587
737.55        60.40345
737.97        60.34596
738.39        59.94447
738.81        59.98178
739.23        60.41537
739.65        60.71212
740.06        60.76089
740.48        60.83745
740.90        60.90557
741.32        60.84955
741.74        60.69126
742.16        60.53307
742.57        60.40947
742.99        60.32087
743.41        60.31395
743.83        60.38214
744.25        60.55033
744.67        60.93946
745.08        61.44331
745.50        61.67886
745.92        61.59972
746.34        61.35586
746.75        61.03993
747.17        60.79576
747.59        60.66453
748.01        60.61631
748.42        60.65084
748.84        60.73886
749.26        60.87269
749.68        61.04979
750.09        61.23045
750.51        61.38518
750.93        61.48481
751.35        61.48866
751.76        61.43956
752.18        61.45041
752.60        61.54461
753.01        61.68932
753.43        61.83271
753.85        61.94328
754.27        62.01048
754.68        62.04863
755.10        62.08769
755.52        62.18276
755.93        62.35644
756.35        62.50941
756.77        62.58424
757.18        62.76281
757.60        63.10321
758.02        62.67754
758.43        62.86352
758.85        63.08793
759.26         62.6162
759.68        62.50986
760.10        62.51528
760.51        62.71789
760.93        62.98127
761.34        63.13069
761.76         63.3145
762.18        62.88055
762.59        62.19749
763.01        62.46764
763.42        63.59227
763.84        64.02303
764.26        63.65642
764.67        63.30437
765.09        63.14743
765.50        63.08595
765.92        63.13964
766.33        63.11517
766.75         62.9552
767.16        63.02267
767.58        63.29388
768.00        63.40911
768.41        63.47416
768.83        64.10328
769.24        65.06675
769.66         65.4054
770.07        65.09632
770.49        64.64939
770.90        64.27762
771.32        64.30116
771.73         64.6343
772.15        64.63232
772.56         64.2774
772.97        64.02503
773.39        63.95049
773.80        63.98006
774.22        64.09824
774.63         64.3723
775.05        64.68027
775.46        64.87833
775.88        64.89793
776.29        64.79758
776.70        64.64863
777.12        64.59953
777.53        64.70029
777.95        64.87516
778.36        65.06673
778.77        65.14546
779.19         65.0842
779.60        64.98724
780.02        64.87231
780.43        64.69029
780.84        64.55722
781.26        64.54784
781.67        64.63725
782.09        65.01391
782.50         65.5526
782.91        64.90067
783.33        64.68549
783.74        64.50606
784.15        64.84727
784.57        65.33163
784.98         65.9504
785.39        66.03579
785.81        66.65427
786.22        66.94135
786.63        67.14922
787.04        67.15337
787.46        67.00374
787.87        66.78152
788.28        66.61573
788.70        66.59241
789.11        66.71062
789.52        67.08266
789.93        67.51543
790.35        67.45205
790.76        66.94407
791.17        66.53146
791.58         66.3359
792.00        66.18002
792.41        66.12537
792.82        66.25024
793.23        66.49209
793.65        66.87094
794.06        67.22928
794.47        67.04731
794.88        66.51321
795.29        66.36152
795.71         66.5812
796.12        66.88447
796.53        67.13246
796.94        67.25079
797.35        67.17206
797.76        66.93848
798.18        66.68375
798.59        66.57418
799.00        66.66245
799.41        66.88974
799.82        67.18307
800.23        67.41919
800.64        67.54831
801.06        67.58694
801.47        67.57451
801.88        67.48577
802.29        67.33686
802.70        67.12964
803.11        66.92509
803.52        66.82647
803.93        66.86749
804.34        67.02666
804.75        67.25199
805.17        67.49611
805.58        67.77127
805.99        67.85741
806.40        67.78466
806.81        68.09834
807.22        68.58405
807.63        68.12358
808.04        66.95805
808.45        66.49667
808.86        66.87579
809.27         67.3581
809.68        67.75161
810.09        68.04198
810.50        68.14043
810.91        68.06706
811.32        67.89053
811.73        67.72659
812.14        67.63015
812.55        67.56648
812.96        67.58765
813.37        67.77962
813.78        68.13571
814.19        68.62384
814.60         69.1161
815.01         69.4129
815.42         69.4684
815.83        69.32637
816.24        69.06506
816.65        68.85076
817.05        68.75796
817.46        68.72468
817.87        68.74271
818.28        68.75378
818.69         68.7336
819.10        68.70029
819.51        68.66719
819.92        68.64704
820.33        68.64246
820.74        68.64917
821.14        68.62132
821.55        68.52032
821.96        68.33629
822.37        68.09995
822.78        67.90186
823.19        67.89748
823.60        68.13122
824.00        68.57568
824.41        69.09186
824.82         69.5508
825.23         69.8803
825.64        70.08082
826.04        70.19174
826.45         70.2186
826.86        70.19931
827.27        70.13342
827.68        69.96299
828.08        69.61771
828.49        69.07922
828.90        68.41071
829.31        67.80601
829.72         67.5517
830.12         67.7419
830.53        68.27767
830.94        68.92532
831.35        69.21059
831.75        69.02098
832.16        68.44414
832.57        67.83374
832.97        67.72584
833.38        68.21185
833.79        69.10913
834.20        70.08486
834.60        70.57555
835.01         70.4031
835.42        69.79164
835.82        68.99656
836.23        68.40124
836.64        68.13797
837.04         68.0946
837.45        68.21841
837.86        68.48529
838.26        68.85207
838.67        69.30063
839.08        69.71319
839.48        69.85511
839.89        69.67625
840.29        69.25145
840.70         68.7434
841.11        68.38725
841.51        68.27467
841.92        68.31638
842.33        68.51577
842.73        68.87738
843.14        69.31448
843.54        69.86676
843.95        70.36995
844.35        70.61623
844.76        70.52734
845.17        70.15826
845.57        69.67149
845.98        69.32552
846.38         69.2114
846.79         69.2453
847.19        69.35231
847.60        69.31727
848.00        69.11094
848.41        68.80088
848.81        68.48708
849.22        68.28944
849.62        68.26318
850.03           68.34
850.43        68.49822
850.84        68.57467
851.24        68.59166
851.65         68.5576
852.05        68.58159
852.46         68.7893
852.86        69.15961
853.27        69.61826
853.67        70.03255
854.07        70.40598
854.48        70.66387
854.88          70.913
855.29        70.93918
855.69        70.63863
856.10        69.92824
856.50        68.96858
856.90        68.05405
857.31        67.60746
857.71        67.70105
858.12        68.16679
858.52         68.8455
858.92         69.2183
859.33        69.10079
859.73        68.69149
860.13        68.07037
860.54        67.39995
860.94        66.77386
861.34        66.13097
861.75        65.62923
862.15        65.58945
862.55        66.03982
862.96        66.88461
863.36        67.83741
863.76        68.33279
864.17        68.22873
864.57        67.68162
864.97         66.9696
865.38        66.57649
865.78        66.66164
866.18        67.05407
866.58        67.54716
866.99        67.77423
867.39        67.65508
867.79        67.33843
868.19        66.92561
868.60        66.51109
869.00        66.14471
869.40        65.78909
869.80        65.57703
870.21         65.7555
870.61         66.3866
871.01         67.3121
871.41        68.21777
871.81        68.63427
872.22         68.4556
872.62         67.8227
873.02        66.95267
873.42        66.22216
873.82        65.78687
874.22         65.5759
874.63        65.55184
875.03        65.63786
875.43        65.80178
875.83        66.08392
876.23        66.47668
876.63        66.95136
877.03        67.47215
877.44        67.97229
877.84        68.41976
878.24        68.73118
878.64        68.87191
879.04        68.85986
879.44        68.70592
879.84        68.43263
880.24        68.07574
880.64        67.66026
881.04        67.27375
881.44        67.03719
881.84        66.99036
882.24        67.12615
882.65        67.34596
883.05        67.56439
883.45        67.68572
883.85        67.70841
884.25        67.71681
884.65         67.8494
885.05        68.12605
885.45        68.51259
885.85        68.83602
886.25         68.8095
886.65        68.38863
887.05         67.6784
887.45        66.97242
887.85        66.72189
888.25        67.02113
888.65        67.72984
889.04        68.55575
889.44        68.99374
889.84        68.91525
890.24        68.45796
890.64        67.86055
891.04        67.46742
891.44        67.37243
891.84         67.4982
892.24        67.65858
892.64        67.55122
893.04        67.12743
893.44        66.50221
893.83        65.96893
894.23        65.97124
894.63         66.5575
895.03        67.58731
895.43        68.68395
895.83        69.16249
896.23         68.8513
896.63        68.00539
897.02        66.98839
897.42        66.43714
897.82        66.43517
898.22        66.82876
898.62        67.44084
899.01        67.99372
899.41        68.32016
899.81        68.52681
900.21        68.70061
900.61        68.97934
901.00        69.38047
901.40        69.79709
901.80        70.09925
902.20        70.11125
902.59        69.81526
902.99        69.29717
903.39        68.69449
903.79        68.22111
904.18         67.9345
904.58         67.7905
904.98        67.75521
905.38        67.77872
905.77        67.83008
906.17        67.96979
906.57        68.08826
906.96        68.01359
907.36        67.72057
907.76        67.26427
908.15        66.91065
908.55        67.05278
908.95        67.76791
909.34        68.91786
909.74        70.12994
910.14        70.87412
910.53        70.98087
910.93        70.59522
911.33        69.94414
911.72        69.39411
912.12        69.08945
912.52        68.92655
912.91        68.79636
913.31        68.51924
913.70        68.07378
914.10        67.56634
914.49        67.14167
914.89         66.9744
915.29        67.10241
915.68        67.44791
916.08        67.89138
916.47        68.25236
916.87          68.463
917.26        68.57965
917.66        68.63332
918.05        68.67831
918.45        68.73322
918.84        68.79662
919.24        68.89826
919.64        69.16765
920.03        69.61473
920.42        70.16145
920.82        70.66731
921.21        70.95155
921.61        70.93576
922.00        70.67031
922.40        70.20777
922.79        69.73717
923.19        69.33341
923.58        68.99149
923.98        68.65978
924.37        68.18645
924.77        67.59436
925.16        66.94595
925.55        66.42421
925.95        66.29794
926.34        66.64962
926.74        67.33715
927.13         68.2542
927.52         69.1402
927.92        69.86858
928.31        70.48562
928.70        70.92549
929.10        71.12825
929.49        71.11164
929.89        70.86608
930.28        70.49474
930.67        70.14246
931.07        69.85666
931.46        69.62009
931.85         69.4403
932.24        69.31113
932.64        69.22401
933.03        69.24303
933.42        69.24675
933.82         69.0547
934.21        68.65137
934.60        68.06576
934.99        67.57623
935.39        67.58183
935.78        68.17783
936.17        69.28152
936.56        70.46252
936.96        70.92881
937.35        70.51559
937.74        69.41892
938.13         68.2216
938.53        67.71214
938.92        67.99675
939.31        68.87984
939.70        69.91604
940.09         70.2931
940.49        69.79311
940.88        68.72025
941.27        67.52382
941.66        66.86073
942.05        66.89398
942.44         67.4216
942.84        68.16444
943.23         68.6917
943.62        68.79697
944.01        68.65649
944.40        68.41772
944.79        68.30479
945.18        68.38709
945.57          68.534
945.97        68.72957
946.36        69.07483
946.75        69.51661
947.14        70.05484
947.53        70.49413
947.92        70.47363
948.31        69.93895
948.70        69.03442
949.09        68.07404
949.48        67.52473
949.87        67.51324
950.26        67.93119
950.65         68.6068
951.04        69.21967
951.43        69.61928
951.82        69.83863
952.21        69.94839
952.60         70.0803
952.99         70.2372
953.38         70.3391
953.77        70.23172
954.16         69.6701
954.55        68.68902
954.94        67.52217
955.33        66.40579
955.72        65.66826
956.11        65.39861
956.50        65.42441
956.89        65.83642
957.28        66.78586
957.66        68.23354
958.05        70.01708
958.44        71.49296
958.83         71.4618
959.22         69.7516
959.61        66.88324
960.00        63.86549
960.39        62.11897
960.78        61.95841
961.16         63.0014
961.55        64.75755
961.94        66.47354
962.33        67.79629
962.72        68.92922
963.11        69.72225
963.49         69.9205
963.88        69.47734
964.27        68.46389
964.66        67.26122
965.04        66.45396
965.43        66.15305
965.82        66.22807
966.21        66.54116
966.60        66.77695
966.98        66.82292
967.37        66.79151
967.76        66.64884
968.15        66.30996
968.53        65.80541
968.92         65.1187
969.31        64.49856
969.69        64.36402
970.08        64.74805
970.47        65.55095
970.86        66.42787
971.24        66.74897
971.63        66.28334
972.02        65.26763
972.40        64.05036
972.79        63.18961
973.17         62.8759
973.56        62.96976
973.95        63.30687
974.33        63.64599
974.72        63.85188
975.11        63.93641
975.49        64.14207
975.88        64.86266
976.26        66.18553
976.65        67.88486
977.04        69.24802
977.42        69.16084
977.81        67.47868
978.19        64.58082
978.58        61.79821
978.96        60.86539
979.35        62.13115
979.74        65.23907
980.12         69.1684
980.51        71.25539
980.89        70.79488
981.28        68.36985
981.66        65.37347
982.05        64.17344
982.43        65.32061
982.82        68.02891
983.20        71.37934
983.59        73.64127
983.97        74.32846
984.35        73.97081
984.74        72.82031
985.12        71.38702
985.51        69.93605
985.89        68.28168
986.28        66.89651
986.66        66.40463
987.04         67.0065
987.43        68.55322
987.81        70.45906
988.20        71.46255
988.58        71.23967
988.96        69.94739
989.35        68.27982
989.73        67.37411
990.12        67.48081
990.50        68.36056
990.88        69.22012
991.27        68.78909
991.65        66.93722
992.03        64.17525
992.42        61.56315
992.80        60.45198
993.18        61.23836
993.56        63.40758
993.95        66.11501
994.33        68.17387
994.71        68.92126
995.10        68.74332
995.48        67.82832
995.86        66.52446
996.24        65.13244
996.63        63.56547
997.01        62.21537
997.39        61.67042
997.77        61.98996
998.15         63.0695
998.54         64.4931
998.92          65.404
999.30        65.52493
999.68        65.10587
1000.06        64.37391
1000.45        63.74268
1000.83        63.51444
1001.21        63.42443
1001.59        63.64951
1001.97        64.51108
1002.35        65.95512
1002.73         67.8764
1003.12        69.60847
1003.50        69.98508
1003.88        68.87138
1004.26        66.73594
1004.64        64.35612
1005.02        62.85085
1005.40        62.52294
1005.78        63.06938
1006.16        64.24413
1006.54        65.56584
1006.92        66.72272
1007.30        67.74461
1007.69        68.46832
1008.07        68.86484
1008.45        68.84928
1008.83        68.48579
1009.21        67.69288
1009.59        66.40599
1009.97        64.73717
1010.35        62.74392
1010.73        61.15317
1011.11        61.16619
1011.49        63.12317
1011.86        67.04488
1012.24        71.58382
1012.62        74.52319
1013.00        75.01714
1013.38        73.31416
1013.76        70.93302
1014.14        70.85558
1014.52        73.90775
1014.90        79.18587
1015.28        84.55089
1015.66        86.13582
1016.04        83.29383
1016.41        78.01086
1016.79         72.5892
1017.17         68.8828
1017.55        66.95303
1017.93        66.05577
1018.31        65.99783
1018.69          66.356
1019.06        66.78358
1019.44        67.51059
1019.82        68.21999
1020.20        68.62871
1020.58        68.82485
1020.95        68.71487
1021.33         68.6711
1021.71        69.38517
1022.09           70.98
1022.46        73.00629
1022.84        74.78259
1023.22        75.68639
1023.60        75.55948
1023.97        74.78758
1024.35        73.09474
1024.73        70.13986
