SpectraSmart Spectrum 2.9.0.0
--------- Device Information -----------
Spectrum Name :  反射率_0
Saving Time :  2024/05/01 17:01:11
Spectro-Module Model Name : SE2030-DUVN
Spectro-Module Serial Number : OS361AC55029948
Wavelength Start : 200
Wavelength End : 1025
Wavelength Unit : Wavelength(nm)
Spectrum Unit : Reflectance(%)
-----------Spectrum Setting ------------
Integration Time : 20ms
Average : 10
Boxcar : 0
Background removal :  enabled
linearity correction :  enabled
SC :  disabled
Intensity correction :  disabled
DWT denoise :  enabled
savitzky-golay :  disabled
FFT :  disabled
Running average :  disabled
Kalman :  disabled
High pass :  disabled
---------------BEGIN--------------------
Wavelength(nm)             Reflectance(%)
200.29               0
200.75        197.7184
201.21        730.0026
201.67       -272.0301
202.13       -88.48316
202.58       -31.78158
203.04        0.404064
203.50        19.04273
203.96        25.09831
204.42         19.3556
204.88       -13.15863
205.34       -889.7186
205.80        165.8223
206.26        105.0218
206.72        66.76073
207.18       -48.51487
207.64        242.5357
208.10        127.7762
208.55        95.06528
209.01        73.07412
209.47        52.87367
209.93        32.14157
210.39        7.302812
210.85       -20.38947
211.31       -53.16342
211.77        -131.718
212.23        416.2394
212.69        80.74432
213.14        69.55048
213.60        136.7798
214.06       -702.7307
214.52       -127.3009
214.98       -92.59305
215.44       -90.69511
215.90        -120.141
216.36       -634.6484
216.81        130.5692
217.27        93.57527
217.73       -116.9623
218.19       -22.12608
218.65       -25.42303
219.11        -48.7344
219.57       -129.7046
220.02       -471.0913
220.48       -248.9524
220.94       -68.13318
221.40       -20.84304
221.86       -2.744607
222.32        7.007573
222.77        15.37135
223.23        25.93051
223.69        38.20742
224.15         43.0394
224.61        37.56886
225.06        28.45479
225.52        22.45647
225.98        22.39039
226.44        27.66817
226.90        38.07035
227.36        51.62078
227.81        57.93178
228.27        52.97212
228.73        43.55406
229.19        35.61277
229.65        32.11098
230.10        32.41591
230.56        35.55521
231.02        40.51466
231.48        44.07362
231.93        44.44292
232.39        43.22482
232.85        41.93825
233.31        42.04667
233.77        43.48743
234.22         45.4481
234.68        47.42488
235.14        49.08579
235.60        50.45114
236.05        51.95201
236.51        53.56221
236.97        54.78684
237.43        54.93881
237.88        53.73313
238.34         51.4784
238.80        49.23784
239.26        46.96509
239.71         44.3532
240.17        40.39622
240.63        34.08805
241.08        27.29624
241.54        23.08104
242.00        21.90769
242.46        22.79834
242.91        25.85943
243.37         31.0938
243.83        42.48032
244.28        61.37592
244.74        73.82774
245.20        77.17645
245.66        74.78305
246.11        68.21029
246.57        56.87389
247.03        36.91683
247.48        3.511784
247.94       -34.89782
248.40       -58.05195
248.85       -62.58493
249.31       -48.37199
249.77         -25.343
250.22       -3.586233
250.68         14.6073
251.14        26.73495
251.59         31.6748
252.05        30.47652
252.51        20.79408
252.96        -6.00575
253.42       -39.94781
253.88       -23.98461
254.33        19.04452
254.79        42.51364
255.25        50.19704
255.70        51.30627
256.16        50.82337
256.62        50.39188
257.07        50.97623
257.53        52.54182
257.99        54.12366
258.44        55.26191
258.90        56.03357
259.35         56.2107
259.81        56.25346
260.27        56.04671
260.72        55.48534
261.18         54.9012
261.63        54.10965
262.09        53.43375
262.55        52.86248
263.00        52.29112
263.46        51.80797
263.91        51.24418
264.37        50.69073
264.83        50.09015
265.28        49.46451
265.74        48.84473
266.19        48.00837
266.65        47.07024
267.11        46.01711
267.56        45.08977
268.02        44.76178
268.47         45.0362
268.93        45.71907
269.38         46.4188
269.84        46.44745
270.30         45.6749
270.75        44.31926
271.21        42.74722
271.66        41.39298
272.12        40.45848
272.57          39.749
273.03        39.24738
273.48        38.86255
273.94        38.56388
274.39        38.35505
274.85        38.15034
275.31        37.73617
275.76        37.08517
276.22        36.31564
276.67        35.52019
277.13        34.95876
277.58        34.60292
278.04        34.41077
278.49        34.25121
278.95        34.05207
279.40        33.72747
279.86        33.36132
280.31        32.91231
280.77         32.4284
281.22        31.87654
281.68        31.31503
282.13        30.72505
282.59        30.18173
283.04         29.6652
283.50        29.21175
283.95        28.80787
284.41        28.49216
284.86        28.24819
285.32        28.07941
285.77        27.95957
286.22        27.88983
286.68        27.86005
287.13        27.84674
287.59        27.81143
288.04        27.65363
288.50        27.39485
288.95        27.02927
289.41        26.68802
289.86        26.47782
290.32         26.4402
290.77        26.52767
291.22        26.64238
291.68        26.62179
292.13        26.44297
292.59        26.20077
293.04        25.99828
293.50        26.04793
293.95        26.37014
294.40        26.88553
294.86        27.50498
295.31         28.1027
295.77        28.61259
296.22        29.05719
296.68         29.3996
297.13        29.56823
297.58        29.59149
298.04        29.52426
298.49        29.46201
298.95        29.59925
299.40        29.95937
299.85        30.47422
300.31        31.09768
300.76         31.7515
301.21        32.39085
301.67        33.03684
302.12        33.56811
302.58        33.82617
303.03        33.78577
303.48        33.53282
303.94        33.27695
304.39        33.26434
304.84        33.56432
305.30        34.08125
305.75        34.67662
306.20        35.14821
306.66        35.43496
307.11        35.58035
307.57        35.62325
308.02        35.56535
308.47        35.44582
308.93        35.26566
309.38        35.06098
309.83        34.94831
310.29        34.95364
310.74        35.04484
311.19        35.16159
311.65        35.18754
312.10        35.09074
312.55        34.91174
313.00        34.71364
313.46        34.59576
313.91        34.57533
314.36        34.61367
314.82        34.66005
315.27        34.64815
315.72        34.55036
316.18        34.39819
316.63        34.20054
317.08        33.97734
317.53        33.74049
317.99        33.48854
318.44        33.23446
318.89        33.01573
319.35        32.84554
319.80        32.72118
320.25          32.629
320.70        32.53742
321.16        32.43108
321.61        32.32425
322.06        32.22379
322.51        32.14733
322.97        32.09072
323.42        32.05454
323.87         32.0159
324.32         31.9518
324.78        31.84812
325.23        31.71869
325.68        31.57028
326.13        31.42264
326.59        31.27338
327.04        31.13457
327.49        30.98238
327.94        30.78751
328.39        30.54766
328.85        30.26694
329.30        30.00106
329.75        29.80609
330.20        29.69982
330.66        29.65963
331.11        29.65763
331.56        29.61089
332.01        29.49656
332.46        29.33362
332.92        29.14721
333.37        29.01619
333.82        28.95115
334.27        28.93838
334.72        28.95094
335.17        28.94467
335.63        28.89541
336.08        28.82945
336.53        28.77392
336.98        28.78552
337.43        28.87289
337.88         29.0196
338.34        29.15096
338.79        29.16373
339.24        29.02937
339.69        28.78292
340.14         28.5278
340.59        28.42804
341.05        28.51156
341.50        28.73229
341.95        28.98489
342.40        29.09842
342.85        29.03182
343.30        28.85102
343.75         28.6333
344.20        28.49595
344.66        28.47807
345.11        28.53107
345.56        28.64589
346.01        28.80255
346.46         28.9796
346.91        29.18296
347.36        29.36353
347.81        29.44778
348.26        29.42475
348.72        29.31363
349.17         29.1619
349.62        29.09041
350.07        29.12155
350.52        29.22201
350.97        29.31355
351.42        29.26385
351.87        29.05618
352.32        28.75757
352.77        28.44462
353.22        28.23325
353.67        28.14981
354.13         28.1455
354.58        28.19466
355.03        28.29692
355.48        28.43135
355.93        28.61267
356.38        28.73287
356.83        28.61159
357.28        28.23779
357.73        27.67838
358.18           27.14
358.63        26.93217
359.08        27.10154
359.53        27.54256
359.98        28.05807
360.43        28.30751
360.88         28.1919
361.33        27.82775
361.78        27.34149
362.23        26.91749
362.68        26.62006
363.13        26.39214
363.58        26.23031
364.03        26.13894
364.48        26.10023
364.93        26.10971
365.38        26.12806
365.83        26.08286
366.28        25.95222
366.73        25.75488
367.18         25.4845
367.63         25.1433
368.08        24.75993
368.53        24.35274
368.98        23.99602
369.43        23.79367
369.88        23.75764
370.33        23.85526
370.78         24.0132
371.23        24.09537
371.68        24.05227
372.13         23.9173
372.58         23.7231
373.03        23.52327
373.48        23.33902
373.93        23.15268
374.38        22.97429
374.83         22.8277
375.28        22.71665
375.72        22.63502
376.17        22.57015
376.62        22.49031
377.07         22.3823
377.52        22.25038
377.97        22.08937
378.42        21.89308
378.87        21.67113
379.32         21.4385
379.77         21.2143
380.22        21.02497
380.67        20.88106
381.11         20.7797
381.56        20.73019
382.01         20.7496
382.46        20.83196
382.91        20.96445
383.36        21.09742
383.81        21.16047
384.26        21.13089
384.71        21.01081
385.15        20.84054
385.60        20.70926
386.05         20.6299
386.50        20.59054
386.95        20.52459
387.40        20.32912
387.85        20.00562
388.29        19.59246
388.74         19.2348
389.19        19.07112
389.64        19.11917
390.09        19.31697
390.54        19.55841
390.98        19.67134
391.43        19.61692
391.88        19.45387
392.33        19.24648
392.78        19.09381
393.23         19.0231
393.67        18.97117
394.12        18.94331
394.57        18.96769
395.02         19.0084
395.47        18.94445
395.91        18.81891
396.36        18.79848
396.81        18.90088
397.26        19.03756
397.71        19.14515
398.15        19.17777
398.60        19.14549
399.05        18.98651
399.50        18.78972
399.95        18.81757
400.39        19.02657
400.84        19.05046
401.29        18.86006
401.74        18.71324
402.18        18.61599
402.63        18.39902
403.08        18.13241
403.53        18.00414
403.97        18.03294
404.42        18.16436
404.87        18.31787
405.32        18.36719
405.76        18.27752
406.21        18.09539
406.66        17.88845
407.11        17.76365
407.55         17.7548
408.00         17.8326
408.45        17.93989
408.90        17.95309
409.34         17.8547
409.79        17.72487
410.24        17.61937
410.68        17.57626
411.13         17.6122
411.58        17.72305
412.03        17.84899
412.47        17.87837
412.92        17.78222
413.37        17.60307
413.81        17.40866
414.26        17.31237
414.71        17.33313
415.15        17.44542
415.60        17.58313
416.05         17.6544
416.49        17.63048
416.94        17.53701
417.39         17.4286
417.83        17.39029
418.28        17.44112
418.73        17.55003
419.17        17.66071
419.62         17.6795
420.07        17.59468
420.51        17.44294
420.96        17.29516
421.41        17.23168
421.85        17.26582
422.30        17.37249
422.74        17.51597
423.19        17.66373
423.64        17.79314
424.08        17.91876
424.53        18.00383
424.98        18.01236
425.42        17.94477
425.87        17.82013
426.31        17.67146
426.76        17.56373
427.21        17.50961
427.65        17.48797
428.10        17.52152
428.54          17.637
428.99        17.82799
429.44        18.10646
429.88        18.34594
430.33        18.37162
430.77        18.17257
431.22        17.82734
431.66         17.4901
432.11        17.43794
432.56        17.66111
433.00        18.00671
433.45        18.26454
433.89        18.08674
434.34        17.45505
434.78        17.40937
435.23        18.03696
435.67        18.23293
436.12        18.01216
436.57        17.96214
437.01        18.09406
437.46        18.11002
437.90        18.00138
438.35        17.88679
438.79        17.79607
439.24        17.72656
439.68         17.7187
440.13        17.88577
440.57        18.15503
441.02        18.31885
441.46        18.34336
441.91        18.23762
442.35        18.06579
442.80        18.17337
443.24        18.45493
443.69        18.32543
444.13        17.87016
444.58        17.71671
445.02        17.88026
445.47        18.04148
445.91        18.13934
446.36        18.22698
446.80        18.28213
447.24        18.28947
447.69        18.27659
448.13        18.28827
448.58        18.33609
449.02        18.40232
449.47        18.46704
449.91        18.48642
450.36        18.45817
450.80        18.39352
451.25        18.32007
451.69        18.26671
452.13        18.24394
452.58        18.24541
453.02        18.24966
453.47        18.23507
453.91        18.19515
454.36        18.14688
454.80        18.10194
455.24         18.0757
455.69        18.07602
456.13        18.08158
456.58         18.1071
457.02        18.15172
457.46        18.21501
457.91        18.29613
458.35        18.35668
458.79         18.3092
459.24        18.15736
459.68         17.9786
460.13        17.86445
460.57        17.59313
461.01         17.6939
461.46        17.75148
461.90         17.8765
462.34        17.92107
462.79        17.96124
463.23        17.93492
463.68        17.89627
464.12        17.89047
464.56        17.92921
465.01        18.01877
465.45         18.0942
465.89         18.0946
466.34        18.01881
466.78        17.88206
467.22        17.74287
467.67        17.73283
468.11        17.80133
468.55        17.97655
468.99        18.17501
469.44        18.30301
469.88        18.33766
470.32        18.30198
470.77        18.23001
471.21          18.176
471.65        18.15949
472.10        18.16798
472.54        18.18362
472.98        18.19069
473.42        18.18596
473.87        18.18564
474.31        18.19096
474.75        18.21957
475.20        18.27754
475.64        18.34507
476.08        18.40396
476.52        18.47471
476.97        18.56044
477.41        18.56633
477.85        18.46902
478.29        18.75359
478.74        18.61703
479.18        18.67467
479.62        18.68494
480.06        18.75924
480.50        18.90572
480.95        18.75435
481.39        18.94802
481.83        18.95809
482.27        18.98303
482.72        19.02149
483.16        19.07371
483.60        19.14877
484.04        19.21888
484.48        19.27033
484.93        19.40991
485.37        19.58319
485.81        19.65121
486.25        20.23748
486.69         19.4534
487.14        19.04292
487.58        19.64239
488.02        20.07126
488.46         19.8077
488.90        19.75656
489.34        20.08407
489.79        20.02536
490.23        20.47993
490.67        20.66884
491.11        20.81932
491.55        20.85159
491.99        20.80915
492.43        20.83716
492.88        20.94481
493.32        21.04352
493.76         21.1278
494.20        21.25246
494.64        21.42363
495.08        21.60779
495.52        21.77612
495.96        21.95899
496.41        22.12734
496.85        22.09949
497.29        21.96305
497.73        22.13332
498.17        22.56893
498.61         22.7731
499.05        22.73058
499.49        22.81194
499.93        23.01886
500.37        23.13219
500.82        23.15503
501.26          23.198
501.70        23.27158
502.14        23.34773
502.58        23.42273
503.02        23.49152
503.46        23.55423
503.90        23.61907
504.34        23.69725
504.78         23.8007
505.22        23.92969
505.66        24.07821
506.10        24.22483
506.54        24.33512
506.98        24.40008
507.42        24.42866
507.86        24.44168
508.30        24.47246
508.74        24.53133
509.18        24.61113
509.62        24.69834
510.06        24.77007
510.50        24.81951
510.94        24.85291
511.38        24.88363
511.82         24.9322
512.26         25.0008
512.70        25.07965
513.14        25.14927
513.58        25.18068
514.02        25.16894
514.46        25.12606
514.90        25.07132
515.34        25.03553
515.78        25.02907
516.22         25.0442
516.66        25.07363
517.10        25.10453
517.54        25.13186
517.98        25.16017
518.42        25.18745
518.86        25.20937
519.30        25.22465
519.74        25.23069
520.18        25.23143
520.62         25.2356
521.06        25.24373
521.50        25.25235
521.93        25.25506
522.37         25.2359
522.81        25.19561
523.25        25.14205
523.69        25.08303
524.13         25.0292
524.57        24.98661
525.01        24.95432
525.45        24.93472
525.89        24.93202
526.32        24.94257
526.76        24.95767
527.20         24.9713
527.64        24.97373
528.08        24.96122
528.52        24.94118
528.96        24.89959
529.40        24.81589
529.83        24.69007
530.27        24.53533
530.71        24.39561
531.15        24.34549
531.59        24.39575
532.03        24.52235
532.46        24.65635
532.90        24.69139
533.34        24.60621
533.78        24.41817
534.22        24.19645
534.66        24.08775
535.09        24.09325
535.53        24.09434
535.97        24.06753
536.41         24.0639
536.85        24.07521
537.28        24.06667
537.72        24.04792
538.16        24.05663
538.60        24.09591
539.04        24.14788
539.47         24.2072
539.91        24.28277
540.35        24.36674
540.79        24.47129
541.22        24.58021
541.66        24.62993
542.10        24.68063
542.54        24.68934
542.97        24.70661
543.41        24.79725
543.85        24.96546
544.29        25.19218
544.72        25.42655
545.16        25.60222
545.60        25.69986
546.04        25.73808
546.47        25.76039
546.91        25.84267
547.35        26.00301
547.79        26.21033
548.22        26.40671
548.66        26.56232
549.10        26.66859
549.53        26.62319
549.97        26.71116
550.41        26.83608
550.84        27.07651
551.28        27.41781
551.72        27.80458
552.15        28.06576
552.59        28.17436
553.03        28.41546
553.46        28.43084
553.90        28.55683
554.34        28.69893
554.77        28.81015
555.21        28.86065
555.65        29.12671
556.08        29.06047
556.52        29.12386
556.96         29.1698
557.39        29.25282
557.83        29.38487
558.27        29.50949
558.70        29.61091
559.14        29.80918
559.57        29.83009
560.01        29.94386
560.45        30.03347
560.88        30.01667
561.32        29.96164
561.75        29.89411
562.19         29.8883
562.63        30.18811
563.06        30.66073
563.50        30.65686
563.93        30.26315
564.37         30.2299
564.80        30.56096
565.24        30.81531
565.68        30.94144
566.11        31.08475
566.55        31.24345
566.98        31.35077
567.42        31.44521
567.85        31.57344
568.29        31.75484
568.72        31.95137
569.16        32.17294
569.60        32.31911
570.03        32.35599
570.47        32.40044
570.90        32.75853
571.34        32.29988
571.77        32.73995
572.21        32.81627
572.64         33.0303
573.08        33.04341
573.51        33.52237
573.95        33.67192
574.38        33.49205
574.82         33.6315
575.25        33.99022
575.69        34.21404
576.12        33.74344
576.56         34.0419
576.99         34.0708
577.42        34.03682
577.86        34.16261
578.29        33.93013
578.73        34.20165
579.16        33.77464
579.60        33.47808
580.03        33.31205
580.47        33.60299
580.90        33.10804
581.33        33.67459
581.77         33.5411
582.20        33.61604
582.64        33.07236
583.07        33.08177
583.51         32.8455
583.94        32.78308
584.37        32.84098
584.81        32.97123
585.24        32.75386
585.68        32.51263
586.11        32.36323
586.54        32.30883
586.98        32.23189
587.41        32.24065
587.85        32.18458
588.28        32.21331
588.71        31.59707
589.15        32.14725
589.58        31.66192
590.01        31.82258
590.45        31.76858
590.88        31.84826
591.31        31.96576
591.75        32.07685
592.18        32.02704
592.61        31.79298
593.05        32.11289
593.48        31.96785
593.91        32.09188
594.35        32.12196
594.78        32.19992
595.21        32.27572
595.65        32.48325
596.08        32.51433
596.51        32.70031
596.94        32.71598
597.38        32.93354
597.81        33.35668
598.24        33.07141
598.68        33.61702
599.11        33.82427
599.54        34.64646
599.97        34.51807
600.41        34.82434
600.84        35.30735
601.27         35.6408
601.70        36.09171
602.14        36.59869
602.57        36.89531
603.00        37.05274
603.43        37.15695
603.87        37.52322
604.30        37.91562
604.73        38.19242
605.16        38.54726
605.60        38.97916
606.03        39.60799
606.46        40.24956
606.89        40.44611
607.32        40.39726
607.76        40.55596
608.19        40.99925
608.62        41.74324
609.05        42.15849
609.48        42.54369
609.92        42.56496
610.35        42.55002
610.78        43.54105
611.21        43.93917
611.64        44.06648
612.07        44.33486
612.50        44.76333
612.94        44.93434
613.37         44.9169
613.80        45.23096
614.23        45.23941
614.66        45.65485
615.09        45.58436
615.52        45.85485
615.96        46.23795
616.39        46.58405
616.82        46.87556
617.25        47.25037
617.68        47.64916
618.11        47.78727
618.54        47.70559
618.97        47.71935
619.40        47.89158
619.84        48.02897
620.27        48.13692
620.70        48.50904
621.13         49.0482
621.56        49.01217
621.99        48.60118
622.42        48.98274
622.85        48.86827
623.28        49.24785
623.71        48.85693
624.14        49.25935
624.57        49.29403
625.00         49.4171
625.43        49.36633
625.86        49.23015
626.29         49.0127
626.72        48.95018
627.15        48.71207
627.58        48.49056
628.01         48.2237
628.44        48.21308
628.87        48.37181
629.30         48.1794
629.73        47.66578
630.16        47.53432
630.59        47.33389
631.02         47.1909
631.45        46.94518
631.88        46.64623
632.31         46.2783
632.74        46.01391
633.17        45.56503
633.60         45.2303
634.03        44.92319
634.46        44.64414
634.89        44.35973
635.32        44.01973
635.75         43.6181
636.18        43.17198
636.61        42.71323
637.04        42.28968
637.47         41.9167
637.89        41.57277
638.32        41.22556
638.75        40.88982
639.18        40.57207
639.61        40.11546
640.04        39.84051
640.47          39.527
640.90        39.27129
641.33        39.05135
641.76        38.85934
642.18        38.73712
642.61        38.68193
643.04        38.60067
643.47        38.44683
643.90        38.68939
644.33        38.48853
644.76         38.4626
645.18        38.40634
645.61        38.53689
646.04        38.80005
646.47        38.87875
646.90        38.80602
647.33        38.89662
647.75        39.16368
648.18        39.41759
648.61        39.65192
649.04        39.91325
649.47        40.19499
649.89        40.58136
650.32        41.01797
650.75        41.22821
651.18        41.29636
651.61        41.70324
652.03        42.44769
652.46         42.9947
652.89        43.25915
653.32        43.58551
653.74        44.17225
654.17        44.08451
654.60        44.91782
655.03        45.65929
655.46         45.5004
655.88        46.02442
656.31        51.40668
656.74        50.12891
657.16        46.13097
657.59        45.87776
658.02        47.61708
658.45        48.31822
658.87        48.58116
659.30        47.97696
659.73        48.69552
660.15        49.36959
660.58        49.37531
661.01        49.52143
661.44        49.56531
661.86        49.81009
662.29        50.24538
662.72        50.60436
663.14        50.88309
663.57        51.21669
664.00          51.577
664.42        51.82455
664.85        51.96104
665.27        52.02201
665.70        52.07113
666.13         52.2034
666.55        52.44925
666.98        52.77459
667.41        53.13573
667.83        53.44504
668.26        53.64278
668.69        53.81318
669.11        54.00224
669.54        54.10089
669.96        54.07428
670.39        54.67508
670.82        54.50458
671.24        54.69975
671.67        54.85749
672.09        55.03915
672.52        55.23487
672.94        55.38126
673.37        55.49156
673.80        55.58165
674.22        55.68005
674.65        55.78586
675.07        55.91724
675.50        56.06749
675.92         56.2225
676.35        56.33727
676.77        56.40342
677.20        56.46221
677.62        56.56688
678.05        56.62597
678.47        56.80759
678.90        57.18596
679.32        57.36257
679.75        57.56034
680.17        57.64004
680.60        57.63075
681.02        57.59853
681.45        57.63844
681.87        57.78583
682.30        58.03971
682.72        58.32635
683.15        58.40005
683.57        58.28495
684.00         58.2374
684.42        58.30871
684.85        58.40349
685.27        58.52078
685.70        58.74601
686.12        59.01117
686.54        59.15779
686.97        59.15507
687.39        59.13337
687.82        59.10864
688.24        58.97057
688.66        58.82068
689.09        58.99932
689.51        59.46222
689.94        59.80375
690.36        59.97725
690.78        60.12791
691.21        60.28543
691.63        60.61539
692.06        60.75269
692.48        61.26598
692.90        61.89675
693.33        62.20996
693.75        62.15405
694.17        61.89436
694.60        61.58981
695.02        61.46141
695.44        61.51414
695.87        61.58676
696.29         61.6396
696.71        61.52479
697.14        61.36971
697.56        61.70403
697.98         62.4117
698.41        62.80534
698.83        62.82261
699.25         62.8522
699.68        62.94319
700.10         63.0085
700.52        63.05084
700.94        63.30373
701.37          63.298
701.79        63.52084
702.21        63.74968
702.64        63.82547
703.06        63.77705
703.48        63.72843
703.90        63.68579
704.33         64.0048
704.75        63.85083
705.17        63.88818
705.59        63.87437
706.01        63.82019
706.44        63.80571
706.86        63.95929
707.28        64.30559
707.70        64.84194
708.12        65.40285
708.55        65.54279
708.97        65.29214
709.39        65.12775
709.81        65.13942
710.23        65.12807
710.66        65.12863
711.08        65.32789
711.50        65.63988
711.92         65.8335
712.34        65.87289
712.76        65.83367
713.19        65.75661
713.61        65.75291
714.03        65.83095
714.45        65.94681
714.87        66.08368
715.29        66.22357
715.71        66.35107
716.13         66.4854
716.56        66.60002
716.98        66.63258
717.40        66.53411
717.82        66.50481
718.24        66.65082
718.66        66.17854
719.08        66.64244
719.50        66.78301
719.92        66.99075
720.34         67.1172
720.76        67.14214
721.19        67.08154
721.61        66.98094
722.03        66.93982
722.45        66.98618
722.87        67.11976
723.29        67.30161
723.71        67.38013
724.13        67.47146
724.55        67.47123
724.97        67.48888
725.39        67.62907
725.81        67.90343
726.23        68.27479
726.65        68.60487
727.07        68.67809
727.49        68.46214
727.91        68.03602
728.33        67.58482
728.75        67.40182
729.17        67.55453
729.59        67.95033
730.01        68.43974
730.43        68.76007
730.85        68.83199
731.27        68.75128
731.69        68.58645
732.10        68.44392
732.52        68.36275
732.94        68.28487
733.36        68.26044
733.78          68.337
734.20        68.50803
734.62        68.91153
735.04        69.38697
735.46         69.3503
735.88        68.93913
736.30        68.92221
736.72        69.30365
737.13        69.66401
737.55        69.83774
737.97        69.60178
738.39        69.13463
738.81        69.20596
739.23        69.79847
739.65        70.14498
740.06        70.11623
740.48        70.17504
740.90        70.27859
741.32        70.19776
741.74         69.9797
742.16        69.81956
742.57        69.75533
742.99        69.80029
743.41        69.95548
743.83         70.0179
744.25        70.05963
744.67        70.52316
745.08        71.24811
745.50        71.48163
745.92         71.1509
746.34        70.59521
746.75        70.03429
747.17        69.67503
747.59        69.57106
748.01        69.85265
748.42        70.35101
748.84        70.31235
749.26        69.83489
749.68         70.0828
750.09        70.49162
750.51        70.90512
750.93        71.06229
751.35        71.04548
751.76         70.9248
752.18        70.95049
752.60        71.15867
753.01         71.3354
753.43        71.43079
753.85        71.60311
754.27        71.75842
754.68        71.78625
755.10        71.35391
755.52        71.34027
755.93        71.64552
756.35        71.96968
756.77        72.19472
757.18        72.39365
757.60        72.59318
758.02         72.4545
758.43        72.17821
758.85        72.55518
759.26        71.44112
759.68        71.17538
760.10        71.77721
760.51        72.67874
760.93        72.36467
761.34        72.52468
761.76        72.68678
762.18        72.17648
762.59        71.33448
763.01        71.57507
763.42        72.76163
763.84        73.19156
764.26        72.79242
764.67        72.18822
765.09         71.6688
765.50        72.03603
765.92        72.80164
766.33        72.46049
766.75        72.50565
767.16        72.32989
767.58         72.5106
768.00        72.47807
768.41        72.41338
768.83         73.1785
769.24        74.43277
769.66        74.75194
770.07        74.15074
770.49        73.67202
770.90        73.50729
771.32        73.51189
771.73        73.62967
772.15        73.59052
772.56        73.40495
772.97        73.31639
773.39        73.33285
773.80        73.58672
774.22        73.64713
774.63        73.88484
775.05        74.10545
775.46        74.27178
775.88        74.33488
776.29        74.33772
776.70        74.30489
777.12        74.30494
777.53        74.35763
777.95        74.39546
778.36        74.43985
778.77        74.41739
779.19        74.31714
779.60        74.43297
780.02        74.63316
780.43        74.18316
780.84        73.37827
781.26        73.36219
781.67        74.10825
782.09        74.90572
782.50          75.395
782.91        75.01241
783.33        74.02522
783.74        73.70479
784.15        74.17412
784.57        74.63178
784.98        75.02381
785.39        75.40688
785.81        76.07581
786.22        76.42526
786.63        76.89128
787.04        76.97293
787.46        76.82715
787.87        76.37151
788.28        75.97295
788.70        75.84081
789.11        76.04402
789.52        76.56359
789.93        77.16212
790.35        77.30954
790.76        76.98327
791.17        76.56023
791.58        76.20196
792.00        75.91462
792.41        75.78384
792.82        75.86673
793.23        76.06438
793.65        76.21487
794.06        76.24255
794.47        76.02492
794.88        75.73228
795.29        75.71532
795.71        75.93468
796.12        76.44437
796.53        77.02314
796.94        77.01466
797.35        76.43404
797.76        76.09523
798.18        76.14066
798.59          76.134
799.00        76.11972
799.41        76.40247
799.82        76.89438
800.23        77.25244
800.64        77.40231
801.06        77.41953
801.47        77.35777
801.88         77.2028
802.29        76.98424
802.70        76.69193
803.11        76.41293
803.52        76.29914
803.93        76.39576
804.34        76.67255
804.75        77.03709
805.17        77.39009
805.58        77.73064
805.99        77.77236
806.40        77.59341
806.81        77.98704
807.22        78.67847
807.63        78.15488
808.04        76.68609
808.45        76.07085
808.86         76.4747
809.27        76.93896
809.68        77.27557
810.09        77.58524
810.50        77.77917
810.91        77.84111
811.32        77.79723
811.73        77.69424
812.14        77.56737
812.55        77.40219
812.96        77.28568
813.37        77.36612
813.78        77.66265
814.19        78.13126
814.60        78.63158
815.01         78.9407
815.42        79.00578
815.83         78.8821
816.24        78.65071
816.65        78.47869
817.05        78.43536
817.46        78.44294
817.87        78.49592
818.28        78.53952
818.69        78.55162
819.10        78.55786
819.51        78.55243
819.92         78.5147
820.33        78.44457
820.74        78.34482
821.14        78.23153
821.55        78.16116
821.96         78.1392
822.37        78.18164
822.78        78.28003
823.19        78.41086
823.60        78.56646
824.00        78.75625
824.41        78.97752
824.82        79.35049
825.23        79.85976
825.64        80.43816
826.04         80.9455
826.45        81.06786
826.86        80.77459
827.27        80.17454
827.68        79.41132
828.08        78.74599
828.49        78.25302
828.90        77.89339
829.31        77.72298
829.72        77.80826
830.12        78.16911
830.53        78.75919
830.94        79.38654
831.35        79.64155
831.75         79.4426
832.16        78.84274
832.57        78.18795
832.97        78.01504
833.38        78.41237
833.79        79.20027
834.20        80.07496
834.60        80.51506
835.01         80.3428
835.42        79.77848
835.82        79.00705
836.23        78.29845
836.64        77.77513
837.04        77.37358
837.45        77.14712
837.86        77.26113
838.26        77.72244
838.67          78.441
839.08        79.21098
839.48         79.6499
839.89        79.63789
840.29        79.27532
840.70        78.72085
841.11        78.20714
841.51        77.84485
841.92        77.55637
842.33        77.39062
842.73        77.42863
843.14        77.62399
843.54        78.03468
843.95        78.51263
844.35        78.87383
844.76        79.02008
845.17        78.96809
845.57        78.84888
845.98        78.87724
846.38         79.1176
846.79        79.48994
847.19        79.82227
847.60        79.73386
848.00        79.19042
848.41         78.3132
848.81        77.43425
849.22        77.02798
849.62        77.21825
850.03        77.84771
850.43        78.64928
850.84        78.99103
851.24        78.77647
851.65        78.14529
852.05        77.45612
852.46        77.28435
852.86        77.76726
853.27         78.5398
853.67         79.2645
854.07        80.09216
854.48        80.97483
854.88        80.46014
855.29        81.20242
855.69        80.73921
856.10        79.87048
856.50        78.67621
856.90        77.57349
857.31         77.1216
857.71        77.38425
858.12        78.19096
858.52        79.25667
858.92        79.78506
859.33        79.51353
859.73        78.73446
860.13        77.67191
860.54        76.71595
860.94        76.02442
861.34        75.46267
861.75          75.124
862.15        75.23176
862.55        75.75987
862.96        76.64261
863.36        77.58152
863.76        77.98031
864.17         77.7038
864.57        76.92532
864.97        75.96183
865.38        75.36408
865.78        75.32463
866.18        75.65977
866.58        76.18256
866.99        76.54827
867.39         76.6614
867.79        76.63669
868.19        76.49472
868.60        76.21867
869.00        75.82976
869.40        75.30795
869.80        74.83072
870.21        74.74342
870.61        75.16719
871.01        75.93839
871.41        76.72455
871.81        77.01219
872.22         76.6954
872.62        75.94993
873.02        75.05099
873.42        74.45687
873.82        74.33039
874.22        74.55282
874.63        75.00792
875.03         75.5036
875.43        75.95869
875.83        76.41741
876.23        76.89575
876.63        77.41492
877.03         77.9549
877.44        78.43925
877.84        78.80814
878.24        78.92815
878.64        78.77959
879.04        78.42737
879.44         77.9752
879.84        77.57265
880.24          77.273
880.64        77.05351
881.04         76.9213
881.44         76.8644
881.84        76.88226
882.24        77.00941
882.65        77.16087
883.05        77.30103
883.45        77.35632
883.85        77.30693
884.25         77.2918
884.65        77.53151
885.05        78.05606
885.45        78.82062
885.85        79.54308
886.25        79.74693
886.65        79.32062
887.05        78.37895
887.45        77.36314
887.85        76.96512
888.25        77.32825
888.65        78.27061
889.04        79.26129
889.44        79.41187
889.84        78.56667
890.24        77.03375
890.64        75.45153
891.04        74.73233
891.44         75.0709
891.84        76.21939
892.24        77.60434
892.64        78.25108
893.04        77.90442
893.44        76.85211
893.83        75.73942
894.23        75.55668
894.63        76.47015
895.03        78.17181
895.43        79.96379
895.83        80.60092
896.23         79.7924
896.63        78.04796
897.02        76.09944
897.42        75.07613
897.82        75.14705
898.22        75.99868
898.62        77.24486
899.01         78.2543
899.41        78.72178
899.81        78.86349
900.21        78.87173
900.61        79.06259
901.00        79.51557
901.40        80.04191
901.80        80.46745
902.20        80.56344
902.59        80.29706
902.99         79.7961
903.39        79.20984
903.79        78.75426
904.18        78.49421
904.58        78.38186
904.98        78.40216
905.38        78.54458
905.77        78.77125
906.17        79.11427
906.57        79.41844
906.96        79.43877
907.36        79.12661
907.76        78.56872
908.15        78.03705
908.55        77.93425
908.95        78.36169
909.34        79.18406
909.74        80.10677
910.14        80.72865
910.53        80.89883
910.93        80.72867
911.33        80.32142
911.72        79.84015
912.12        79.38544
912.52        78.91479
912.91        78.43704
913.31        77.97071
913.70        77.54983
914.10        77.21082
914.49        77.02251
914.89        77.03834
915.29        77.26428
915.68        77.68301
916.08        78.17173
916.47        78.55373
916.87        78.75969
917.26        78.79616
917.66        78.78903
918.05        78.94263
918.45        79.28548
918.84        79.80878
919.24        80.28772
919.64        80.42227
920.03        80.16885
920.42        79.61237
920.82        79.05293
921.21        78.95094
921.61        79.35059
922.00        80.11765
922.40        80.90764
922.79        81.18969
923.19        80.79617
923.58        79.94521
923.98        78.89614
924.37        77.91586
924.77        77.15522
925.16        76.55001
925.55        76.18246
925.95        76.15565
926.34        76.50501
926.74         77.1549
927.13        78.09032
927.52        79.16722
927.92        80.26547
928.31         81.3604
928.70        82.24412
929.10        82.64362
929.49        82.52956
929.89        81.96027
930.28        81.16456
930.67        80.48748
931.07        80.04996
931.46        79.79272
931.85        79.69102
932.24        79.67844
932.64        79.71666
933.03        79.88886
933.42        80.04713
933.82        79.96624
934.21        79.61207
934.60        79.00742
934.99        78.46179
935.39        78.42681
935.78        79.01904
936.17        80.15282
936.56        81.34792
936.96        81.73059
937.35        81.13143
937.74        79.76994
938.13        78.34139
938.53        77.77358
938.92        78.18963
939.31        79.38329
939.70        80.76298
940.09        81.24958
940.49        80.56447
940.88        79.08021
941.27        77.49422
941.66        76.84155
942.05        77.35918
942.44        78.75695
942.84        80.44032
943.23        81.41425
943.62         81.2859
944.01        80.40114
944.40        79.29541
944.79        78.81322
945.18        79.16523
945.57        80.00881
945.97        81.01675
946.36        81.80227
946.75        82.18259
947.14        82.33461
947.53        82.22562
947.92        81.77593
948.31        81.04916
948.70        80.08568
949.09        79.20113
949.48        78.87152
949.87        79.20434
950.26        80.12973
950.65        81.32994
951.04        82.20938
951.43        82.54784
951.82        82.41142
952.21        82.12643
952.60        82.23574
952.99        82.81119
953.38         83.6639
953.77        84.28989
954.16        83.83113
954.55        82.18806
954.94        79.81792
955.33         77.4046
955.72        75.95008
956.11        75.70966
956.50        76.32386
956.89        77.54914
957.28        78.98752
957.66        80.44749
958.05        81.91122
958.44        82.98582
958.83        82.91133
959.22        81.61814
959.61        79.40967
960.00        77.04881
960.39        75.64317
960.78        75.42893
961.16        76.14016
961.55        77.37266
961.94        78.51763
962.33        79.29804
962.72        79.88896
963.11        80.18578
963.49        80.02422
963.88        79.39729
964.27        78.40257
964.66        77.36116
965.04        76.74971
965.43        76.65052
965.82        76.92802
966.21        77.47471
966.60         78.0373
966.98        78.48647
967.37        78.86263
967.76        79.02896
968.15         78.7373
968.53        78.00872
968.92        76.92809
969.31        75.84333
969.69        75.32439
970.08        75.44769
970.47        76.03832
970.86        76.86337
971.24        77.47779
971.63        77.62321
972.02        77.49324
972.40        77.01173
972.79        76.11214
973.17        74.92022
973.56        73.51241
973.95        72.30122
974.33        71.93587
974.72         72.4792
975.11        73.74303
975.49        75.45115
975.88        76.92277
976.26        77.89893
976.65        78.45966
977.04        78.49117
977.42        77.82224
977.81        76.54285
978.19        74.68977
978.58        73.15963
978.96        73.07947
979.35        74.63013
979.74        77.64137
980.12        81.33533
980.51        83.44373
980.89        83.41574
981.28        81.63252
981.66        79.23833
982.05        78.22168
982.43        79.05507
982.82        81.09921
983.20        83.64701
983.59        85.28928
983.97        85.67875
984.35        85.24441
984.74        84.18878
985.12        82.93823
985.51        81.69291
985.89        80.28816
986.28        79.10705
986.66        78.62209
987.04        79.01106
987.43        80.16041
987.81        81.59179
988.20        82.23202
988.58        81.83801
988.96        80.51044
989.35        78.94567
989.73        78.26719
990.12        78.69444
990.50        80.00842
990.88        81.27654
991.27        81.00159
991.65        79.00475
992.03        75.82459
992.42        72.74767
992.80        71.47917
993.18        72.49757
993.56        75.22901
993.95        78.51692
994.33        80.64342
994.71        80.79663
995.10        79.50044
995.48          77.436
995.86        75.74556
996.24        74.89343
996.63        74.53866
997.01        74.48271
997.39        74.45434
997.77        74.35843
998.15        74.36349
998.54        74.54435
998.92        74.98376
999.30        75.66946
999.68        76.49685
1000.06        77.27964
1000.45        77.71764
1000.83        77.83527
1001.21        77.59167
1001.59        77.10873
1001.97        76.63129
1002.35        76.25621
1002.73        75.95113
1003.12        75.65652
1003.50        75.21142
1003.88        74.63365
1004.26        74.02746
1004.64         73.4873
1005.02        73.10723
1005.40        72.91133
1005.78        72.87347
1006.16        72.95947
1006.54        73.10324
1006.92        73.26053
1007.30        73.41353
1007.69        73.53142
1008.07        73.81573
1008.45        74.19762
1008.83        74.65334
1009.21        75.07301
1009.59        75.26823
1009.97        75.23556
1010.35        75.07908
1010.73        75.01934
1011.11        75.43604
1011.49        76.47025
1011.86        78.16396
1012.24        80.15363
1012.62        82.24271
1013.00        84.23108
1013.38        86.05662
1013.76        87.56933
1014.14        88.61617
1014.52        89.11763
1014.90        89.03889
1015.28        88.29243
1015.66        86.91397
1016.04        85.17387
1016.41        83.28651
1016.79        81.63554
1017.17         80.2561
1017.55         78.9612
1017.93        77.57021
1018.31        75.91534
1018.69        74.14874
1019.06        72.78336
1019.44        72.08482
1019.82        71.79824
1020.20        71.49567
1020.58        71.08188
1020.95        70.55557
1021.33         70.2689
1021.71        70.83609
1022.09        72.40643
1022.46        74.51563
1022.84        76.56125
1023.22          78.093
1023.60        78.97099
1023.97        79.51123
1024.35        79.16162
1024.73        77.10698
