SpectraSmart Spectrum 2.9.0.0
--------- Device Information -----------
Spectrum Name :  反射率_0
Saving Time :  2024/05/01 17:24:53
Spectro-Module Model Name : SE2030-DUVN
Spectro-Module Serial Number : OS361AC55029948
Wavelength Start : 200
Wavelength End : 1025
Wavelength Unit : Wavelength(nm)
Spectrum Unit : Reflectance(%)
-----------Spectrum Setting ------------
Integration Time : 20ms
Average : 10
Boxcar : 0
Background removal :  enabled
linearity correction :  enabled
SC :  disabled
Intensity correction :  disabled
DWT denoise :  enabled
savitzky-golay :  disabled
FFT :  disabled
Running average :  disabled
Kalman :  disabled
High pass :  disabled
---------------BEGIN--------------------
Wavelength(nm)             Reflectance(%)
200.29               0
200.75        334.9899
201.21        1355.143
201.67       -550.3913
202.13       -200.9111
202.58        -93.7415
203.04       -33.47067
203.50        2.068329
203.96        16.32862
204.42        12.54489
204.88       -26.70554
205.34       -1178.566
205.80        226.1177
206.26        165.7697
206.72        163.4217
207.18        266.0724
207.64       -91.28645
208.10        15.24562
208.55        35.80373
209.01        41.25949
209.47        39.96687
209.93        34.48801
210.39        24.17771
210.85        10.99036
211.31       -4.225733
211.77       -38.36376
212.23        189.5135
212.69        51.55427
213.14         53.8316
213.60        109.2653
214.06         -541.68
214.52       -92.20763
214.98       -61.89505
215.44        -53.5212
215.90       -53.18413
216.36       -117.7346
216.81       -14.32838
217.27       -8.826678
217.73       -111.0884
218.19       -58.93405
218.65        -59.4631
219.11       -69.54025
219.57       -100.5233
220.02       -187.5204
220.48        -50.5527
220.94       -4.840779
221.40        3.269871
221.86        7.126263
222.32        12.73482
222.77        21.87301
223.23        36.09774
223.69        54.78704
224.15        64.99762
224.61        60.54233
225.06        50.29299
225.52        42.91092
225.98        41.73579
226.44        46.17228
226.90        55.64001
227.36        68.48873
227.81        75.42374
228.27        72.40449
228.73        65.35458
229.19         59.6549
229.65        58.42953
230.10        61.37006
230.56        67.53099
231.02        75.76376
231.48        81.66539
231.93         82.4468
232.39         80.5369
232.85        77.34423
233.31        74.13159
233.77        71.40638
234.22         68.7634
234.68        66.95232
235.14        67.00542
235.60        69.16333
236.05        74.05717
236.51        81.23509
236.97        87.08647
237.43        87.81773
237.88        82.84689
238.34        75.14918
238.80        70.34765
239.26        69.81636
239.71          73.842
240.17        80.55891
240.63        80.31731
241.08        66.58504
241.54        45.98777
242.00        29.55936
242.46        23.64363
242.91        28.39886
243.37        44.64187
243.83        75.94804
244.28        103.1344
244.74         100.115
245.20        82.75408
245.66        66.51693
246.11        55.19539
246.57        45.87933
247.03        34.40955
247.48        15.27483
247.94       -14.13023
248.40       -44.95224
248.85        -69.0945
249.31       -72.60475
249.77        -51.3732
250.22       -19.99981
250.68        10.37931
251.14        32.56356
251.59         43.4358
252.05        45.16072
252.51        37.32261
252.96        12.18079
253.42       -19.56456
253.88       -2.399664
254.33        37.72365
254.79        59.15102
255.25        66.33607
255.70        67.44979
256.16        67.37334
256.62         66.9851
257.07        66.65771
257.53        66.98453
257.99        67.40234
258.44        67.76608
258.90        68.56019
259.35        69.35036
259.81        70.33954
260.27        71.17015
260.72        71.40595
261.18        71.31804
261.63         70.7644
262.09         70.1127
262.55        69.28114
263.00        68.21153
263.46        67.11141
263.91         65.9402
264.37        65.06131
264.83        64.40208
265.28        63.89192
265.74         63.4383
266.19        62.57108
266.65        61.40998
267.11        60.02432
267.56        58.78968
268.02        58.40393
268.47        58.89518
268.93        59.96155
269.38        61.10012
269.84        61.45782
270.30        60.83294
270.75        59.49151
271.21        57.78017
271.66        56.08656
272.12        54.65219
272.57        53.30307
273.03         52.1817
273.48         51.4227
273.94        51.04763
274.39         50.9707
274.85        50.97026
275.31        50.59876
275.76        49.77128
276.22        48.69498
276.67        47.52897
277.13        46.67022
277.58        46.09115
278.04        45.70907
278.49        45.33012
278.95        44.82817
279.40        44.10544
279.86        43.30827
280.31        42.42729
280.77        41.57568
281.22        40.72269
281.68        39.92963
282.13        39.15111
282.59          38.453
283.04        37.79521
283.50        37.21889
283.95        36.71193
284.41        36.33379
284.86        36.05573
285.32        35.87352
285.77        35.71935
286.22        35.55381
286.68        35.36168
287.13        35.13609
287.59        34.87507
288.04        34.53588
288.50         34.1656
288.95        33.73569
289.41        33.36877
289.86        33.14041
290.32        33.08368
290.77        33.14354
291.22        33.21235
291.68        33.11154
292.13        32.80725
292.59        32.39452
293.04        31.98072
293.50        31.79178
293.95        31.86074
294.40        32.12774
294.86        32.50674
295.31        32.87031
295.77        33.16676
296.22        33.42317
296.68        33.65095
297.13        33.84311
297.58         34.0234
298.04        34.20847
298.49        34.39993
298.95        34.65178
299.40        34.95046
299.85        35.26997
300.31        35.64063
300.76        36.09307
301.21        36.62222
301.67        37.23077
302.12        37.76093
302.58        38.00162
303.03        37.91015
303.48        37.58212
303.94        37.28364
304.39        37.32931
304.84        37.79007
305.30         38.5447
305.75        39.33699
306.20        39.79012
306.66        39.82505
307.11        39.54607
307.57        39.16337
308.02         38.9268
308.47        38.91946
308.93        39.06144
309.38         39.2202
309.83        39.25116
310.29        39.12438
310.74        38.89457
311.19        38.64462
311.65        38.47924
312.10        38.41755
312.55        38.42122
313.00        38.44878
313.46        38.43901
313.91        38.36676
314.36        38.25517
314.82        38.11502
315.27        37.97597
315.72        37.84185
316.18        37.70497
316.63        37.55396
317.08        37.38782
317.53        37.20199
317.99        37.00151
318.44        36.77765
318.89        36.52601
319.35        36.25632
319.80        35.98296
320.25        35.72205
320.70        35.49318
321.16        35.29774
321.61        35.13559
322.06        35.01548
322.51        34.95602
322.97        34.94109
323.42          34.968
323.87        34.97486
324.32        34.87307
324.78        34.63932
325.23        34.31511
325.68        33.94954
326.13        33.63358
326.59        33.38908
327.04        33.20745
327.49        33.06853
327.94         32.9463
328.39        32.82508
328.85        32.70458
329.30        32.58447
329.75         32.4211
330.20        32.20829
330.66         31.9448
331.11        31.67441
331.56        31.43772
332.01        31.25437
332.46        31.12069
332.92        31.01531
333.37        30.93475
333.82        30.86174
334.27        30.80281
334.72         30.7701
335.17        30.78569
335.63        30.83481
336.08        30.91125
336.53        30.97739
336.98        30.99333
337.43        30.95003
337.88        30.87107
338.34        30.74393
338.79        30.57165
339.24        30.36213
339.69        30.11727
340.14        29.92454
340.59        29.91916
341.05        30.10635
341.50        30.44816
341.95        30.79502
342.40         30.9025
342.85        30.72276
343.30        30.34514
343.75        29.91489
344.20        29.66072
344.66          29.647
345.11        29.78928
345.56        30.03289
346.01        30.27981
346.46        30.47755
346.91        30.65369
347.36        30.76393
347.81        30.73978
348.26        30.58266
348.72         30.3168
349.17         30.0075
349.62        29.80858
350.07        29.75235
350.52        29.79434
350.97        29.86603
351.42        29.84558
351.87        29.70641
352.32        29.50941
352.77        29.27549
353.22         29.0352
353.67        28.80938
354.13        28.58374
354.58        28.40938
355.03        28.40622
355.48        28.57925
355.93        28.90295
356.38        29.21947
356.83        29.25959
357.28        28.97942
357.73        28.47554
358.18        27.95878
358.63        27.74614
359.08        27.89476
359.53        28.28902
359.98        28.76824
360.43        29.05779
360.88        29.06474
361.33        28.88269
361.78        28.57228
362.23        28.21868
362.68        27.86624
363.13        27.48577
363.58        27.13056
364.03        26.90068
364.48        26.80767
364.93        26.82367
365.38        26.86644
365.83         26.7944
366.28        26.57247
366.73        26.24818
367.18        25.86103
367.63        25.48356
368.08        25.15998
368.53         24.8796
368.98        24.67201
369.43        24.57938
369.88        24.59409
370.33        24.69474
370.78        24.83018
371.23        24.90407
371.68        24.87828
372.13        24.77463
372.58         24.5961
373.03        24.35316
373.48        24.06242
373.93         23.7238
374.38        23.39793
374.83        23.18826
375.28          23.118
375.72        23.15996
376.17        23.24157
376.62        23.23787
377.07        23.11714
377.52         22.9114
377.97        22.67454
378.42        22.49394
378.87        22.39288
379.32        22.34474
379.77        22.30812
380.22         22.2207
380.67        22.07216
381.11        21.89229
381.56        21.72417
382.01        21.64056
382.46        21.65808
382.91        21.74727
383.36           21.86
383.81         21.9274
384.26        21.92316
384.71        21.85542
385.15        21.74282
385.60        21.63661
386.05        21.54406
386.50        21.46201
386.95        21.35622
387.40        21.17609
387.85        20.92913
388.29        20.63089
388.74        20.39078
389.19        20.29567
389.64        20.35318
390.09        20.51851
390.54        20.70892
390.98        20.78924
391.43        20.73197
391.88        20.58211
392.33        20.39001
392.78        20.23702
393.23        20.14523
393.67        20.05575
394.12        19.98239
394.57        19.96489
395.02        19.96846
395.47        19.86516
395.91        19.69253
396.36        19.61448
396.81        19.65097
397.26        19.71671
397.71        19.76916
398.15        19.79248
398.60        19.79979
399.05        19.71535
399.50        19.60002
399.95        19.68567
400.39        19.91988
400.84         19.9276
401.29        19.70689
401.74        19.57815
402.18        19.55657
402.63        19.44277
403.08        19.26808
403.53        19.16938
403.97        19.15497
404.42        19.19192
404.87        19.22862
405.32        19.18306
405.76        19.03705
406.21        18.82682
406.66        18.61372
407.11         18.4947
407.55        18.49648
408.00        18.59019
408.45        18.71622
408.90         18.7428
409.34        18.64962
409.79        18.52214
410.24        18.40471
410.68        18.31834
411.13        18.28124
411.58        18.29376
412.03        18.33211
412.47        18.34724
412.92         18.3211
413.37        18.27422
413.81        18.21766
414.26        18.18174
414.71        18.16634
415.15        18.16666
415.60        18.16169
416.05        18.13911
416.49        18.09507
416.94        18.03522
417.39        17.97255
417.83        17.92529
418.28        17.89873
418.73        17.88618
419.17         17.8785
419.62        17.85449
420.07        17.81422
420.51        17.76238
420.96        17.71971
421.41        17.69245
421.85        17.67696
422.30        17.67636
422.74        17.68683
423.19        17.72081
423.64        17.77175
424.08        17.84399
424.53          17.896
424.98        17.88511
425.42         17.8084
425.87        17.68705
426.31        17.55888
426.76        17.49355
427.21        17.49947
427.65        17.54833
428.10        17.63484
428.54        17.74505
428.99        17.86768
429.44           18.03
429.88        18.14555
430.33        18.09535
430.77        17.88063
431.22        17.56633
431.66        17.27133
432.11        17.22929
432.56        17.42092
433.00        17.66006
433.45        17.78446
433.89        17.65524
434.34        17.20352
434.78        17.16954
435.23        17.65668
435.67        17.81778
436.12        17.67706
436.57        17.66486
437.01        17.78487
437.46        17.79881
437.90        17.69595
438.35          17.574
438.79         17.4644
439.24        17.36888
439.68        17.32954
440.13        17.46204
440.57         17.6888
441.02        17.80173
441.46        17.77151
441.91        17.59613
442.35        17.36126
442.80        17.46252
443.24        17.78405
443.69        17.67614
444.13        17.20888
444.58        17.03927
445.02        17.17981
445.47        17.28617
445.91        17.32335
446.36        17.39967
446.80        17.49963
447.24        17.58821
447.69        17.66224
448.13        17.71933
448.58        17.75819
449.02        17.77585
449.47        17.77384
449.91        17.74172
450.36        17.68841
450.80        17.61814
451.25        17.54609
451.69         17.4823
452.13        17.43357
452.58        17.40051
453.02        17.37867
453.47        17.37105
453.91        17.37335
454.36        17.39098
454.80        17.40986
455.24        17.40576
455.69        17.37871
456.13        17.32232
456.58        17.27581
457.02        17.27597
457.46        17.33258
457.91        17.43408
458.35        17.52938
458.79        17.51182
459.24        17.37761
459.68        17.20716
460.13        17.09693
460.57        16.84673
461.01        16.96534
461.46        17.04951
461.90        17.19482
462.34        17.24298
462.79        17.26495
463.23        17.20838
463.68         17.1393
464.12         17.1231
464.56        17.17628
465.01        17.29586
465.45        17.40985
465.89        17.44707
466.34        17.40259
466.78        17.29428
467.22        17.17799
467.67        17.17894
468.11         17.2482
468.55        17.41407
468.99         17.5986
469.44        17.71653
469.88        17.74832
470.32        17.71558
470.77        17.65396
471.21        17.61889
471.65        17.62824
472.10        17.66775
472.54        17.71259
472.98        17.73609
473.42         17.7327
473.87        17.72116
474.31        17.70833
474.75        17.72128
475.20        17.76828
475.64        17.82673
476.08        17.87746
476.52        17.93719
476.97        18.00919
477.41        18.00668
477.85        17.90499
478.29        18.17024
478.74        18.02496
479.18        18.06432
479.62         18.0677
480.06        18.16423
480.50         18.3616
480.95        18.28976
481.39         18.5483
481.83        18.58322
482.27        18.58224
482.72        18.55571
483.16        18.52998
483.60        18.56261
484.04        18.63778
484.48        18.71633
484.93        18.88941
485.37        19.10091
485.81         19.1591
486.25         19.7166
486.69        18.83579
487.14         18.3639
487.58        18.81044
488.02          19.579
488.46        19.20077
488.90        19.49239
489.34         19.4335
489.79        19.31324
490.23        19.75992
490.67        19.94547
491.11        20.08574
491.55        20.11728
491.99        20.08218
492.43        20.11288
492.88        20.21396
493.32        20.27853
493.76        20.31441
494.20        20.41542
494.64        20.59286
495.08        20.79735
495.52        20.98928
495.96        21.18466
496.41        21.34943
496.85        21.30542
497.29        21.14219
497.73        21.28373
498.17        21.68486
498.61        21.82792
499.05        21.71105
499.49        21.74316
499.93        21.93041
500.37        22.03716
500.82        22.06332
501.26        22.11848
501.70        22.20848
502.14        22.30397
502.58        22.39295
503.02        22.45786
503.46        22.49729
503.90        22.52322
504.34        22.55775
504.78        22.63175
505.22        22.75118
505.66        22.90534
506.10        23.06676
506.54        23.19001
506.98        23.26141
507.42        23.29241
507.86        23.30345
508.30        23.32757
508.74        23.37468
509.18        23.43557
509.62        23.49789
510.06        23.54177
510.50        23.56223
510.94         23.5675
511.38        23.56895
511.82        23.58323
512.26        23.61277
512.70        23.64877
513.14        23.68087
513.58        23.69378
514.02        23.68417
514.46         23.6604
514.90        23.62571
515.34        23.58476
515.78        23.54369
516.22        23.50374
516.66        23.47839
517.10        23.48753
517.54        23.53305
517.98        23.60833
518.42        23.69383
518.86        23.75595
519.30         23.7847
519.74        23.78723
520.18        23.77555
520.62        23.77188
521.06        23.78034
521.50        23.78906
521.93        23.79421
522.37        23.78469
522.81        23.76109
523.25        23.73498
523.69        23.69752
524.13        23.63199
524.57        23.54321
525.01        23.43836
525.45         23.3553
525.89        23.35408
526.32        23.43895
526.76        23.58175
527.20        23.73023
527.64        23.79916
528.08        23.76716
528.52        23.66684
528.96        23.52504
529.40        23.38485
529.83        23.26465
530.27        23.15803
530.71        23.08697
531.15         23.0919
531.59        23.17172
532.03        23.31215
532.46        23.45446
532.90        23.50651
533.34        23.44925
533.78         23.2932
534.22        23.09383
534.66        22.97768
535.09        22.94595
535.53        22.89379
535.97        22.81604
536.41        22.78651
536.85        22.80327
537.28        22.82577
537.72        22.85068
538.16        22.89269
538.60        22.94816
539.04        23.00664
539.47        23.06576
539.91        23.13951
540.35        23.22136
540.79        23.31652
541.22         23.4145
541.66        23.46359
542.10         23.5219
542.54        23.54995
542.97        23.57883
543.41        23.64248
543.85        23.74429
544.29         23.8774
544.72        24.02658
545.16        24.17959
545.60        24.32568
546.04        24.46293
546.47        24.59645
546.91         24.7389
547.35        24.89042
547.79         25.0402
548.22         25.1539
548.66        25.23515
549.10        25.28608
549.53        25.19794
549.97        25.24041
550.41        25.32584
550.84        25.53201
551.28        25.83337
551.72        26.16256
552.15        26.38253
552.59        26.47659
553.03        26.51662
553.46        26.53325
553.90        26.59047
554.34         26.7071
554.77        26.81986
555.21        26.88896
555.65        27.14601
556.08        27.07023
556.52        27.10409
556.96        27.11334
557.39        27.15303
557.83        27.23779
558.27        27.31318
558.70        27.37276
559.14        27.54244
559.57        27.57091
560.01            27.7
560.45        27.80811
560.88        27.80706
561.32        27.74771
561.75         27.6405
562.19        27.57623
562.63        27.81249
563.06        28.24189
563.50        28.30013
563.93        28.02545
564.37        27.98518
564.80        28.19037
565.24        28.32885
565.68        28.37792
566.11        28.42987
566.55         28.5041
566.98        28.60535
567.42        28.74793
567.85        28.89349
568.29        29.05111
568.72        29.21154
569.16        29.37137
569.60        29.50513
570.03        29.55822
570.47        29.53807
570.90        29.68052
571.34        29.57488
571.77        29.73735
572.21        29.80526
572.64        29.94566
573.08        30.01415
573.51        30.59674
573.95        30.64297
574.38        30.43606
574.82        30.47987
575.25        30.66499
575.69        30.71514
576.12        30.62795
576.56        30.64077
576.99        30.78836
577.42        30.84952
577.86        30.73258
578.29        30.62638
578.73        31.00002
579.16        30.73773
579.60        30.42369
580.03        30.21145
580.47        30.41916
580.90        30.00663
581.33        30.59883
581.77        30.70744
582.20        30.40092
582.64        30.09775
583.07        29.98491
583.51        29.81912
583.94         29.7788
584.37        29.85309
584.81        29.97966
585.24        29.84882
585.68        29.53027
586.11        29.39441
586.54        29.22856
586.98        29.11139
587.41        29.50241
587.85        29.50043
588.28        29.30336
588.71        28.88147
589.15        29.32521
589.58        29.03795
590.01        29.06474
590.45        29.02482
590.88        29.13086
591.31        29.16235
591.75        29.12455
592.18        29.05744
592.61        28.92288
593.05        29.17286
593.48        29.16365
593.91        28.95657
594.35         29.2325
594.78        29.30346
595.21        29.40183
595.65        29.55036
596.08        29.72664
596.51          29.781
596.94        29.78607
597.38        29.91437
597.81        30.23539
598.24        30.18131
598.68        30.76031
599.11        30.71712
599.54        31.15973
599.97        31.08179
600.41        31.66567
600.84        31.81644
601.27        32.10265
601.70        32.46692
602.14        32.75558
602.57        33.00096
603.00        33.15728
603.43        33.25953
603.87        33.56323
604.30        33.83731
604.73        34.20613
605.16        34.22601
605.60        34.68883
606.03        35.10056
606.46        35.54921
606.89        35.68481
607.32        35.66315
607.76        35.77036
608.19        36.05495
608.62        36.60002
609.05        36.88513
609.48        37.09608
609.92        37.19004
610.35        37.11293
610.78        37.77477
611.21        38.05663
611.64        38.22815
612.07        38.51032
612.50        38.88209
612.94        39.09716
613.37        39.17275
613.80        39.25236
614.23        39.32059
614.66        39.65892
615.09        39.64428
615.52        39.78078
615.96        39.88668
616.39        40.27952
616.82        40.53366
617.25        40.80761
617.68        40.98986
618.11        41.10971
618.54        41.18318
618.97        41.23264
619.40        41.32685
619.84        41.37316
620.27        41.46499
620.70        41.79515
621.13        42.34474
621.56        41.95468
621.99        41.97143
622.42         42.0504
622.85        42.09711
623.28        42.35131
623.71        42.06758
624.14         42.3662
624.57        42.43956
625.00        42.53147
625.43        42.44323
625.86         42.3451
626.29        42.27756
626.72        41.99938
627.15        42.02669
627.58        41.88178
628.01        41.70791
628.44        41.70665
628.87        41.85737
629.30        41.46352
629.73        41.29786
630.16        41.14631
630.59        40.92527
631.02        40.76726
631.45         40.5863
631.88        40.35607
632.31        40.04776
632.74        40.04309
633.17         39.6006
633.60        39.49809
634.03         39.1712
634.46        38.91952
634.89        38.63765
635.32        38.34636
635.75        38.05538
636.18        37.76132
636.61        37.46994
637.04        37.17819
637.47        36.88924
637.89        36.59873
638.32        36.29586
638.75         36.0216
639.18        35.78998
639.61        35.45157
640.04        35.27848
640.47        35.06117
640.90        34.87862
641.33         34.7142
641.76        34.56476
642.18        34.47272
642.61        34.43745
643.04        34.37571
643.47        34.23773
643.90        34.42899
644.33        34.20166
644.76        34.10983
645.18        33.99238
645.61        34.07541
646.04        34.31614
646.47        34.42514
646.90        34.39978
647.33        34.46602
647.75        34.62617
648.18        34.73207
648.61        34.80992
649.04        34.95236
649.47        35.16104
649.89        35.48063
650.32        35.85046
650.75         36.0018
651.18        35.98547
651.61        36.27026
652.03        36.82663
652.46        37.05232
652.89        36.98732
653.32        37.26074
653.74        37.91325
654.17        38.26826
654.60        38.30451
655.03        39.05215
655.46        38.78876
655.88        39.12023
656.31        43.32962
656.74        41.87611
657.16        38.82484
657.59        39.14042
658.02         40.3918
658.45        40.79697
658.87        41.14855
659.30        40.60269
659.73        41.00837
660.15        41.94763
660.58        41.73083
661.01        41.96871
661.44        42.09293
661.86        42.22845
662.29        42.40798
662.72         42.7438
663.14        43.19284
663.57        43.41669
664.00        43.43352
664.42        43.53437
664.85        43.73703
665.27        43.85721
665.70        43.90051
666.13        43.96009
666.55        44.05317
666.98        44.15592
667.41        44.28062
667.83        44.44337
668.26        44.63177
668.69        44.84123
669.11        45.06065
669.54        45.28765
669.96        45.50597
670.39        45.66959
670.82        45.77922
671.24        45.86988
671.67         45.9462
672.09        45.98158
672.52        46.00198
672.94         46.0261
673.37        46.06775
673.80        46.12415
674.22        46.20185
674.65        46.28312
675.07        46.37473
675.50        46.46848
675.92        46.56918
676.35        46.67661
676.77          46.792
677.20        46.90868
677.62        47.01705
678.05        47.09258
678.47        47.13293
678.90        47.15111
679.32         47.1666
679.75        47.22695
680.17        47.33581
680.60        47.48011
681.02        47.63837
681.45         47.7625
681.87        47.85118
682.30        47.91727
682.72        47.97642
683.15        48.02533
683.57        48.07253
684.00        48.11343
684.42        48.17162
684.85        48.25814
685.27        48.35674
685.70        48.55698
686.12        48.77453
686.54        48.68769
686.97        48.37837
687.39        48.37119
687.82         48.6236
688.24        48.72262
688.66        48.45139
689.09        48.52047
689.51        48.89343
689.94        49.11353
690.36        49.17344
690.78        49.27939
691.21        49.46274
691.63        49.63697
692.06        49.83188
692.48         50.1905
692.90        50.61432
693.33        50.81327
693.75        50.75473
694.17        50.52072
694.60        50.25234
695.02        50.17148
695.44        50.27969
695.87         50.4612
696.29        50.63821
696.71        50.54905
697.14        50.31747
697.56        50.55171
697.98        51.16869
698.41        51.49271
698.83        51.48046
699.25        51.51381
699.68        51.61445
700.10        51.68414
700.52        51.72704
700.94        51.75911
701.37        51.75177
701.79         51.8567
702.21        52.00949
702.64        52.06217
703.06        52.02439
703.48        51.96811
703.90        51.88947
704.33        52.08442
704.75        51.90664
705.17        51.95166
705.59        52.03195
706.01        52.13631
706.44        52.26688
706.86        52.45656
707.28        52.69054
707.70        52.95214
708.12        53.18397
708.55         53.2915
708.97        53.25968
709.39         53.1225
709.81        52.96024
710.23        52.91606
710.66        53.02665
711.08        53.25897
711.50        53.52655
711.92         53.7032
712.34        53.75712
712.76        53.73126
713.19        53.66161
713.61        53.64783
714.03        53.69975
714.45        53.78051
714.87        53.88514
715.29        54.01039
715.71        54.14706
716.13        54.30566
716.56        54.42555
716.98        54.46907
717.40        54.40484
717.82        54.25179
718.24        54.09521
718.66        54.07367
719.08        54.21394
719.50        54.47422
719.92        54.76114
720.34        54.91889
720.76        54.90687
721.19        54.77424
721.61         54.5998
722.03        54.50279
722.45        54.52481
722.87        54.63624
723.29         54.7952
723.71        54.93367
724.13        55.02488
724.55        55.08088
724.97        55.14037
725.39        55.25948
725.81        55.44165
726.23        55.67837
726.65        55.86009
727.07        55.88012
727.49        55.71685
727.91        55.42551
728.33        55.12416
728.75        54.99952
729.17        55.09427
729.59        55.34413
730.01        55.66583
730.43         55.9117
730.85        56.02774
731.27        56.06624
731.69        56.03268
732.10         55.9387
732.52        55.81244
732.94        55.63561
733.36         55.4715
733.78        55.51515
734.20        55.80202
734.62        56.14019
735.04        56.37226
735.46        57.02231
735.88        56.78815
736.30        56.82253
736.72        56.77299
737.13         56.8133
737.55        56.89319
737.97        56.64307
738.39        56.22567
738.81        56.41686
739.23        57.11819
739.65         57.3476
740.06         57.0596
740.48        57.03453
740.90        57.25644
741.32         57.3119
741.74        57.18117
742.16        57.07031
742.57         57.0037
742.99        56.90993
743.41        56.86124
743.83        56.97284
744.25        57.24075
744.67        57.60647
745.08        57.96121
745.50        58.08762
745.92        57.94754
746.34        57.58736
746.75        57.14654
747.17        56.86517
747.59        56.79366
748.01         56.9344
748.42        57.18976
748.84         57.2636
749.26        57.18837
749.68        57.21277
750.09        57.36225
750.51        57.67312
750.93        58.01902
751.35        57.97339
751.76        57.63083
752.18        57.56604
752.60        57.82706
753.01        58.09906
753.43        58.28554
753.85         58.4231
754.27        58.48775
754.68        58.46502
755.10        58.42814
755.52        58.49336
755.93        58.67237
756.35        58.91196
756.77        59.10639
757.18        59.15915
757.60        59.07679
758.02        58.80417
758.43        58.30964
758.85        58.48916
759.26        57.91808
759.68        57.91846
760.10        58.16707
760.51        58.88982
760.93        58.75045
761.34        58.87262
761.76        58.90878
762.18        58.69437
762.59        58.39928
763.01        58.56289
763.42        59.15468
763.84        59.39772
764.26        59.24394
764.67        59.05213
765.09        58.94991
765.50        58.90421
765.92        58.93727
766.33        58.94625
766.75        59.00544
767.16         58.8578
767.58         58.6375
768.00        58.71097
768.41        59.14455
768.83        59.86029
769.24        60.63738
769.66        60.94984
770.07        60.78354
770.49         60.5697
770.90        60.41301
771.32        60.27686
771.73         60.1839
772.15        60.05571
772.56        59.92113
772.97         59.9191
773.39        60.02398
773.80          60.134
774.22        60.19893
774.63        60.29978
775.05          60.377
775.46        60.38852
775.88        60.30611
776.29        60.15833
776.70        60.01485
777.12        60.01648
777.53        60.19822
777.95        60.49068
778.36        60.79284
778.77        60.90448
779.19         60.7862
779.60        60.55068
780.02        60.27045
780.43        60.00927
780.84        59.88114
781.26        59.91724
781.67        60.08408
782.09        60.47756
782.50        60.87201
782.91        60.54063
783.33        59.70875
783.74         59.4879
784.15        59.98178
784.57        60.55432
784.98        61.07476
785.39        61.53933
785.81        61.86566
786.22        61.90335
786.63        62.06159
787.04        61.90911
787.46        61.97132
787.87        61.89248
788.28        61.84481
788.70        61.89238
789.11        62.02404
789.52        62.25541
789.93        62.49295
790.35        62.56692
790.76        62.47947
791.17        62.27573
791.58         62.0462
792.00        61.99177
792.41         62.1269
792.82        62.14806
793.23        62.02979
793.65        62.16225
794.06        62.42041
794.47        62.09406
794.88        61.40638
795.29        61.18823
795.71         61.4241
796.12        61.85302
796.53        62.28198
796.94        62.37617
797.35        62.09797
797.76        61.85944
798.18        61.78915
798.59        61.74861
799.00        61.78516
799.41        62.02127
799.82        62.38983
800.23        62.68169
800.64         62.8408
801.06        62.91224
801.47        62.92299
801.88        62.82933
802.29        62.64737
802.70        62.38643
803.11        62.12259
803.52        61.97766
803.93        61.98315
804.34        62.12893
804.75        62.37125
805.17        62.55359
805.58         62.6813
805.99        62.84988
806.40        63.04721
806.81        62.99305
807.22        63.10959
807.63        62.80085
808.04         62.3154
808.45        62.05317
808.86        62.07699
809.27        62.17617
809.68        62.30681
810.09        62.47992
810.50        62.66082
810.91        62.85797
811.32        63.00376
811.73         62.9867
812.14        62.79681
812.55        62.45744
812.96        62.12337
813.37        62.06674
813.78        62.34583
814.19        62.87542
814.60         63.4639
815.01        63.81619
815.42         63.8586
815.83        63.66685
816.24        63.36259
816.65        63.18652
817.05        63.22234
817.46        63.35879
817.87         63.5287
818.28        63.60025
818.69        63.53748
819.10        63.39787
819.51        63.20245
819.92        63.00219
820.33        62.83588
820.74        62.63691
821.14        62.45115
821.55        62.50371
821.96        62.73508
822.37         62.8477
822.78        62.82837
823.19        62.92459
823.60        63.14064
824.00        63.31174
824.41         63.4235
824.82        63.65108
825.23        63.99143
825.64        64.36665
826.04        64.70613
826.45        64.83038
826.86        64.72041
827.27        64.44294
827.68        64.03139
828.08        63.55779
828.49        63.04541
828.90        62.50159
829.31        62.05202
829.72         61.8799
830.12        62.04558
830.53        62.49352
830.94        63.02115
831.35        63.20882
831.75        62.97332
832.16        62.39079
832.57        61.81591
832.97        61.79225
833.38        62.40356
833.79        63.45499
834.20         64.5969
834.60        65.23086
835.01        65.15973
835.42        64.60976
835.82        63.80851
836.23        63.10076
836.64        62.62481
837.04        62.28603
837.45        62.11044
837.86        62.19987
838.26        62.54747
838.67        63.11139
839.08        63.69963
839.48        63.95136
839.89        63.77219
840.29        63.25582
840.70        62.61582
841.11        62.17203
841.51        62.03475
841.92        62.09505
842.33         62.2844
842.73        62.49026
843.14        62.62082
843.54        62.76746
843.95        62.90305
844.35        63.03675
844.76        63.14164
845.17        63.18393
845.57        63.19872
845.98        63.24613
846.38        63.34983
846.79         63.4891
847.19        63.58331
847.60        63.42583
848.00        63.01831
848.41        62.42168
848.81        61.85197
849.22         61.6132
849.62        61.78114
850.03        62.24121
850.43         62.8135
850.84        63.05337
851.24        62.89941
851.65        62.46281
852.05        61.96999
852.46        61.77077
852.86        61.93702
853.27        62.31695
853.67        62.78623
854.07        63.34509
854.48        63.90495
854.88        64.58458
855.29        65.06176
855.69        64.95174
856.10        64.09343
856.50        62.71399
856.90        61.31129
857.31        60.60437
857.71        60.73529
858.12        61.47418
858.52        62.53388
858.92        63.16083
859.33        63.08173
859.73          62.559
860.13        61.78876
860.54        61.10773
860.94        60.65072
861.34        60.29872
861.75        60.09172
862.15        60.15465
862.55        60.47212
862.96        61.01294
863.36        61.63655
863.76         62.0124
864.17        62.04909
864.57        61.82059
864.97        61.46153
865.38        61.22189
865.78        61.19912
866.18         61.3134
866.58        61.45367
866.99        61.42645
867.39        61.22475
867.79        60.93934
868.19        60.67613
868.60        60.54976
869.00        60.58406
869.40        60.72918
869.80        60.99867
870.21        61.40644
870.61        61.94989
871.01        62.55231
871.41        63.02348
871.81        63.09161
872.22         62.7184
872.62        61.98969
873.02        61.14138
873.42        60.57269
873.82        60.41286
874.22        60.58263
874.63        60.91559
875.03        61.12508
875.43        61.13849
875.83         61.0495
876.23        60.99607
876.63        61.19097
877.03         61.6671
877.44        62.30299
877.84        62.96281
878.24        63.38645
878.64        63.49075
879.04        63.35291
879.44        63.07312
879.84        62.80462
880.24        62.60323
880.64        62.43443
881.04        62.29586
881.44        62.17349
881.84          62.073
882.24        62.03572
882.65        62.03094
883.05        62.08641
883.45        62.15743
883.85        62.20659
884.25        62.29672
884.65        62.53587
885.05         62.9243
885.45        63.43628
885.85        63.87339
886.25         63.8981
886.65         63.4572
887.05        62.67279
887.45        61.86591
887.85        61.53688
888.25        61.79842
888.65        62.49566
889.04        63.35148
889.44        63.88036
889.84        63.94337
890.24        63.66585
890.64        63.22914
891.04        62.89395
891.44        62.73998
891.84        62.71014
892.24        62.67512
892.64        62.43612
893.04        61.97556
893.44        61.38052
893.83        60.89281
894.23        60.87358
894.63        61.34916
895.03        62.19772
895.43        63.08938
895.83        63.42302
896.23        63.05986
896.63        62.24472
897.02        61.27989
897.42        60.70044
897.82        60.58504
898.22         60.8073
898.62        61.29085
899.01        61.92867
899.41        62.58649
899.81        63.29655
900.21        63.99528
900.61        64.56831
901.00        64.95599
901.40        65.12834
901.80         65.0573
902.20        64.73293
902.59        64.20673
902.99         63.5318
903.39        62.85505
903.79        62.40184
904.18         62.2205
904.58        62.26457
904.98        62.46309
905.38        62.69822
905.77          62.915
906.17        63.17678
906.57        63.36624
906.96        63.31305
907.36        62.99131
907.76        62.43834
908.15        61.94896
908.55        61.96991
908.95         62.5897
909.34        63.67411
909.74        64.79561
910.14        65.32116
910.53        65.08578
910.93        64.29694
911.33        63.29976
911.72         62.6391
912.12        62.49651
912.52        62.69893
912.91        63.05294
913.31        63.23762
913.70        63.15939
914.10        62.94508
914.49        62.70945
914.89        62.59335
915.29        62.64075
915.68        62.77074
916.08        62.93777
916.47        63.09857
916.87        63.22003
917.26        63.32624
917.66        63.37922
918.05        63.31444
918.45        63.12498
918.84        62.86069
919.24        62.59539
919.64        62.52771
920.03        62.71932
920.42        63.09286
920.82         63.5377
921.21        63.91851
921.61        64.15826
922.00         64.2888
922.40        64.30871
922.79        64.28082
923.19        64.20728
923.58        64.07288
923.98        63.84561
924.37        63.43423
924.77        62.87897
925.16        62.23748
925.55        61.65213
925.95        61.33064
926.34        61.35964
926.74         61.6399
927.13        62.18607
927.52        62.91847
927.92        63.74346
928.31        64.65248
928.70        65.43377
929.10        65.78184
929.49        65.64423
929.89        65.08009
930.28        64.31112
930.67        63.68785
931.07        63.32627
931.46        63.15367
931.85         63.1073
932.24        63.06184
932.64        62.97609
933.03         62.9633
933.42        62.95847
933.82        62.86094
934.21        62.66623
934.60        62.35048
934.99        62.13435
935.39        62.34587
935.78        63.04849
936.17        64.17207
936.56        65.28952
936.96        65.62005
937.35        65.02065
937.74        63.71396
938.13        62.30328
938.53        61.59119
938.92        61.69828
939.31        62.43459
939.70        63.39841
940.09        63.84671
940.49        63.56173
940.88        62.80464
941.27        61.94902
941.66        61.54922
942.05        61.73879
942.44        62.33152
942.84        63.05836
943.23        63.50799
943.62        63.49249
944.01        63.17357
944.40        62.72971
944.79        62.43264
945.18        62.36543
945.57        62.41106
945.97        62.51006
946.36        62.67694
946.75        62.85555
947.14        63.08403
947.53        63.26045
947.92        63.19123
948.31        62.85117
948.70        62.29799
949.09        61.75374
949.48        61.55343
949.87        61.77671
950.26        62.36403
950.65        63.09021
951.04        63.54826
951.43        63.61073
951.82        63.35158
952.21        63.03923
952.60        63.10725
952.99        63.60513
953.38        64.35967
953.77        65.00233
954.16        64.89445
954.55         63.9324
954.94        62.45485
955.33        60.83218
955.72        59.60598
956.11        58.95487
956.50        58.67204
956.89        58.83384
957.28        59.56646
957.66        60.82734
958.05        62.48779
958.44         63.9749
958.83        64.19102
959.22         62.9376
959.61        60.64024
960.00        58.13561
960.39        56.61813
960.78        56.37251
961.16        57.10482
961.55        58.42031
961.94        59.73588
962.33        60.77341
962.72        61.67384
963.11         62.3776
963.49        62.77276
963.88         62.7937
964.27        62.44919
964.66        61.83003
965.04         61.1164
965.43        60.36219
965.82        59.53468
966.21        58.79665
966.60        58.41725
966.98        58.48754
967.37        58.99524
967.76        59.60425
968.15        59.71414
968.53        59.20427
968.92        58.20418
969.31        57.21298
969.69        57.03515
970.08        57.79688
970.47        59.26633
970.86         60.8441
971.24          61.446
971.63        60.72254
972.02        59.08473
972.40        57.16467
972.79         55.9327
973.17        55.67724
973.56         56.0954
973.95        56.87611
974.33        57.56017
974.72        57.93772
975.11        58.09417
975.49        58.23872
975.88        58.72643
976.26         59.6479
976.65         60.7784
977.04        61.56237
977.42        61.13681
977.81        59.42488
978.19        56.79874
978.58        54.37786
978.96        53.57968
979.35        54.67842
979.74        57.32301
980.12        60.80116
980.51        63.08197
980.89        63.59662
981.28        62.78387
981.66        61.31414
982.05        60.44089
982.43        60.50533
982.82         61.0277
983.20        62.04139
983.59        63.47826
983.97        65.25137
984.35         67.3502
984.74        68.99197
985.12        69.03358
985.51        67.29697
985.89        64.11718
986.28        60.66507
986.66        58.67965
987.04        58.73827
987.43        60.37522
987.81        62.70204
988.20           63.97
988.58        63.68721
988.96        62.23681
989.35        60.50031
989.73         59.8541
990.12        60.58365
990.50        62.26611
990.88        63.90639
991.27        63.95931
991.65        62.18571
992.03          59.173
992.42        56.06458
992.80        54.32619
993.18        54.43097
993.56        55.89665
993.95        57.92257
994.33        59.38387
994.71        59.68552
995.10        59.21501
995.48        58.30713
995.86        57.52139
996.24        57.10015
996.63        56.80541
997.01        56.61248
997.39        56.51262
997.77        56.46884
998.15         56.5427
998.54        56.68319
998.92        56.72934
999.30        56.65371
999.68        56.49739
1000.06        56.29386
1000.45        56.08491
1000.83        56.01162
1001.21        56.00433
1001.59        56.12475
1001.97        56.47187
1002.35        57.03305
1002.73        57.75206
1003.12        58.48026
1003.50        58.91604
1003.88        59.02325
1004.26        58.90872
1004.64        58.65601
1005.02        58.39199
1005.40        58.16923
1005.78        57.92659
1006.16        57.78731
1006.54        57.95369
1006.92        58.42241
1007.30        59.13195
1007.69        59.69225
1008.07        59.68839
1008.45        58.95234
1008.83        57.65657
1009.21        56.20854
1009.59        55.28723
1009.97        55.12146
1010.35        55.57391
1010.73        56.42254
1011.11        57.24835
1011.49        57.91272
1011.86        58.65593
1012.24        59.39924
1012.62        60.41792
1013.00        61.75672
1013.38        63.22941
1013.76        64.67512
1014.14        65.91452
1014.52        66.80799
1014.90        67.34589
1015.28        67.34255
1015.66        66.56026
1016.04        65.16901
1016.41        63.48956
1016.79        61.86385
1017.17         60.4545
1017.55        59.10268
1017.93         57.5307
1018.31        55.75437
1018.69        54.35672
1019.06         53.8649
1019.44        54.20908
1019.82        54.59039
1020.20        54.12787
1020.58        52.74343
1020.95        50.40849
1021.33        47.90918
1021.71        47.11202
1022.09         49.0177
1022.46        53.03664
1022.84        57.67892
1023.22        61.10308
1023.60        62.79004
1023.97        63.18011
1024.35        62.49852
1024.73        61.25343
