SpectraSmart Spectrum 2.9.0.0
--------- Device Information -----------
Spectrum Name :  反射率_0
Saving Time :  2024/05/01 16:52:30
Spectro-Module Model Name : SE2030-DUVN
Spectro-Module Serial Number : OS361AC55029948
Wavelength Start : 200
Wavelength End : 1025
Wavelength Unit : Wavelength(nm)
Spectrum Unit : Reflectance(%)
-----------Spectrum Setting ------------
Integration Time : 20ms
Average : 10
Boxcar : 0
Background removal :  enabled
linearity correction :  enabled
SC :  disabled
Intensity correction :  disabled
DWT denoise :  enabled
savitzky-golay :  disabled
FFT :  disabled
Running average :  disabled
Kalman :  disabled
High pass :  disabled
---------------BEGIN--------------------
Wavelength(nm)             Reflectance(%)
200.29               0
200.75        124.9405
201.21        505.9104
201.67       -199.0508
202.13       -69.86176
202.58       -30.61345
203.04       -8.400973
203.50        3.963782
203.96        5.977536
204.42       -3.547179
204.88       -44.31675
205.34       -1136.561
205.80        191.8976
206.26        132.5255
206.72        120.9244
207.18        159.5212
207.64         8.26227
208.10        50.94372
208.55        56.69351
209.01        55.59098
209.47        52.10447
209.93        46.74335
210.39         38.4378
210.85          27.225
211.31        9.448045
211.77        -44.9118
212.23        360.8207
212.69        119.1475
213.14        121.8799
213.60        211.1183
214.06       -849.0931
214.52       -118.1194
214.98       -69.70486
215.44       -57.98522
215.90        -62.7448
216.36       -243.3969
216.81        38.63331
217.27        49.80548
217.73       -197.4782
218.19       -70.85114
218.65       -69.58143
219.11       -90.59714
219.57        -165.086
220.02       -438.6425
220.48       -183.2436
220.94       -39.31254
221.40       -5.516496
221.86        5.709483
222.32        9.878547
222.77        11.74153
223.23        12.56927
223.69        13.50796
224.15        16.12211
224.61        19.60989
225.06        22.25093
225.52        24.50999
225.98        27.28484
226.44         31.1528
226.90        36.58715
227.36        42.87028
227.81        45.57889
228.27         43.0726
228.73        38.45271
229.19        34.35609
229.65        31.93261
230.10        30.78458
230.56        30.51515
231.02        30.93859
231.48        31.68319
231.93        32.38825
232.39        33.18314
232.85        34.07719
233.31        35.17814
233.77        36.41842
234.22        37.65769
234.68        38.69997
235.14        39.49977
235.60        40.09516
236.05        40.56847
236.51        40.90667
236.97        41.05121
237.43        40.81986
237.88        40.20247
238.34        38.94692
238.80        36.91875
239.26        33.68039
239.71        28.62132
240.17        20.99017
240.63        12.55644
241.08        7.988311
241.54        9.177913
242.00        13.66433
242.46        18.88569
242.91        25.70127
243.37        35.71116
243.83        53.67932
244.28        77.35065
244.74        88.80103
245.20        88.24903
245.66        83.17019
246.11        76.96764
246.57        69.00947
247.03        56.07718
247.48        33.42529
247.94        2.120849
248.40       -25.53975
248.85       -43.04328
249.31       -42.46261
249.77       -25.29232
250.22       -2.729142
250.68        18.61203
251.14        33.93704
251.59        40.96732
252.05        40.94268
252.51        32.52702
252.96        6.711493
253.42       -32.15197
253.88       -28.68679
254.33        7.503907
254.79        31.34638
255.25        42.44467
255.70        47.67912
256.16        51.10863
256.62        53.39541
257.07        54.63453
257.53        55.53328
257.99        56.01852
258.44        56.21392
258.90        56.67934
259.35        57.08916
259.81        57.58859
260.27        57.87102
260.72        57.58909
261.18        57.02551
261.63         56.1204
262.09        55.20265
262.55        54.22852
263.00        53.15073
263.46        52.10963
263.91        51.06417
264.37        50.27392
264.83        49.67443
265.28        49.20366
265.74        48.77887
266.19        48.02509
266.65        47.02656
267.11        45.81976
267.56        44.69228
268.02        44.19168
268.47        44.34079
268.93        44.91203
269.38        45.50542
269.84        45.42284
270.30        44.53599
270.75         43.0923
271.21        41.44302
271.66        39.98915
272.12        38.93868
272.57        38.10926
273.03        37.54961
273.48        37.27295
273.94        37.24118
274.39        37.39415
274.85        37.53897
275.31        37.31955
275.76         36.6813
276.22        35.79385
276.67        34.81058
277.13        34.07111
277.58        33.57816
278.04          33.277
278.49        33.03434
278.95        32.77253
279.40        32.40866
279.86        32.03099
280.31        31.61444
280.77        31.21945
281.22        30.80592
281.68        30.41465
282.13        29.98698
282.59        29.54277
283.04        29.05794
283.50        28.58737
283.95        28.15966
284.41        27.87703
284.86        27.73598
285.32        27.71648
285.77        27.75884
286.22        27.81885
286.68        27.87757
287.13        27.92604
287.59        27.94766
288.04        27.87243
288.50        27.72769
288.95        27.49734
289.41        27.28767
289.86        27.17198
290.32        27.19155
290.77        27.30985
291.22         27.4638
291.68        27.54452
292.13        27.53015
292.59        27.48735
293.04        27.47539
293.50        27.63943
293.95        27.98622
294.40        28.47061
294.86        29.02582
295.31        29.55817
295.77         30.0303
296.22        30.46815
296.68        30.87395
297.13        31.23311
297.58        31.57431
298.04        31.92343
298.49        32.32306
298.95        32.87888
299.40        33.58028
299.85         34.3805
300.31        35.23422
300.76        36.07084
301.21         36.8608
301.67        37.61564
302.12        38.26159
302.58        38.71952
303.03        38.96244
303.48        39.04981
303.94        39.11069
304.39        39.26303
304.84        39.57114
305.30        39.99196
305.75         40.4711
306.20        40.94308
306.66         41.3785
307.11        41.76453
307.57        42.08932
308.02        42.26986
308.47        42.32138
308.93        42.27417
309.38        42.16142
309.83        42.09854
310.29        42.12304
310.74        42.20115
311.19        42.30678
311.65        42.38015
312.10        42.39578
312.55        42.37584
313.00        42.35142
313.46        42.36837
313.91        42.42517
314.36        42.49697
314.82         42.5345
315.27        42.47794
315.72        42.30785
316.18        42.05857
316.63        41.75705
317.08        41.45712
317.53        41.17803
317.99        40.91349
318.44        40.65964
318.89         40.4196
319.35        40.19755
319.80        40.00024
320.25        39.82988
320.70         39.6822
321.16        39.54463
321.61        39.41886
322.06        39.29211
322.51        39.15413
322.97        38.98939
323.42        38.80848
323.87        38.59934
324.32        38.35806
324.78        38.08441
325.23        37.80238
325.68        37.51488
326.13        37.23266
326.59        36.95396
327.04        36.69466
327.49        36.46265
327.94          36.282
328.39         36.1514
328.85        36.04688
329.30        35.95572
329.75        35.81063
330.20        35.59608
330.66        35.32277
331.11        35.02823
331.56        34.73706
332.01        34.46886
332.46        34.21775
332.92         33.9977
333.37        33.86819
333.82        33.82405
334.27        33.86287
334.72        33.93395
335.17         33.9469
335.63        33.86226
336.08        33.70939
336.53        33.54087
336.98        33.46453
337.43        33.50364
337.88        33.63252
338.34        33.74916
338.79        33.70812
339.24        33.46977
339.69        33.08185
340.14        32.68824
340.59         32.5145
341.05        32.59841
341.50        32.87566
341.95        33.18409
342.40         33.2607
342.85         33.0509
343.30        32.65841
343.75        32.22777
344.20        31.98015
344.66        31.97665
345.11        32.12724
345.56        32.37986
346.01        32.64445
346.46         32.8681
346.91        33.07582
347.36        33.20972
347.81        33.18194
348.26        32.99132
348.72         32.6666
349.17        32.29633
349.62        32.07151
350.07        32.03228
350.52        32.12625
350.97        32.25183
351.42        32.23307
351.87        32.03354
352.32         31.7314
352.77        31.39228
353.22        31.11468
353.67        30.93127
354.13        30.80552
354.58        30.73984
355.03         30.7817
355.48        30.92146
355.93        31.15784
356.38        31.37482
356.83        31.37401
357.28        31.12675
357.73        30.69787
358.18        30.26462
358.63        30.09638
359.08        30.23625
359.53        30.58813
359.98        30.99232
360.43        31.17661
360.88         31.0607
361.33        30.74145
361.78        30.31307
362.23        29.90921
362.68        29.58022
363.13        29.28524
363.58        29.03694
364.03        28.86526
364.48        28.76367
364.93        28.72274
365.38        28.69672
365.83         28.6034
366.28        28.42016
366.73        28.17171
367.18        27.86731
367.63        27.53131
368.08         27.1951
368.53        26.86771
368.98        26.59715
369.43        26.45123
369.88        26.43072
370.33        26.50397
370.78        26.62216
371.23        26.69374
371.68        26.67997
372.13        26.60622
372.58        26.45859
373.03        26.21907
373.48        25.90155
373.93        25.51298
374.38        25.14121
374.83        24.93756
375.28        24.93043
375.72        25.06803
376.17        25.24587
376.62        25.28974
377.07        25.15628
377.52         24.8999
377.97        24.58278
378.42        24.30387
378.87        24.10247
379.32        23.95492
379.77        23.85035
380.22         23.7738
380.67        23.71618
381.11         23.6843
381.56        23.68121
382.01        23.71178
382.46        23.76808
382.91        23.83898
383.36        23.87988
383.81          23.831
384.26        23.68086
384.71        23.44051
385.15        23.16872
385.60        22.98002
386.05        22.89322
386.50        22.88926
386.95        22.88992
387.40         22.7718
387.85        22.52443
388.29        22.18272
388.74        21.88577
389.19        21.76302
389.64        21.82906
390.09        22.01852
390.54        22.23373
390.98        22.31608
391.43        22.23712
391.88        22.06226
392.33        21.84186
392.78        21.65484
393.23        21.52866
393.67        21.39869
394.12        21.31364
394.57        21.36904
395.02        21.53031
395.47        21.64009
395.91        21.66648
396.36        21.67608
396.81        21.66812
397.26        21.58476
397.71        21.45617
398.15        21.38368
398.60        21.40609
399.05        21.40085
399.50        21.37807
399.95        21.51365
400.39         21.7313
400.84        21.64479
401.29        21.28676
401.74        21.06035
402.18        21.00186
402.63        20.88352
403.08        20.71242
403.53        20.59435
403.97        20.53147
404.42        20.50548
404.87        20.49662
405.32        20.46999
405.76        20.41327
406.21        20.34203
406.66        20.27818
407.11        20.25883
407.55        20.29454
408.00        20.37148
408.45        20.45415
408.90        20.45359
409.34        20.36266
409.79        20.25287
410.24        20.15508
410.68        20.06651
411.13         20.0019
411.58        19.98042
412.03        19.97485
412.47         19.9277
412.92        19.82789
413.37        19.69975
413.81        19.59045
414.26        19.58549
414.71        19.68811
415.15        19.87513
415.60        20.06731
416.05        20.15276
416.49        20.10017
416.94        19.94231
417.39        19.74635
417.83        19.61981
418.28        19.59339
418.73        19.63366
419.17        19.70007
419.62         19.7209
420.07        19.68239
420.51        19.61145
420.96         19.5451
421.41        19.50908
421.85        19.50611
422.30        19.53016
422.74        19.57559
423.19        19.65811
423.64         19.7683
424.08        19.91031
424.53        20.03177
424.98        20.07082
425.42        20.01879
425.87        19.90081
426.31        19.76263
426.76        19.68814
427.21        19.69072
427.65        19.73726
428.10        19.82601
428.54        19.94727
428.99        20.08991
429.44        20.28274
429.88        20.42238
430.33        20.36654
430.77        20.11415
431.22        19.74174
431.66        19.38964
432.11        19.31843
432.56        19.49643
433.00        19.76615
433.45        19.96006
433.89        19.77094
434.34         19.1138
434.78          19.411
435.23        19.84123
435.67        20.13252
436.12        20.02271
436.57        20.05265
437.01        20.23031
437.46        20.29255
437.90        20.23409
438.35        20.15279
438.79         20.0656
439.24        19.94502
439.68        19.83967
440.13        19.89684
440.57        20.05629
441.02        20.13615
441.46        20.11638
441.91        19.96146
442.35        19.75079
442.80        19.93943
443.24        20.37645
443.69        20.26181
444.13        19.68329
444.58         19.4638
445.02        19.62379
445.47        19.72724
445.91        19.75039
446.36        19.86144
446.80        20.04416
447.24        20.24566
447.69        20.42877
448.13        20.53587
448.58        20.55575
449.02         20.5035
449.47        20.41579
449.91        20.33607
450.36        20.28777
450.80        20.25658
451.25        20.23671
451.69        20.20273
452.13        20.15184
452.58        20.09918
453.02        20.04683
453.47        20.00789
453.91        19.98281
454.36        19.97247
454.80         19.9696
455.24        19.96286
455.69        19.95339
456.13        19.93059
456.58        19.91884
457.02        19.92856
457.46        19.96517
457.91        20.02382
458.35        20.07085
458.79         20.0246
459.24        19.88775
459.68        19.73965
460.13        19.66247
460.57        19.38464
461.01         19.4835
461.46        19.51069
461.90        19.60246
462.34         19.6218
462.79        19.66043
463.23        19.64408
463.68        19.62537
464.12        19.64224
464.56        19.70214
465.01         19.8148
465.45        19.91066
465.89        19.92669
466.34        19.86092
466.78        19.72662
467.22        19.58312
467.67        19.56737
468.11        19.62333
468.55        19.78835
468.99        19.97485
469.44        20.08514
469.88        20.09803
470.32        20.03876
470.77        19.95385
471.21        19.91814
471.65        19.95118
472.10        20.02958
472.54        20.11441
472.98        20.15838
473.42        20.15171
473.87        20.12386
474.31        20.08519
474.75        20.07025
475.20         20.0935
475.64         20.1288
476.08        20.16912
476.52         20.2562
476.97        20.39491
477.41        20.47754
477.85         20.4494
478.29        20.80168
478.74        20.63477
479.18        20.64268
479.62        20.59266
480.06        20.66371
480.50        20.87553
480.95        20.80056
481.39        21.11334
481.83        21.17361
482.27        21.19107
482.72        21.18197
483.16        21.18073
483.60        21.24815
484.04        21.36432
484.48        21.50603
484.93        21.76529
485.37        22.01366
485.81        22.05838
486.25        22.74682
486.69        21.77249
487.14        21.29034
487.58         21.9071
488.02        22.65008
488.46        22.30634
488.90        22.27185
489.34        22.44418
489.79        22.40388
490.23        22.91321
490.67        23.15072
491.11         23.3113
491.55        23.39029
491.99        23.41944
492.43        23.49044
492.88        23.60765
493.32        23.68887
493.76        23.75829
494.20        23.92866
494.64        24.21231
495.08        24.54403
495.52        24.86136
495.96        25.14715
496.41        25.35137
496.85        25.30627
497.29        25.11105
497.73        25.18906
498.17        25.52416
498.61        25.66814
499.05        25.62502
499.49        25.74149
499.93        26.01818
500.37        26.25871
500.82        26.43217
501.26        26.57523
501.70        26.68124
502.14         26.7434
502.58        26.77453
503.02        26.79933
503.46        26.83148
503.90        26.86844
504.34        26.93524
504.78        27.06758
505.22        27.26503
505.66          27.515
506.10        27.76191
506.54         27.9118
506.98        27.94391
507.42        27.88846
507.86        27.79954
508.30        27.76359
508.74        27.80792
509.18        27.90986
509.62        28.04924
510.06        28.19101
510.50        28.31769
510.94        28.43674
511.38        28.54542
511.82        28.63777
512.26        28.71043
512.70        28.75876
513.14        28.77809
513.58        28.76653
514.02         28.7285
514.46        28.67043
514.90         28.6095
515.34        28.57125
515.78        28.56386
516.22        28.58374
516.66        28.61953
517.10        28.65037
517.54        28.66957
517.98        28.68153
518.42         28.6918
518.86        28.70954
519.30         28.7363
519.74        28.76656
520.18        28.79226
520.62        28.80338
521.06        28.79697
521.50        28.77437
521.93        28.74603
522.37        28.72275
522.81        28.71037
523.25        28.70774
523.69        28.70024
524.13        28.66395
524.57        28.59793
525.01        28.51226
525.45        28.43222
525.89        28.39758
526.32        28.41294
526.76        28.45865
527.20        28.50845
527.64        28.52039
528.08        28.48297
528.52        28.41505
528.96        28.32036
529.40        28.20485
529.83        28.07459
530.27        27.93437
530.71        27.81442
531.15        27.76936
531.59        27.80473
532.03        27.90312
532.46        28.00516
532.90        28.02079
533.34        27.93272
533.78        27.75004
534.22        27.53441
534.66        27.42726
535.09        27.42473
535.53        27.40184
535.97        27.34432
536.41         27.3286
536.85        27.35057
537.28        27.36345
537.72        27.37343
538.16        27.41571
538.60        27.48973
539.04        27.57692
539.47        27.66773
539.91        27.76722
540.35        27.86538
540.79        27.97525
541.22         28.0841
541.66        28.12998
542.10        28.18387
542.54        28.19557
542.97        28.21439
543.41        28.29977
543.85         28.4563
544.29        28.66953
544.72        28.89605
545.16        29.08215
545.60        29.21029
546.04        29.29478
546.47        29.37303
546.91        29.51046
547.35        29.72076
547.79        29.97328
548.22        30.20733
548.66        30.39902
549.10        30.53985
549.53        30.50494
549.97        30.61615
550.41        30.76142
550.84        31.03424
551.28        31.40248
551.72        31.79336
552.15        32.05665
552.59        32.17882
553.03        32.24788
553.46        32.29477
553.90         32.3862
554.34         32.5425
554.77        32.68705
555.21        32.78424
555.65        33.13644
556.08        33.10749
556.52        33.22889
556.96        33.30737
557.39        33.36731
557.83        33.42242
558.27         33.4227
558.70        33.39794
559.14        33.56049
559.57        33.61909
560.01        33.85441
560.45        34.08867
560.88        34.15572
561.32        34.11194
561.75        34.00562
562.19        33.94986
562.63        34.26125
563.06        34.79884
563.50        34.82194
563.93        34.40218
564.37        34.33044
564.80        34.61671
565.24        34.82788
565.68         34.9244
566.11        35.04906
566.55        35.20529
566.98        35.34008
567.42        35.47287
567.85        35.60667
568.29         35.7583
568.72        35.89872
569.16        36.05751
569.60        36.21511
570.03        36.33312
570.47        36.46694
570.90        36.66521
571.34        36.55143
571.77         36.8148
572.21        36.96589
572.64        37.22126
573.08        37.17732
573.51        37.59604
573.95        37.83019
574.38        37.50032
574.82        37.79404
575.25        38.06853
575.69        38.16139
576.12        37.90403
576.56        38.03833
576.99        38.40607
577.42         38.1206
577.86        38.12288
578.29        38.20144
578.73        38.40413
579.16        38.00171
579.60        37.42907
580.03        37.74669
580.47        37.75123
580.90        37.24393
581.33         37.8344
581.77         38.0061
582.20        37.92454
582.64        37.37479
583.07        37.44057
583.51        37.07591
583.94        36.78362
584.37        36.80752
584.81        37.15722
585.24        36.94944
585.68        36.87121
586.11        36.61836
586.54        36.58889
586.98        36.14105
587.41        36.11916
587.85        36.46695
588.28        36.33996
588.71        35.80103
589.15        36.36911
589.58        35.85238
590.01        35.95457
590.45        35.90213
590.88        36.03326
591.31        36.14889
591.75        36.20276
592.18        36.03314
592.61        35.67217
593.05        36.08114
593.48        36.13808
593.91        36.28481
594.35        36.28673
594.78        36.33212
595.21        36.43394
595.65         36.6175
596.08        36.70876
596.51        36.86365
596.94        36.82036
597.38        37.02411
597.81        37.48669
598.24        37.28473
598.68        37.93045
599.11        38.01965
599.54        38.84783
599.97        38.58134
600.41         38.9306
600.84        39.49826
601.27        39.59234
601.70        40.17076
602.14        40.58011
602.57        40.91734
603.00        41.12848
603.43        41.32127
603.87        41.77969
604.30        42.35503
604.73        42.47407
605.16        42.66856
605.60        43.02288
606.03        43.49022
606.46         43.9966
606.89        44.23092
607.32        44.35772
607.76        44.55815
608.19        44.87717
608.62        45.55589
609.05         45.9366
609.48        46.07814
609.92        46.04169
610.35        45.95766
610.78        47.26199
611.21        47.85519
611.64        47.61629
612.07        47.88811
612.50        48.09974
612.94        48.24305
613.37        48.20589
613.80        48.49851
614.23        48.59489
614.66        49.05589
615.09        48.97644
615.52         49.1169
615.96        49.31993
616.39        49.64633
616.82        50.08704
617.25        50.20927
617.68        50.49047
618.11        50.55048
618.54        50.56592
618.97        50.54526
619.40         50.5607
619.84        50.64898
620.27        50.82513
620.70        51.22179
621.13        51.74723
621.56        51.78137
621.99        51.41222
622.42         51.6912
622.85        51.60474
623.28        51.43464
623.71        51.41966
624.14        51.90133
624.57        51.99247
625.00        52.16053
625.43        52.08817
625.86        51.95308
626.29        51.78505
626.72        51.44396
627.15        51.34576
627.58        51.07152
628.01        50.78657
628.44        50.79166
628.87        50.98221
629.30        50.80801
629.73        50.32337
630.16        50.07662
630.59         50.0826
631.02        50.02653
631.45        49.85635
631.88        49.63558
632.31        49.35256
632.74         48.9936
633.17        48.60196
633.60        48.24646
634.03        47.94592
634.46        47.68798
634.89        47.44403
635.32        47.16308
635.75        46.83306
636.18        46.47313
636.61         46.1051
637.04        45.76045
637.47        45.45059
637.89        45.15681
638.32        44.84648
638.75        44.54174
639.18        44.25225
639.61         43.8024
640.04        43.54843
640.47        43.26197
640.90        43.04786
641.33        42.87711
641.76        42.72586
642.18        42.61349
642.61        42.53283
643.04        42.39496
643.47        42.16286
643.90        42.37194
644.33        42.11287
644.76        42.05912
645.18         41.9959
645.61        42.17414
646.04          42.533
646.47        42.71836
646.90        42.73666
647.33        42.88766
647.75        43.17041
648.18         43.3827
648.61        43.54128
649.04          43.727
649.47         43.9422
649.89        44.30633
650.32        44.73995
650.75        44.82579
651.18        44.68903
651.61        45.05194
652.03        45.90228
652.46        46.45149
652.89        46.64104
653.32        47.02027
653.74        47.67889
654.17        47.64749
654.60        48.21766
655.03        48.44256
655.46        48.64682
655.88        49.50565
656.31        55.27549
656.74        54.09763
657.16        49.62137
657.59        49.16601
658.02        50.64391
658.45        51.18348
658.87        51.46483
659.30         50.7815
659.73          51.564
660.15        52.23762
660.58        52.20057
661.01        52.41093
661.44        52.55821
661.86        52.73267
662.29        52.94775
662.72        53.17406
663.14        53.43442
663.57        53.74667
664.00        54.07139
664.42        54.29168
664.85        54.40199
665.27        54.43644
665.70        54.45139
666.13        54.52682
666.55        54.69146
666.98        54.91292
667.41         55.1601
667.83         55.3792
668.26        55.53822
668.69        55.65874
669.11        55.75407
669.54        55.86549
669.96        55.99505
670.39         56.0747
670.82        56.12951
671.24        56.24019
671.67         56.4102
672.09        56.59185
672.52        56.75986
672.94        56.84793
673.37         56.8532
673.80        56.79768
674.22         56.7352
674.65        56.72549
675.07        56.80388
675.50        56.93765
675.92        57.11185
676.35        57.29298
676.77        57.46719
677.20        57.63578
677.62        57.78558
678.05        57.88272
678.47        57.92327
678.90        57.92164
679.32         57.8992
679.75        57.91273
680.17        57.97091
680.60        58.06306
681.02        58.17881
681.45         58.2794
681.87        58.36443
682.30        58.45485
682.72        58.55801
683.15        58.60693
683.57        58.62941
684.00        58.72787
684.42        58.88835
684.85        59.00148
685.27        59.04628
685.70        59.11351
686.12        59.18406
686.54        59.17333
686.97        59.10214
687.39        59.13182
687.82         59.2188
688.24        59.27273
688.66        59.00667
689.09        59.17031
689.51        59.60783
689.94        59.85668
690.36        59.89381
690.78        59.88393
691.21        59.93169
691.63        60.25254
692.06        60.78848
692.48        61.17945
692.90        61.34108
693.33        61.43786
693.75        61.45882
694.17        61.20547
694.60        60.83252
695.02        60.70248
695.44        60.81027
695.87        61.01873
696.29        61.25745
696.71        61.04719
697.14        60.87657
697.56        61.15762
697.98        61.87969
698.41        62.22739
698.83        62.15136
699.25        62.10035
699.68        62.11513
700.10        62.13001
700.52        62.16118
700.94        62.18354
701.37        62.21235
701.79        62.38696
702.21        62.63673
702.64        62.78233
703.06        62.80246
703.48        62.72845
703.90        62.55055
704.33        62.64585
704.75         62.2872
705.17        62.27469
705.59        62.40077
706.01        62.62466
706.44        62.91071
706.86        63.21681
707.28        63.49466
707.70        63.79535
708.12        64.05173
708.55        64.02893
708.97        63.77594
709.39        63.61391
709.81        63.58728
710.23         63.5263
710.66        63.45057
711.08        63.51114
711.50        63.67632
711.92        63.82437
712.34        63.93447
712.76        64.04502
713.19        64.12702
713.61        64.17719
714.03        64.17825
714.45        64.12725
714.87        64.08052
715.29        64.13191
715.71        64.29615
716.13        64.54978
716.56        64.79795
716.98        64.95697
717.40        64.96691
717.82         64.8626
718.24        64.72531
718.66        64.68716
719.08        64.77863
719.50        64.95514
719.92        65.14761
720.34        65.24486
720.76        65.21726
721.19        65.10634
721.61        64.96446
722.03        64.86262
722.45        64.83402
722.87        64.86819
723.29        64.94859
723.71        65.05048
724.13        65.15708
724.55        65.25631
724.97         65.3771
725.39        65.56408
725.81        65.81192
726.23        66.10736
726.65        66.33575
727.07        66.31718
727.49        66.03698
727.91        65.56349
728.33        65.09234
728.75        64.93537
729.17         65.1578
729.59        65.65274
730.01        66.23624
730.43        66.60619
730.85        66.67134
731.27        66.46574
731.69        66.21751
732.10          65.967
732.52        65.81625
732.94        65.70542
733.36        65.67871
733.78        65.79684
734.20        66.03899
734.62        66.46079
735.04        66.93404
735.46        67.07076
735.88        66.91145
736.30        66.92032
736.72        67.08577
737.13        67.06074
737.55        66.83157
737.97        66.59112
738.39        66.43948
738.81        66.55365
739.23        66.89192
739.65         67.1233
740.06        67.16416
740.48        67.27776
740.90        67.42564
741.32        67.45549
741.74        67.36884
742.16        67.27256
742.57        67.19035
742.99        67.11192
743.41        67.09477
743.83        67.14177
744.25        67.28983
744.67         67.6898
745.08        68.21194
745.50        68.39799
745.92        68.19617
746.34        67.79068
746.75        67.32299
747.17        66.99536
747.59        66.86129
748.01        66.89667
748.42        67.04108
748.84        67.12902
749.26         67.1571
749.68        67.20688
750.09        67.29469
750.51        67.49908
750.93        67.75344
751.35         67.8057
751.76        67.69772
752.18        67.71777
752.60         67.8829
753.01        68.06412
753.43        68.21082
753.85        68.28996
754.27        68.28167
754.68        68.46738
755.10        68.39792
755.52        68.51437
755.93        68.66068
756.35        68.81008
756.77        68.94356
757.18        68.96862
757.60        68.89461
758.02        68.94781
758.43        69.00559
758.85        68.60343
759.26        68.00167
759.68        67.73254
760.10        68.41534
760.51        68.99609
760.93        69.47601
761.34        68.99007
761.76        69.21568
762.18        68.70398
762.59        68.19927
763.01        68.33604
763.42        69.06742
763.84        69.38377
764.26        69.20741
764.67        69.03658
765.09        68.98325
765.50        69.04707
765.92        69.14102
766.33        69.01608
766.75        68.63857
767.16        68.60091
767.58        68.92196
768.00        69.08133
768.41         69.1668
768.83        69.97703
769.24        71.21619
769.66         71.4959
770.07        70.87349
770.49        70.53595
770.90        70.58961
771.32        70.48125
771.73        70.21371
772.15        70.00761
772.56        69.91123
772.97        69.76572
773.39        69.88206
773.80         69.9817
774.22        70.11195
774.63        70.32554
775.05        70.54507
775.46        70.70157
775.88        70.74102
776.29        70.70523
776.70        70.63659
777.12        70.63463
777.53         70.7372
777.95        70.89218
778.36        71.04687
778.77        71.07022
779.19        70.94004
779.60        70.76564
780.02        70.59573
780.43        70.39469
780.84        70.27341
781.26        70.41972
781.67        70.76105
782.09        71.11131
782.50         71.2982
782.91          70.951
783.33        70.28474
783.74        70.12405
784.15        70.56623
784.57         71.1371
784.98        71.71712
785.39        72.25475
785.81        72.66711
786.22        72.73434
786.63        72.90419
787.04        72.88738
787.46        72.86481
787.87        72.76741
788.28        72.66808
788.70        72.65195
789.11        72.70782
789.52        72.85024
789.93         73.0006
790.35        73.01561
790.76        72.89119
791.17        72.65067
791.58        72.38873
792.00        72.26203
792.41        72.32202
792.82        72.45368
793.23        72.57281
793.65        72.73747
794.06        72.83803
794.47        72.46327
794.88        71.84669
795.29        71.66924
795.71         71.9164
796.12        72.37187
796.53        72.83482
796.94        73.05682
797.35        72.92097
797.76        72.51535
798.18        72.05861
798.59        71.84914
799.00        71.97092
799.41        72.32021
799.82        72.76541
800.23        73.08421
800.64         73.1982
801.06         73.1637
801.47        73.05429
801.88        72.89252
802.29        72.71537
802.70        72.49822
803.11         72.3252
803.52        72.33779
803.93        72.57111
804.34        73.00796
804.75        73.50797
805.17        73.87011
805.58        74.08205
805.99        73.93262
806.40        73.58872
806.81        73.89812
807.22        74.64545
807.63        74.44241
808.04        73.41475
808.45        72.97438
808.86        73.21931
809.27        73.34828
809.68        73.30149
810.09        73.35848
810.50        73.50198
810.91        73.66682
811.32        73.79353
811.73        73.78388
812.14        73.62801
812.55        73.36031
812.96        73.12072
813.37        73.14391
813.78        73.47357
814.19        74.02297
814.60        74.61597
815.01        74.98576
815.42        75.06194
815.83        74.91502
816.24        74.62978
816.65        74.37691
817.05        74.24215
817.46        74.16309
817.87        74.14451
818.28        74.14761
818.69        74.15328
819.10         74.1731
819.51        74.22643
819.92         74.3316
820.33        74.47317
820.74        74.62625
821.14        74.70504
821.55         74.6163
821.96        74.34355
822.37          73.946
822.78         73.5348
823.19        73.30933
823.60        73.34623
824.00        73.61111
824.41        74.02197
824.82        74.54367
825.23        75.10828
825.64        75.69122
826.04        76.19852
826.45        76.39709
826.86        76.27109
827.27        75.88622
827.68        75.32558
828.08        74.76688
828.49        74.25931
828.90        73.78214
829.31        73.44941
829.72         73.4181
830.12        73.73282
830.53         74.3388
830.94        74.97754
831.35        75.12401
831.75        74.68065
832.16        73.75241
832.57        72.80391
832.97        72.54472
833.38        73.09763
833.79        74.23174
834.20        75.51945
834.60        76.22274
835.01        76.09731
835.42        75.41592
835.82        74.47167
836.23        73.70961
836.64         73.2939
837.04        73.09939
837.45        73.08958
837.86           73.28
838.26        73.63563
838.67        74.12528
839.08        74.62468
839.48        74.87695
839.89        74.81039
840.29        74.49939
840.70        74.05515
841.11         73.6363
841.51        73.33125
841.92        73.07862
842.33        72.97576
842.73        73.18067
843.14        73.65273
843.54        74.40862
843.95        75.20242
844.35        75.68557
844.76         75.7239
845.17         75.3894
845.57        74.92264
845.98        74.71125
846.38        74.86994
846.79        75.27596
847.19        75.71079
847.60         75.7099
848.00        75.20659
848.41        74.36106
848.81        73.50104
849.22        73.09082
849.62        73.25318
850.03        73.80915
850.43        74.53756
850.84        74.90456
851.24        74.82351
851.65        74.42378
852.05        73.94383
852.46        73.73258
852.86        73.86958
853.27        74.20975
853.67         74.6319
854.07        75.17911
854.48        75.75673
854.88        76.49064
855.29        77.03829
855.69        77.02157
856.10        76.25254
856.50        74.97359
856.90         73.6532
857.31         72.9841
857.71        73.10126
858.12        73.74731
858.52        74.70821
858.92        75.33612
859.33        75.37371
859.73        75.06595
860.13        74.44619
860.54        73.59866
860.94        72.62832
861.34        71.50161
861.75        70.50037
862.15        70.17618
862.55        70.61942
862.96        71.67102
863.36        72.95686
863.76        73.75072
864.17        73.85067
864.57        73.46404
864.97        72.85158
865.38        72.47392
865.78        72.50058
866.18        72.73753
866.58        73.07482
866.99        73.33088
867.39        73.45966
867.79        73.55342
868.19        73.53867
868.60        73.24606
869.00        72.67485
869.40        71.85738
869.80         71.0965
870.21        70.95887
870.61        71.61211
871.01        72.80141
871.41        74.03874
871.81        74.58669
872.22        74.27794
872.62        73.34967
873.02        72.14854
873.42        71.25728
873.82        70.89165
874.22        70.90359
874.63        71.16873
875.03        71.48204
875.43        71.76233
875.83        72.07945
876.23        72.45697
876.63        72.91445
877.03        73.42735
877.44         73.9065
877.84        74.28635
878.24        74.43267
878.64        74.31799
879.04        74.00484
879.44        73.57223
879.84        73.13313
880.24        72.74458
880.64        72.40434
881.04        72.16582
881.44         72.0927
881.84        72.20162
882.24        72.49982
882.65        72.87682
883.05        73.23315
883.45        73.46482
883.85        73.56733
884.25        73.65151
884.65        73.90453
885.05        74.36273
885.45        74.98427
885.85        75.57039
886.25        75.78818
886.65        75.55703
887.05        74.95734
887.45        74.30319
887.85        74.08447
888.25        74.39832
888.65        75.11192
889.04        75.83189
889.44        75.89517
889.84        75.19342
890.24        73.95984
890.64        72.67354
891.04        72.01703
891.44        72.13732
891.84        72.85078
892.24        73.74488
892.64        74.11682
893.04        73.78751
893.44        72.97382
893.83        72.12495
894.23        71.93765
894.63        72.51414
895.03        73.61166
895.43        74.76838
895.83        75.16219
896.23        74.60036
896.63        73.45052
897.02        72.10981
897.42        71.23621
897.82        70.93873
898.22        71.05794
898.62        71.53158
899.01        72.28574
899.41        73.17345
899.81        74.22487
900.21        75.31575
900.61        76.22157
901.00        76.83836
901.40        77.13004
901.80        77.10278
902.20        76.82198
902.59        76.35096
902.99        75.71017
903.39        75.01179
903.79        74.42325
904.18        73.99956
904.58        73.76379
904.98        73.67338
905.38        73.64591
905.77         73.6462
906.17        73.71116
906.57        73.80772
906.96         73.9003
907.36        73.96138
907.76        73.99375
908.15        74.06577
908.55        74.25069
908.95        74.57633
909.34        75.02415
909.74        75.47008
910.14        75.79472
910.53        75.94836
910.93        75.95722
911.33        75.88816
911.72        75.85029
912.12        75.88578
912.52        75.94479
912.91        75.94872
913.31         75.7606
913.70        75.38035
914.10         74.8973
914.49        74.41745
914.89        74.07573
915.29        73.91872
915.68        73.88761
916.08        74.00167
916.47        74.30618
916.87        74.75961
917.26         75.3399
917.66        75.85033
918.05        75.98627
918.45        75.70436
918.84        75.13342
919.24        74.51168
919.64        74.35931
920.03        74.81403
920.42        75.65742
920.82        76.64882
921.21        77.45767
921.61        77.93497
922.00         78.1911
922.40        78.15228
922.79        77.79108
923.19        77.14661
923.58        76.26128
923.98        75.33725
924.37        74.58313
924.77        74.08976
925.16        73.83719
925.55        73.77895
925.95        73.75935
926.34        73.75991
926.74        73.77798
927.13        73.97775
927.52        74.51958
927.92        75.38366
928.31        76.48405
928.70        77.54041
929.10        78.14224
929.49        78.20255
929.89        77.81547
930.28        77.22306
930.67        76.79197
931.07        76.63189
931.46        76.63591
931.85        76.72227
932.24        76.75487
932.64        76.68526
933.03        76.63496
933.42        76.51348
933.82        76.17981
934.21        75.63734
934.60         74.8986
934.99        74.27179
935.39        74.20074
935.78        74.78999
936.17        75.95726
936.56        77.20958
936.96        77.63861
937.35        77.05997
937.74        75.70324
938.13        74.25672
938.53        73.64851
938.92        74.00402
939.31         75.0985
939.70        76.38625
940.09         76.8705
940.49         76.2861
940.88         74.9958
941.27         73.5855
941.66        72.91463
942.05        73.19899
942.44        74.19534
942.84         75.4819
943.23        76.38081
943.62        76.57518
944.01        76.27093
944.40        75.79605
944.79        75.66889
945.18        76.01315
945.57        76.62056
945.97        77.20277
946.36        77.43168
946.75        77.19129
947.14        76.62914
947.53        75.94176
947.92        75.45348
948.31        75.28672
948.70        75.35485
949.09        75.55653
949.48         75.7271
949.87        75.82555
950.26         75.9333
950.65        76.07637
951.04          76.293
951.43        76.57008
951.82        76.80449
952.21        77.02767
952.60        77.32754
952.99        77.67467
953.38         78.0388
953.77        78.17175
954.16        77.64601
954.55        76.44993
954.94        74.83075
955.33        73.20642
955.72         72.1933
956.11        71.94862
956.50        72.27254
956.89         73.0057
957.28        73.87756
957.66        74.78099
958.05        75.65514
958.44        76.29886
958.83         76.3019
959.22        75.61835
959.61        74.40952
960.00        73.06121
960.39        72.12926
960.78        71.75629
961.16         71.8571
961.55         72.2687
961.94        72.80762
962.33        73.36416
962.72        73.98913
963.11         74.5821
963.49        74.95953
963.88        75.01537
964.27        74.80747
964.66        74.44695
965.04        74.12667
965.43        73.89593
965.82         73.6902
966.21        73.55334
966.60        73.54796
966.98        73.69328
967.37        73.98868
967.76        74.26527
968.15        74.20284
968.53        73.75893
968.92        73.00476
969.31         72.2666
969.69        72.07166
970.08        72.48194
970.47          73.352
970.86        74.30403
971.24        74.66128
971.63        74.17017
972.02        73.10816
972.40        71.82344
972.79        70.87838
973.17        70.45776
973.56          70.397
973.95        70.58315
974.33        70.86263
974.72        71.10199
975.11        71.31736
975.49        71.60552
975.88        72.05756
976.26        72.74306
976.65        73.57267
977.04        74.17351
977.42        73.94194
977.81        72.82326
978.19        70.98337
978.58         69.4702
978.96         69.6324
979.35        71.67822
979.74        75.31823
980.12        79.53693
980.51        81.63927
980.89        80.94907
981.28        78.04447
981.66        74.34774
982.05        72.26329
982.43        72.41849
982.82        74.08649
983.20        76.61503
983.59        78.66165
983.97        79.81084
984.35        80.45481
984.74        80.46166
985.12        79.73181
985.51        78.34013
985.89        76.21034
986.28        74.07716
986.66        73.01973
987.04         73.3848
987.43        74.94025
987.81        76.88688
988.20        77.58077
988.58        76.66573
988.96        74.48792
989.35        72.15656
989.73        71.43628
990.12        72.67101
990.50        75.34558
990.88        78.19936
991.27        79.19241
991.65        77.93509
992.03        75.15918
992.42        72.11398
992.80        70.45153
993.18         70.7269
993.56        72.34375
993.95        74.59556
994.33        76.58813
994.71        77.68848
995.10        78.19318
995.48        78.07266
995.86        77.24505
996.24        75.87349
996.63         74.0276
997.01        72.09358
997.39         70.6559
997.77        69.86237
998.15        69.62652
998.54        69.87418
998.92          70.424
999.30        71.14277
999.68         72.0478
1000.06        72.94735
1000.45        73.47244
1000.83        73.64627
1001.21        73.43844
1001.59        72.96529
1001.97        72.51918
1002.35        72.21584
1002.73        71.96534
1003.12         71.8939
1003.50        72.11347
1003.88        72.64114
1004.26         73.5092
1004.64        74.32402
1005.02        74.48531
1005.40        73.91295
1005.78        72.69556
1006.16        71.48186
1006.54        71.44447
1006.92        72.81326
1007.30        75.20514
1007.69        77.53648
1008.07        78.27264
1008.45        76.97443
1008.83        74.21336
1009.21        70.98482
1009.59        68.94373
1009.97        68.65128
1010.35        69.67236
1010.73        71.59062
1011.11        73.63293
1011.49        75.48201
1011.86        77.56946
1012.24        79.57394
1012.62        81.36988
1013.00        82.85091
1013.38        83.71758
1013.76        84.26398
1014.14        85.26236
1014.52        86.83142
1014.90        88.79681
1015.28        90.14367
1015.66        89.14644
1016.04        85.84592
1016.41        81.32806
1016.79        77.09393
1017.17        74.20231
1017.55        72.53254
1017.93        71.63611
1018.31        71.12503
1018.69         70.2607
1019.06        69.01408
1019.44        68.01047
1019.82        67.43542
1020.20        67.27449
1020.58        67.50648
1020.95        68.03648
1021.33        69.12598
1021.71        70.90234
1022.09        73.15248
1022.46        75.52692
1022.84        77.64401
1023.22        79.48386
1023.60        81.00394
1023.97        82.24432
1024.35        82.60747
1024.73        81.18529
