SpectraSmart Spectrum 2.9.0.0
--------- Device Information -----------
Spectrum Name :  反射率_0
Saving Time :  2024/05/01 17:19:31
Spectro-Module Model Name : SE2030-DUVN
Spectro-Module Serial Number : OS361AC55029948
Wavelength Start : 200
Wavelength End : 1025
Wavelength Unit : Wavelength(nm)
Spectrum Unit : Reflectance(%)
-----------Spectrum Setting ------------
Integration Time : 20ms
Average : 10
Boxcar : 0
Background removal :  enabled
linearity correction :  enabled
SC :  disabled
Intensity correction :  disabled
DWT denoise :  enabled
savitzky-golay :  disabled
FFT :  disabled
Running average :  disabled
Kalman :  disabled
High pass :  disabled
---------------BEGIN--------------------
Wavelength(nm)             Reflectance(%)
200.29               0
200.75        225.7691
201.21         1056.63
201.67       -471.9957
202.13       -178.4122
202.58       -81.02708
203.04       -23.54769
203.50         12.0708
203.96        29.24166
204.42        33.01692
204.88        19.09062
205.34       -473.4801
205.80        126.5088
206.26        97.36844
206.72        91.49825
207.18        118.3415
207.64        1.000242
208.10        27.97471
208.55        30.17153
209.01        28.52271
209.47        27.03307
209.93        25.59747
210.39        22.64929
210.85        16.90641
211.31        3.255097
211.77       -47.58057
212.23        350.1896
212.69        114.0081
213.14        114.0023
213.60         190.236
214.06       -729.3052
214.52       -94.99409
214.98       -50.93404
215.44       -35.91154
215.90       -24.04904
216.36        54.45194
216.81       -51.56826
217.27       -32.35762
217.73        -108.772
218.19       -68.32442
218.65       -73.32237
219.11         -92.995
219.57       -152.5683
220.02       -354.3922
220.48       -141.3251
220.94       -35.21784
221.40       -11.46482
221.86       -2.661562
222.32        3.528022
222.77        10.76849
223.23        20.67195
223.69        33.35146
224.15        40.97337
224.61        39.20362
225.06        33.39041
225.52        29.00064
225.98        28.22692
226.44        30.75379
226.90        36.09702
227.36        43.45112
227.81        47.77983
228.27        46.63018
228.73         43.1987
229.19        40.19341
229.65         39.1051
230.10        39.78055
230.56        41.75476
231.02        44.77201
231.48        47.66074
231.93        49.24493
232.39        50.07143
232.85        50.18042
233.31        49.67675
233.77        48.86883
234.22        47.85815
234.68        47.08605
235.14        47.23853
235.60        48.49938
236.05        51.04987
236.51        54.90954
236.97        58.83587
237.43         61.0643
237.88        61.11761
238.34        59.12263
238.80        56.45838
239.26        53.23125
239.71        48.52527
240.17        41.06967
240.63        31.64602
241.08        24.46007
241.54        22.59577
242.00        24.93394
242.46        29.13749
242.91        35.78146
243.37        46.54936
243.83         65.5035
244.28        87.26578
244.74        94.12769
245.20        89.42101
245.66        81.71172
246.11        74.04318
246.57        64.92834
247.03        50.56372
247.48        25.31532
247.94       -10.91388
248.40       -44.72218
248.85       -67.21299
249.31       -68.93524
249.77       -51.08049
250.22       -26.19599
250.68       -2.338249
251.14        15.61425
251.59        26.00437
252.05        31.25314
252.51        33.15113
252.96        29.68674
253.42        21.36379
253.88        18.55568
254.33        23.40685
254.79         29.1958
255.25        34.67308
255.70        39.78128
256.16        44.70163
256.62        48.96066
257.07        51.92316
257.53        54.04224
257.99        55.47237
258.44        56.30077
258.90        57.01244
259.35        57.36573
259.81        57.59988
260.27        57.48142
260.72        56.78776
261.18        55.88005
261.63        54.70576
262.09        53.64139
262.55        52.70042
263.00        51.79949
263.46        51.01643
263.91        50.24598
264.37        49.65259
264.83        49.16878
265.28        48.78532
265.74        48.41747
266.19        47.69406
266.65        46.70785
267.11        45.47195
267.56        44.36298
268.02        44.06589
268.47         44.6099
268.93        45.73444
269.38         46.8335
269.84        46.87943
270.30        45.69093
270.75        43.61713
271.21        41.30859
271.66        39.61583
272.12        38.82729
272.57        38.61992
273.03        38.73039
273.48        38.69273
273.94        38.38443
274.39        37.92433
274.85        37.42466
275.31         36.9479
275.76        36.50572
276.22        36.10777
276.67        35.65556
277.13        35.15681
277.58        34.55719
278.04        33.91162
278.49        33.29436
278.95        32.93756
279.40        32.79356
279.86        32.81464
280.31        32.74622
280.77         32.3408
281.22        31.53567
281.68        30.52798
282.13        29.46042
282.59        28.62119
283.04        28.04389
283.50        27.68534
283.95        27.47879
284.41        27.38289
284.86        27.33629
285.32        27.34982
285.77         27.3844
286.22        27.42045
286.68        27.44478
287.13        27.43552
287.59        27.34151
288.04         27.0542
288.50        26.61119
288.95        26.02479
289.41        25.48678
289.86        25.18606
290.32        25.16832
290.77        25.35875
291.22        25.58915
291.68        25.58813
292.13        25.30898
292.59        24.87806
293.04        24.45348
293.50        24.33458
293.95        24.56598
294.40        25.04254
294.86        25.63881
295.31        26.17197
295.77        26.56459
296.22        26.86604
296.68        27.06928
297.13        27.14791
297.58        27.13336
298.04        27.05075
298.49        26.97523
298.95        27.07133
299.40          27.352
299.85        27.76547
300.31        28.24829
300.76        28.69596
301.21         29.0709
301.67        29.40916
302.12        29.65602
302.58         29.7577
303.03        29.70648
303.48        29.54479
303.94        29.40376
304.39        29.42312
304.84        29.64237
305.30        29.99745
305.75        30.38527
306.20        30.65959
306.66        30.78005
307.11        30.77708
307.57        30.68349
308.02        30.49974
308.47        30.26205
308.93        29.98071
309.38         29.6931
309.83         29.5076
310.29        29.44852
310.74        29.48433
311.19        29.55866
311.65        29.56493
312.10        29.47003
312.55        29.30413
313.00        29.11599
313.46        28.98423
313.91        28.92045
314.36        28.89281
314.82         28.8567
315.27        28.75611
315.72         28.5733
316.18         28.3402
316.63        28.07715
317.08        27.81397
317.53        27.56222
317.99         27.3161
318.44        27.07817
318.89        26.87071
319.35        26.69822
319.80        26.55631
320.25        26.42754
320.70        26.27572
321.16        26.08718
321.61        25.87854
322.06        25.66308
322.51        25.46866
322.97        25.29974
323.42         25.1564
323.87        25.02798
324.32        24.90645
324.78        24.78137
325.23          24.663
325.68        24.54201
326.13         24.4088
326.59        24.25424
327.04        24.09161
327.49        23.91295
327.94         23.7175
328.39        23.50713
328.85         23.2739
329.30        23.04851
329.75        22.85747
330.20        22.70899
330.66        22.59621
331.11        22.49537
331.56        22.33871
332.01        22.11576
332.46        21.84757
332.92        21.58162
333.37        21.42382
333.82        21.39199
334.27        21.46379
334.72        21.58747
335.17        21.67171
335.63        21.67317
336.08        21.62008
336.53         21.5481
336.98        21.52921
337.43        21.57972
337.88        21.67948
338.34        21.75892
338.79        21.71924
339.24        21.53792
339.69        21.25182
340.14        20.96917
340.59        20.85737
341.05        20.94346
341.50        21.18061
341.95         21.4489
342.40        21.55315
342.85        21.44941
343.30        21.21094
343.75        20.93511
344.20        20.77333
344.66        20.76868
345.11        20.85345
345.56         21.0001
346.01         21.1599
346.46        21.30052
346.91        21.44053
347.36        21.52652
347.81        21.47509
348.26        21.28717
348.72        20.99801
349.17        20.69068
349.62        20.54028
350.07         20.5809
350.52        20.75561
350.97        20.97087
351.42        21.06667
351.87        21.00157
352.32        20.84064
352.77        20.61771
353.22          20.387
353.67        20.17587
354.13         19.9622
354.58        19.79173
355.03        19.76719
355.48        19.89504
355.93        20.16287
356.38        20.42957
356.83        20.45226
357.28        20.19261
357.73        19.73322
358.18        19.28024
358.63        19.14316
359.08        19.37641
359.53        19.87562
359.98        20.45308
360.43        20.78735
360.88        20.78117
361.33        20.53703
361.78         20.1857
362.23        19.92207
362.68        19.80157
363.13        19.75653
363.58        19.73961
364.03        19.68277
364.48        19.56093
364.93        19.40687
365.38        19.23491
365.83        19.05406
366.28        18.87253
366.73        18.69036
367.18        18.50472
367.63        18.31656
368.08        18.13592
368.53        17.97023
368.98         17.8452
369.43        17.79611
369.88        17.81855
370.33         17.8884
370.78        17.96354
371.23        17.97261
371.68        17.89061
372.13        17.74056
372.58        17.53562
373.03        17.29425
373.48        17.03529
373.93        16.76402
374.38        16.52175
374.83        16.37734
375.28        16.34447
375.72        16.39798
376.17        16.49661
376.62        16.57132
377.07        16.59475
377.52        16.57902
377.97        16.51644
378.42        16.39997
378.87        16.23868
379.32        16.03889
379.77        15.83414
380.22        15.67715
380.67           15.58
381.11        15.53376
381.56        15.51676
382.01         15.4926
382.46        15.45203
382.91        15.41089
383.36        15.36746
383.81        15.32128
384.26        15.26985
384.71        15.19681
385.15        15.12218
385.60        15.09756
386.05        15.11996
386.50        15.18406
386.95        15.21928
387.40        15.11567
387.85        14.87341
388.29        14.53114
388.74        14.23097
389.19        14.12386
389.64        14.22842
390.09        14.47486
390.54        14.76256
390.98        14.92687
391.43        14.92347
391.88        14.81569
392.33        14.63978
392.78        14.45304
393.23        14.28359
393.67        14.08987
394.12        13.93008
394.57        13.90402
395.02        13.99707
395.47        14.10061
395.91        14.17115
396.36         14.2073
396.81        14.19901
397.26        14.11868
397.71         14.0052
398.15        13.95564
398.60        13.99778
399.05        14.03331
399.50        14.05041
399.95        14.14016
400.39        14.24799
400.84        14.13483
401.29        13.82928
401.74        13.60558
402.18        13.49626
402.63        13.35261
403.08        13.20313
403.53          13.151
403.97        13.19624
404.42        13.31091
404.87        13.43304
405.32        13.46113
405.76        13.37048
406.21        13.19688
406.66        13.00042
407.11        12.88031
407.55        12.86613
408.00        12.92964
408.45        13.02456
408.90        13.05119
409.34        12.99129
409.79        12.90541
410.24        12.82658
410.68        12.76942
411.13        12.74685
411.58        12.76118
412.03        12.78664
412.47        12.77479
412.92        12.71424
413.37        12.62339
413.81        12.53663
414.26        12.51454
414.71        12.56241
415.15        12.66807
415.60        12.77678
416.05         12.8137
416.49         12.7576
416.94        12.62762
417.39        12.48127
417.83        12.41019
418.28        12.43496
418.73        12.52814
419.17        12.62702
419.62        12.62354
420.07        12.50478
420.51        12.31208
420.96        12.12642
421.41        12.04903
421.85        12.09566
422.30         12.2276
422.74        12.39544
423.19        12.54011
423.64        12.63512
424.08         12.7031
424.53        12.71835
424.98        12.66008
425.42        12.53625
425.87        12.36278
426.31        12.18005
426.76        12.06396
427.21        12.02678
427.65        12.04635
428.10        12.11952
428.54        12.23184
428.99        12.36534
429.44        12.53805
429.88        12.66903
430.33        12.64385
430.77        12.45846
431.22        12.16481
431.66        11.87236
432.11        11.77632
432.56          11.871
433.00        12.07225
433.45        12.23517
433.89        12.07387
434.34        11.59743
434.78         11.5901
435.23        12.09401
435.67        12.26882
436.12        12.11129
436.57         12.0698
437.01        12.15646
437.46        12.15655
437.90        12.06537
438.35        11.96496
438.79        11.87425
439.24        11.79059
439.68        11.74409
440.13        11.81399
440.57        11.95181
441.02        12.02598
441.46        12.01753
441.91        11.90986
442.35        11.75987
442.80        11.85352
443.24        12.10232
443.69        12.02671
444.13        11.67315
444.58        11.52266
445.02          11.585
445.47        11.60673
445.91        11.58021
446.36        11.61148
446.80        11.69466
447.24        11.79803
447.69        11.89651
448.13        11.95316
448.58        11.95936
449.02        11.92459
449.47        11.87426
449.91        11.83983
450.36         11.8348
450.80        11.84739
451.25        11.86467
451.69        11.85722
452.13        11.82091
452.58        11.77022
453.02        11.71675
453.47        11.68639
453.91        11.68371
454.36         11.7028
454.80        11.73166
455.24        11.74818
455.69        11.74815
456.13        11.72892
456.58        11.71038
457.02        11.70602
457.46        11.72191
457.91        11.75321
458.35        11.77511
458.79        11.73113
459.24        11.62506
459.68        11.50684
460.13         11.4369
460.57        11.27002
461.01         11.3462
461.46        11.39732
461.90        11.49458
462.34        11.53991
462.79        11.58098
463.23        11.57603
463.68        11.56062
464.12        11.56435
464.56        11.59493
465.01        11.65486
465.45        11.70042
465.89        11.68612
466.34        11.61293
466.78         11.4936
467.22        11.37267
467.67         11.3468
468.11        11.38628
468.55        11.50621
468.99        11.65108
469.44        11.75765
469.88        11.80932
470.32        11.82034
470.77        11.80382
471.21        11.77721
471.65        11.75151
472.10        11.72283
472.54        11.69551
472.98        11.68535
473.42        11.69609
473.87        11.73196
474.31        11.77643
474.75        11.81507
475.20        11.84519
475.64        11.85929
476.08        11.86418
476.52        11.90146
476.97        11.97859
477.41        12.02903
477.85        12.00974
478.29        12.19302
478.74        12.05147
479.18         11.9995
479.62        11.92269
480.06        11.95846
480.50        12.12143
480.95        12.14568
481.39         12.4003
481.83        12.47342
482.27        12.47794
482.72        12.43298
483.16        12.37038
483.60        12.35963
484.04        12.39854
484.48        12.45349
484.93        12.57525
485.37        12.72778
485.81        12.77445
486.25        13.17096
486.69        12.34739
487.14        12.10561
487.58        12.78235
488.02        12.75107
488.46        12.76122
488.90        12.87549
489.34        12.76223
489.79        12.77291
490.23        13.08288
490.67        13.34173
491.11        13.57024
491.55        13.58492
491.99        13.43788
492.43        13.41767
492.88        13.54692
493.32        13.63265
493.76        13.66808
494.20        13.75184
494.64         13.8889
495.08        14.03861
495.52        14.17711
495.96        14.31941
496.41        14.44381
496.85        14.42916
497.29        14.33768
497.73        14.45893
498.17        14.76394
498.61        14.90228
499.05        14.86446
499.49        14.91899
499.93        15.06811
500.37        15.14968
500.82        15.17661
501.26        15.24327
501.70        15.35687
502.14        15.49145
502.58        15.61365
503.02        15.67224
503.46        15.66074
503.90        15.60052
504.34        15.54157
504.78        15.56212
505.22        15.67924
505.66        15.86725
506.10         16.0736
506.54        16.21046
506.98        16.25315
507.42        16.22998
507.86        16.17722
508.30        16.15127
508.74        16.17171
509.18        16.22222
509.62         16.2926
510.06        16.36739
510.50        16.43797
510.94        16.50852
511.38        16.57883
511.82        16.64592
512.26        16.70641
512.70        16.75662
513.14        16.78694
513.58        16.78581
514.02        16.75416
514.46        16.69872
514.90        16.63795
515.34        16.60098
515.78         16.5961
516.22        16.61677
516.66        16.64988
517.10         16.6726
517.54        16.67822
517.98        16.67346
518.42        16.66398
518.86        16.65918
519.30         16.6616
519.74        16.66537
520.18        16.66809
520.62        16.66789
521.06        16.66291
521.50        16.65392
521.93           16.64
522.37        16.61436
522.81        16.58019
523.25        16.54276
523.69        16.50566
524.13         16.4738
524.57        16.45015
525.01        16.43262
525.45        16.42739
525.89        16.44442
526.32          16.481
526.76        16.52829
527.20        16.56853
527.64        16.57291
528.08        16.53615
528.52        16.47126
528.96        16.38995
529.40        16.31114
529.83        16.24151
530.27        16.17962
530.71        16.13538
531.15        16.12814
531.59        16.15618
532.03        16.21135
532.46        16.26109
532.90        16.25488
533.34        16.18544
533.78        16.05902
534.22         15.9107
534.66        15.82117
535.09         15.7898
535.53        15.74724
535.97         15.6934
536.41        15.68449
536.85        15.71892
537.28        15.76474
537.72        15.81267
538.16        15.86375
538.60        15.91278
539.04        15.95565
539.47        15.99391
539.91        16.04259
540.35        16.10021
540.79        16.17035
541.22        16.24796
541.66        16.29979
542.10        16.36602
542.54        16.41682
542.97        16.47153
543.41        16.55098
543.85         16.6548
544.29        16.77851
544.72        16.90688
545.16        17.02393
545.60        17.12281
546.04        17.20486
546.47        17.28377
546.91        17.38586
547.35        17.51461
547.79        17.65772
548.22          17.781
548.66        17.87114
549.10         17.9269
549.53        17.87644
549.97        17.91885
550.41         18.0027
550.84        18.18607
551.28         18.4465
551.72         18.7323
552.15         18.9402
552.59        19.05526
553.03        19.13027
553.46        19.18621
553.90        19.26783
554.34        19.38924
554.77        19.50503
555.21        19.58803
555.65        19.81042
556.08        19.79218
556.52        19.85329
556.96         19.8944
557.39        19.95438
557.83        20.04261
558.27        20.11958
558.70        20.17777
559.14        20.30424
559.57        20.31417
560.01        20.39352
560.45         20.4585
560.88        20.44593
561.32        20.40155
561.75        20.34484
562.19        20.33414
562.63        20.54657
563.06        20.89295
563.50          20.933
563.93         20.7089
564.37         20.6968
564.80        20.90257
565.24        21.06349
565.68        21.15203
566.11        21.25143
566.55        21.36304
566.98        21.45627
567.42        21.54777
567.85        21.64983
568.29         21.7746
568.72        21.89599
569.16        22.01659
569.60         22.1372
570.03        22.25316
570.47         22.2949
570.90        22.42256
571.34        22.50282
571.77         22.5707
572.21        22.63653
572.64        22.73272
573.08        22.82953
573.51         23.2562
573.95        23.49983
574.38        23.24506
574.82        23.60504
575.25        23.41678
575.69        23.46061
576.12        23.43324
576.56        23.67162
576.99        23.64775
577.42         23.8058
577.86        23.84747
578.29         23.8167
578.73        23.70159
579.16        23.45404
579.60        23.25664
580.03        23.17451
580.47         23.3589
580.90        23.05121
581.33        23.49254
581.77        23.52115
582.20        23.32944
582.64        22.96545
583.07        22.94952
583.51         22.8149
583.94        22.80166
584.37        22.84015
584.81        22.87644
585.24        22.79023
585.68        22.62162
586.11         22.3646
586.54        22.17438
586.98        22.09964
587.41        22.13642
587.85        22.20177
588.28        21.98083
588.71        21.63289
589.15        21.98341
589.58        21.85043
590.01        21.96784
590.45        21.91931
590.88        21.87027
591.31        21.87667
591.75        21.94383
592.18        21.90334
592.61        21.70698
593.05        22.04338
593.48        21.84699
593.91        21.87356
594.35        21.98423
594.78        22.10414
595.21        22.24729
595.65        22.30555
596.08        22.31278
596.51        22.42098
596.94        22.55642
597.38        22.77494
597.81        23.09656
598.24        23.04571
598.68         23.4487
599.11        23.77544
599.54        24.08348
599.97        23.99148
600.41        24.51542
600.84        24.85423
601.27        25.05144
601.70        25.47391
602.14        25.85412
602.57        26.13853
603.00        26.29152
603.43        26.49721
603.87        26.95757
604.30        27.28713
604.73        27.57794
605.16        27.90874
605.60        28.27329
606.03        28.75748
606.46        29.23036
606.89        29.44365
607.32        29.54477
607.76         29.7882
608.19        30.17976
608.62        30.81804
609.05        31.28067
609.48        31.48975
609.92        31.40087
610.35        32.00352
610.78        32.55411
611.21        33.01072
611.64        33.15133
612.07        33.40047
612.50        33.77045
612.94        33.95872
613.37        33.99586
613.80        34.31494
614.23        34.39516
614.66         34.8432
615.09        34.94548
615.52        35.20721
615.96        35.48685
616.39        35.85686
616.82        36.28925
617.25        36.73259
617.68         37.1185
618.11        37.24088
618.54        37.16552
618.97        37.27416
619.40        37.62096
619.84         37.7966
620.27        37.82972
620.70         38.1731
621.13        38.83257
621.56        38.35673
621.99        38.73995
622.42        38.64201
622.85        38.66373
623.28        38.91048
623.71        38.72337
624.14        38.99563
624.57        39.18272
625.00        39.24393
625.43        39.23808
625.86         39.1681
626.29        39.11265
626.72        38.82185
627.15        38.76392
627.58        38.50312
628.01        38.21651
628.44         38.1352
628.87        38.18123
629.30        37.94866
629.73        37.48821
630.16        37.18898
630.59        37.05372
631.02        37.00289
631.45        36.72255
631.88        36.46068
632.31        36.12497
632.74        35.71582
633.17        35.27116
633.60        34.85713
634.03        34.49328
634.46         34.1632
634.89        33.84028
635.32        33.47857
635.75        33.06881
636.18        32.63142
636.61        32.18877
637.04        31.77125
637.47        31.38943
637.89        31.02804
638.32        30.66526
638.75        30.31738
639.18        29.99205
639.61         29.5726
640.04        29.29745
640.47         29.0064
640.90        28.76851
641.33        28.56497
641.76        28.38418
642.18         28.2476
642.61        28.15091
643.04        28.02938
643.47        27.85248
643.90        27.96419
644.33        27.76095
644.76        27.69143
645.18        27.61125
645.61        27.68366
646.04        27.86964
646.47        27.93831
646.90        27.91214
647.33        28.01314
647.75        28.24895
648.18        28.48729
648.61        28.71025
649.04        28.93234
649.47        29.14565
649.89        29.41166
650.32        29.72166
650.75        29.91944
651.18        30.06401
651.61        30.52329
652.03        31.24237
652.46        31.68892
652.89        31.88889
653.32        32.28327
653.74        32.90499
654.17        33.54453
654.60        33.82274
655.03        34.37795
655.46        34.33811
655.88        34.96592
656.31        38.90697
656.74        37.98122
657.16        35.62958
657.59         35.7796
658.02        37.21659
658.45        37.54804
658.87        38.05608
659.30        37.78952
659.73        37.91205
660.15        39.12941
660.58        39.07434
661.01        39.50055
661.44        39.69292
661.86        39.98498
662.29        40.39963
662.72        40.80592
663.14        41.21371
663.57        41.61021
664.00        41.95654
664.42        42.19326
664.85        42.32577
665.27        42.36102
665.70        42.37383
666.13        42.48925
666.55        42.74416
666.98        43.09775
667.41        43.50901
667.83        43.90204
668.26        44.23347
668.69        44.52468
669.11        44.77412
669.54        44.99933
669.96        45.19992
670.39        45.32174
670.82        45.40081
671.24        45.53108
671.67        45.72489
672.09        45.94123
672.52        46.15401
672.94        46.29694
673.37         46.3662
673.80        46.38467
674.22        46.40416
674.65        46.48338
675.07        46.65171
675.50        46.87627
675.92         47.1308
676.35        47.36948
676.77        47.57809
677.20        47.75703
677.62        47.91237
678.05        48.05715
678.47        48.18858
678.90        48.27935
679.32        48.34104
679.75        48.44162
680.17        48.58409
680.60        48.73953
681.02        48.90884
681.45        49.08264
681.87        49.26308
682.30          49.464
682.72        49.65647
683.15        49.74463
683.57        49.75026
684.00        49.74279
684.42        49.75459
684.85         49.9537
685.27        49.99879
685.70        50.24849
686.12        50.51849
686.54        50.56184
686.97        50.41247
687.39        50.41103
687.82        50.53771
688.24        50.64517
688.66        50.38787
689.09        50.56595
689.51         51.0325
689.94         51.3423
690.36         51.4625
690.78        51.64843
691.21        51.92383
691.63        52.12791
692.06        52.31834
692.48        52.70841
692.90         53.2146
693.33        53.49683
693.75        53.51945
694.17        53.39719
694.60         53.2445
695.02        53.21638
695.44         53.3035
695.87         53.4285
696.29        53.54814
696.71         53.4004
697.14        53.15548
697.56        53.54245
697.98        54.41942
698.41        54.89088
698.83        54.88927
699.25        54.90881
699.68        54.99011
700.10        55.03531
700.52        55.06287
700.94        55.05619
701.37        55.05539
701.79        55.23088
702.21        55.53066
702.64        55.78832
703.06        55.94519
703.48        55.96598
703.90        55.82773
704.33        55.87978
704.75        55.52217
705.17        55.54827
705.59        55.78731
706.01         56.1778
706.44        56.62114
706.86        56.96842
707.28        57.15627
707.70         57.2755
708.12        57.34303
708.55        57.26267
708.97        57.10867
709.39        57.13498
709.81        57.33351
710.23        57.47643
710.66        57.55047
711.08        57.69055
711.50        57.86959
711.92        58.10778
712.34        58.19383
712.76        58.31223
713.19        58.38959
713.61        58.45515
714.03        58.49632
714.45        58.50904
714.87        58.52573
715.29        58.59326
715.71        58.71972
716.13        58.89701
716.56        59.06139
716.98         59.1761
717.40        59.19967
717.82        59.15313
718.24        59.09595
718.66        59.12495
719.08         59.2607
719.50        59.47066
719.92        59.69665
720.34        59.84424
720.76        59.88752
721.19        59.85734
721.61        59.79995
722.03        59.78086
722.45        59.82767
722.87        59.92876
723.29        60.06301
723.71        60.19675
724.13        60.31442
724.55        60.41345
724.97        60.52407
725.39        60.69395
725.81        60.92228
726.23        61.19142
726.65        61.41361
727.07        61.45149
727.49        61.29028
727.91        60.98351
728.33          60.666
728.75        60.55091
729.17        60.68735
729.59        61.01104
730.01        61.41148
730.43        61.69181
730.85        61.79167
731.27        61.77977
731.69        61.70748
732.10        61.65909
732.52        61.66926
732.94        61.68267
733.36        61.72522
733.78        61.85896
734.20        62.07988
734.62        62.31467
735.04        62.70877
735.46        62.70467
735.88        62.45638
736.30        62.43217
736.72        62.63071
737.13        62.78565
737.55        62.82402
737.97        62.64965
738.39        62.39785
738.81        62.65222
739.23        63.32402
739.65         63.5866
740.06        63.38176
740.48        63.38234
740.90        63.56892
741.32        63.58572
741.74        63.42969
742.16        63.29545
742.57        63.21302
742.99        63.15113
743.41         63.1604
743.83         63.2483
744.25         63.4391
744.67        63.84171
745.08        64.34628
745.50         64.5827
745.92         64.5065
746.34        64.23878
746.75        63.87606
747.17        63.67972
747.59        63.52114
748.01        63.51766
748.42        63.59827
748.84        63.71056
749.26        63.85286
749.68        64.00005
750.09         64.1525
750.51        64.45358
750.93         64.8125
751.35         64.8743
751.76        64.71128
752.18        64.73107
752.60        64.94123
753.01        65.21234
753.43        65.47363
753.85        65.47029
754.27        65.12657
754.68        65.59167
755.10        65.04574
755.52        65.10004
755.93        65.19336
756.35        65.49418
756.77        65.62028
757.18        65.78647
757.60        65.90887
758.02        66.03332
758.43        65.99288
758.85        66.13041
759.26        65.08624
759.68         65.1369
760.10        65.79215
760.51        66.28714
760.93        66.42297
761.34        66.19971
761.76        66.19316
762.18        65.75611
762.59        65.30549
763.01        65.56578
763.42        66.41811
763.84        66.77271
764.26        66.55566
764.67        66.14328
765.09        65.79482
765.50        65.99857
765.92        66.67673
766.33        66.58012
766.75        66.39639
767.16        66.20308
767.58        66.30164
768.00        66.33363
768.41        66.42949
768.83        67.12943
769.24         68.1298
769.66        68.75086
770.07        68.56702
770.49        68.04803
770.90        67.65137
771.32        67.79083
771.73        67.87243
772.15        67.88159
772.56        67.62883
772.97        67.55049
773.39        67.64318
773.80        67.76988
774.22        67.81424
774.63        67.93965
775.05        68.06396
775.46        68.14771
775.88        68.15665
776.29        68.12936
776.70         68.0948
777.12        68.12962
777.53         68.2542
777.95        68.40555
778.36        68.57188
778.77        68.64994
779.19        68.61539
779.60         68.6937
780.02        68.81446
780.43        68.47358
780.84        67.91156
781.26        67.97804
781.67        68.60589
782.09        69.20942
782.50        69.48802
782.91        68.95213
783.33        67.94049
783.74        67.65374
784.15        68.21833
784.57        69.00581
784.98        69.79808
785.39        70.20805
785.81        70.25363
786.22        70.43956
786.63         71.0831
787.04        71.05463
787.46        70.55192
787.87        70.12372
788.28         69.9299
788.70         69.8552
789.11        69.91121
789.52        70.22134
789.93        70.64054
790.35        70.84499
790.76        70.79232
791.17        70.57285
791.58        70.30474
792.00        70.15867
792.41        70.20062
792.82        70.33157
793.23        70.46525
793.65        70.60746
794.06        70.67088
794.47        70.35876
794.88        69.87297
795.29        69.76289
795.71        70.00912
796.12        70.45579
796.53        70.91312
796.94        71.12411
797.35        70.97862
797.76        70.56879
798.18        70.10999
798.59        69.89606
799.00        70.01176
799.41        70.35744
799.82        70.81016
800.23        71.16065
800.64        71.33111
801.06        71.37004
801.47        71.33694
801.88        71.23338
802.29        71.08459
802.70        70.86909
803.11        70.67029
803.52        70.61765
803.93        70.74622
804.34        71.08218
804.75        71.49824
805.17        71.71237
805.58        71.76849
805.99        71.69315
806.40        71.58324
806.81        71.95441
807.22        72.56145
807.63        72.18807
808.04         71.0259
808.45        70.52394
808.86        70.80627
809.27        71.06002
809.68        71.17651
810.09           71.35
810.50        71.53336
810.91        71.67983
811.32        71.76267
811.73        71.74042
812.14        71.62068
812.55        71.42118
812.96        71.25075
813.37        71.29411
813.78        71.58501
814.19         72.0566
814.60        72.57661
815.01        72.94323
815.42        73.09832
815.83        73.09013
816.24         72.9559
816.65         72.7772
817.05        72.60663
817.46        72.40805
817.87        72.22717
818.28        72.08363
818.69        71.98084
819.10        71.92625
819.51        71.93114
819.92        71.99823
820.33        72.11509
820.74        72.26691
821.14         72.3993
821.55        72.46659
821.96        72.44841
822.37        72.36961
822.78        72.27538
823.19        72.24834
823.60        72.32295
824.00        72.49976
824.41        72.72135
824.82        73.00028
825.23        73.30441
825.64        73.60164
826.04        73.87159
826.45        74.00246
826.86         73.9957
827.27        73.88955
827.68        73.64548
828.08        73.22753
828.49        72.63293
828.90        71.90332
829.31        71.26012
829.72        71.04015
830.12        71.34384
830.53        72.06532
830.94        72.90361
831.35        73.25534
831.75        72.97952
832.16         72.2013
832.57        71.37312
832.97        71.18562
833.38        71.76265
833.79        72.87045
834.20        74.09749
834.60        74.74278
835.01        74.58015
835.42        73.88107
835.82        72.93952
836.23        72.19861
836.64        71.81497
837.04        71.65604
837.45        71.68404
837.86        71.90476
838.26        72.28364
838.67        72.81011
839.08        73.32408
839.48        73.51507
839.89        73.31033
840.29        72.78505
840.70        72.17328
841.11        71.82766
841.51        71.85461
841.92        72.13389
842.33        72.54002
842.73         72.8644
843.14        72.98869
843.54        73.03577
843.95        73.02416
844.35        73.06627
844.76        73.15921
845.17        73.23479
845.57        73.30689
845.98        73.39838
846.38        73.52192
846.79        73.68098
847.19        73.76955
847.60        73.51778
848.00        72.93685
848.41        72.10785
848.81        71.34837
849.22        71.12251
849.62        71.53146
850.03        72.40624
850.43        73.44565
850.84        73.96689
851.24        73.83885
851.65        73.21699
852.05        72.43022
852.46        72.00038
852.86        72.06629
853.27        72.44537
853.67        72.94549
854.07        73.50069
854.48        73.99355
854.88        74.57285
855.29        74.96616
855.69         74.9256
856.10        74.29605
856.50        73.25723
856.90         72.1589
857.31        71.52872
857.71        71.47559
858.12        71.80647
858.52        72.39361
858.92        72.76324
859.33        72.73647
859.73        72.50462
860.13        72.08811
860.54        71.55098
860.94        70.96019
861.34        70.27268
861.75        69.67068
862.15        69.53265
862.55        69.90649
862.96        70.67924
863.36        71.56876
863.76        72.01269
864.17        71.87282
864.57        71.32532
864.97        70.63126
865.38        70.23852
865.78        70.30357
866.18        70.65284
866.58        71.13286
866.99        71.47211
867.39         71.5948
867.79        71.59831
868.19        71.47096
868.60          71.148
869.00        70.64851
869.40        69.98112
869.80        69.37331
870.21        69.25264
870.61        69.76059
871.01        70.70348
871.41        71.70183
871.81        72.18113
872.22        71.99918
872.62        71.31707
873.02        70.40826
873.42         69.7331
873.82        69.46054
874.22         69.4975
874.63        69.68614
875.03        69.76782
875.43        69.68807
875.83         69.5412
876.23        69.52277
876.63        69.92574
877.03        70.77068
877.44        71.88797
877.84        72.99551
878.24        73.58327
878.64        73.51923
879.04         72.9791
879.44        72.20509
879.84        71.56815
880.24        71.19493
880.64        70.98888
881.04        70.94105
881.44        71.02377
881.84        71.21265
882.24        71.55418
882.65        71.91666
883.05        72.15267
883.45        72.16556
883.85        71.96981
884.25        71.74155
884.65         71.7636
885.05        72.08951
885.45        72.65358
885.85        73.22966
886.25        73.42922
886.65        73.15905
887.05        72.53439
887.45         71.8677
887.85         71.6413
888.25        71.96269
888.65        72.69335
889.04        73.49416
889.44        73.79511
889.84        73.47361
890.24        72.69337
890.64        71.82932
891.04         71.4191
891.44        71.57841
891.84        72.17805
892.24        72.82949
892.64         72.8823
893.04        72.20918
893.44        71.03153
893.83        69.89265
894.23        69.61228
894.63        70.31423
895.03        71.74781
895.43        73.32237
895.83        73.96687
896.23        73.41058
896.63        72.06717
897.02        70.50446
897.42        69.63019
897.82        69.58788
898.22        70.14054
898.62        71.02591
899.01        71.82713
899.41        72.31844
899.81        72.64707
900.21        72.94495
900.61        73.41986
901.00        74.09427
901.40        74.80671
901.80        75.35475
902.20        75.46711
902.59         75.1133
902.99        74.42841
903.39        73.61355
903.79        72.98225
904.18        72.62796
904.58        72.47653
904.98        72.49117
905.38        72.61692
905.77        72.80127
906.17        73.09967
906.57        73.33889
906.96        73.24201
907.36        72.76469
907.76         71.9977
908.15        71.28123
908.55        71.13211
908.95        71.67424
909.34        72.74847
909.74        73.96517
910.14        74.75835
910.53        74.94124
910.93        74.67278
911.33         74.1694
911.72        73.77566
912.12        73.63043
912.52        73.62674
912.91        73.65375
913.31        73.53869
913.70        73.24941
914.10         72.8622
914.49         72.5325
914.89         72.4559
915.29         72.6701
915.68         73.1104
916.08        73.57044
916.47        73.73503
916.87        73.52896
917.26        73.05291
917.66        72.54119
918.05         72.3445
918.45         72.5349
918.84        73.05235
919.24        73.67167
919.64        74.07099
920.03        74.16386
920.42        74.02645
920.82        73.85209
921.21        73.95653
921.61        74.36531
922.00        74.96923
922.40        75.54004
922.79        75.76121
923.19        75.51868
923.58        74.95153
923.98        74.21164
924.37        73.42251
924.77        72.69787
925.16        72.03018
925.55        71.51774
925.95        71.29658
926.34         71.4241
926.74        71.80749
927.13         72.4922
927.52        73.43353
927.92         74.5297
928.31        75.75267
928.70        76.78242
929.10        77.14828
929.49        76.78516
929.89        75.81007
930.28        74.62569
930.67        73.87217
931.07        73.73151
931.46        74.03786
931.85        74.56356
932.24        74.91016
932.64        74.94475
933.03        74.85582
933.42        74.63678
933.82        74.28066
934.21         73.8316
934.60        73.25527
934.99        72.80465
935.39         72.8521
935.78        73.48357
936.17         74.6358
936.56        75.88209
936.96        76.42376
937.35        76.08167
937.74        75.02537
938.13        73.82071
938.53        73.23557
938.92        73.37536
939.31        74.07452
939.70        74.89159
940.09        75.02729
940.49        74.30637
940.88        73.05387
941.27        71.79382
941.66        71.29388
942.05        71.72191
942.44        72.82301
942.84        74.20717
943.23        75.23944
943.62        75.60032
944.01        75.50118
944.40        75.09196
944.79        74.62208
945.18        74.22009
945.57        73.78699
945.97        73.43487
946.36        73.46075
946.75        73.85629
947.14        74.56979
947.53        75.33869
947.92        75.65556
948.31         75.3875
948.70         74.7075
949.09        73.86496
949.48        73.23988
949.87        72.96619
950.26        72.95318
950.65        73.18294
951.04         73.6199
951.43        74.18594
951.82        74.83113
952.21         75.4593
952.60        75.94276
952.99        76.21108
953.38        76.24706
953.77        75.96625
954.16        75.25806
954.55        74.19849
954.94        72.96143
955.33        71.74976
955.72        70.84401
956.11        70.33163
956.50        70.10334
956.89        70.25485
957.28        70.92441
957.66        72.09765
958.05        73.61192
958.44        74.94712
958.83        75.11543
959.22        73.94798
959.61        71.84467
960.00        69.58826
960.39        68.29234
960.78        68.21231
961.16        69.06183
961.55        70.45258
961.94        71.82382
962.33        72.90073
962.72        73.82446
963.11        74.49097
963.49        74.71667
963.88        74.45295
964.27        73.78306
964.66        72.91678
965.04        72.19047
965.43        71.67426
965.82        71.25305
966.21        71.01877
966.60        71.09547
966.98        71.48423
967.37        72.18774
967.76        72.77216
968.15        72.48472
968.53        71.23389
968.92        69.23562
969.31        67.25231
969.69        66.48805
970.08        67.15322
970.47        68.91259
970.86        71.00648
971.24        72.02353
971.63        71.46209
972.02        69.84016
972.40        67.78738
972.79        66.28551
973.17        65.67526
973.56        65.66357
973.95        66.09096
974.33        66.76263
974.72        67.50257
975.11        68.31889
975.49        69.28923
975.88        70.42265
976.26        71.68873
976.65        72.97853
977.04        73.71222
977.42        73.01085
977.81         70.8708
978.19        67.63657
978.58           64.79
978.96        64.29655
979.35        66.50465
979.74         70.9823
980.12        76.43715
980.51        79.56969
980.89        79.38871
981.28        76.56853
981.66        72.65851
982.05        70.31093
982.43        70.26617
982.82        71.75385
983.20        74.04887
983.59        75.72934
983.97        76.39824
984.35        76.49787
984.74        76.20571
985.12        75.86678
985.51        75.59035
985.89        75.15488
986.28        74.70902
986.66        74.39735
987.04        74.35615
987.43        74.57303
987.81          74.916
988.20        74.93366
988.58        74.57931
988.96        73.82663
989.35        73.08622
989.73        72.99125
990.12        73.59563
990.50          74.783
990.88        75.79856
991.27        75.43223
991.65        73.58424
992.03        70.71818
992.42        67.88377
992.80        66.44164
993.18        66.82368
993.56        68.55992
993.95        70.91894
994.33        72.90816
994.71        73.89754
995.10        74.18432
995.48        73.84019
995.86        72.99701
996.24        71.86456
996.63        70.42828
997.01         69.0089
997.39        68.10223
997.77         67.8004
998.15         68.0147
998.54        68.59876
998.92        69.22873
999.30        69.74136
999.68        70.21662
1000.06        70.51772
1000.45        70.38355
1000.83        69.92383
1001.21        69.12606
1001.59        68.30202
1001.97        68.03407
1002.35        68.47462
1002.73        69.43601
1003.12        70.68725
1003.50        71.75672
1003.88        72.47258
1004.26         72.9639
1004.64        73.13474
1005.02         72.8415
1005.40        72.12909
1005.78        71.02309
1006.16        69.88893
1006.54        69.40888
1006.92        69.73866
1007.30        70.66808
1007.69        71.70076
1008.07        72.22083
1008.45         71.9466
1008.83        71.13621
1009.21        69.98907
1009.59         68.8399
1009.97        67.88089
1010.35        67.02737
1010.73        66.52487
1011.11        66.79512
1011.49        67.96514
1011.86        70.19642
1012.24        72.84333
1012.62        75.06644
1013.00        76.50742
1013.38        77.17435
1013.76        77.61941
1014.14        79.01939
1014.52        81.59887
1014.90        84.88171
1015.28        87.69223
1015.66        88.01079
1016.04        85.63852
1016.41        81.73516
1016.79        77.69476
1017.17        74.45522
1017.55        71.86373
1017.93        69.26025
1018.31        66.56735
1018.69        64.47591
1019.06        63.66506
1019.44        64.19592
1019.82        64.92352
1020.20        64.57162
1020.58        63.04472
1020.95        60.37827
1021.33        57.51375
1021.71        56.91491
1022.09        59.75314
1022.46        65.04919
1022.84        70.92215
1023.22        75.07421
1023.60        76.86016
1023.97        76.99252
1024.35        75.37983
1024.73        72.11255
