SpectraSmart Spectrum 2.9.0.0
--------- Device Information -----------
Spectrum Name :  反射率_0
Saving Time :  2024/05/01 16:43:21
Spectro-Module Model Name : SE2030-DUVN
Spectro-Module Serial Number : OS361AC55029948
Wavelength Start : 200
Wavelength End : 1025
Wavelength Unit : Wavelength(nm)
Spectrum Unit : Reflectance(%)
-----------Spectrum Setting ------------
Integration Time : 20ms
Average : 10
Boxcar : 0
Background removal :  enabled
linearity correction :  enabled
SC :  disabled
Intensity correction :  disabled
DWT denoise :  enabled
savitzky-golay :  disabled
FFT :  disabled
Running average :  disabled
Kalman :  disabled
High pass :  disabled
---------------BEGIN--------------------
Wavelength(nm)             Reflectance(%)
200.29               0
200.75        289.3743
201.21        1165.001
201.67       -480.3412
202.13       -177.8366
202.58        -83.9263
203.04        -31.1512
203.50       -1.015676
203.96        8.288256
204.42       -2.854365
204.88       -63.26038
205.34       -1723.395
205.80        293.4462
206.26         199.902
206.72        175.4403
207.18        223.4949
207.64       -42.26728
208.10        5.894479
208.55       -1.614588
209.01       -13.23508
209.47       -17.02126
209.93       -14.23411
210.39       -9.726062
210.85       -8.373847
211.31       -21.31541
211.77       -92.80065
212.23        509.3233
212.69        153.4131
213.14        148.5272
213.60        242.2702
214.06       -910.9302
214.52       -119.8709
214.98       -71.87222
215.44       -69.14906
215.90       -106.6006
216.36       -790.5092
216.81        259.6919
217.27        302.9729
217.73       -599.6984
218.19       -129.5171
218.65       -111.6237
219.11       -160.6531
219.57        -349.924
220.02       -1123.525
220.48       -559.2573
220.94       -149.8536
221.40       -46.97395
221.86       -11.39822
222.32        1.881196
222.77          6.7458
223.23        7.886631
223.69        6.434407
224.15        4.639077
224.61         4.45848
225.06        4.789388
225.52        5.895378
225.98        8.461504
226.44        12.77164
226.90         19.4235
227.36        27.88632
227.81        32.92377
228.27        31.79837
228.73        27.72665
229.19        23.58216
229.65        20.74433
230.10        18.91869
230.56        17.59335
231.02        16.95218
231.48        17.71836
231.93        19.73825
232.39        22.36476
232.85        24.91968
233.31        26.91571
233.77        28.36747
234.22        29.50614
234.68        30.20443
235.14        30.48405
235.60        30.39038
236.05        29.74811
236.51        28.86115
236.97         28.9058
237.43        30.55836
237.88        33.59699
238.34        36.11177
238.80        35.89022
239.26        31.95281
239.71        23.15256
240.17        8.125659
240.63        -8.36848
241.08       -16.74671
241.54       -14.58763
242.00       -7.204377
242.46      -0.6930516
242.91        5.036427
243.37         12.2509
243.83        25.63112
244.28        46.90752
244.74        60.99359
245.20        63.68206
245.66        61.09116
246.11        57.08255
246.57        51.59584
247.03         42.6286
247.48        24.85382
247.94       -5.664519
248.40       -40.72303
248.85       -71.30459
249.31       -81.06734
249.77       -63.53844
250.22       -33.48177
250.68       -2.951393
251.14         19.6256
251.59        29.92687
252.05         29.5252
252.51        16.42204
252.96       -21.91842
253.42       -75.29193
253.88       -61.49771
254.33       -4.732988
254.79        27.86584
255.25        39.01256
255.70        40.94085
256.16        40.30727
256.62        39.68377
257.07        40.50455
257.53        42.49762
257.99        44.56738
258.44        45.85907
258.90        46.01472
259.35        45.01033
259.81        43.49449
260.27        41.99682
260.72        41.26531
261.18        41.50044
261.63        42.08598
262.09        42.59593
262.55        42.31951
263.00        41.24142
263.46        39.79844
263.91        38.32851
264.37        37.45502
264.83        37.15908
265.28        37.19168
265.74        37.26583
266.19        36.80851
266.65        35.84939
267.11        34.53922
267.56        33.24445
268.02        32.60158
268.47        32.68721
268.93        33.25145
269.38        33.90532
269.84        33.96851
270.30        33.30235
270.75        32.13171
271.21        30.79103
271.66        29.66869
272.12        28.94099
272.57        28.42251
273.03        28.07327
273.48        27.79531
273.94        27.54873
274.39        27.35029
274.85        27.13968
275.31        26.76944
275.76        26.22621
276.22        25.59454
276.67        24.93585
277.13        24.42647
277.58         24.0463
278.04        23.76733
278.49        23.52145
278.95        23.30465
279.40        23.05435
279.86        22.81105
280.31        22.50013
280.77        22.08558
281.22        21.54708
281.68        20.96533
282.13        20.37323
282.59        19.88217
283.04        19.49546
283.50        19.21488
283.95        19.03121
284.41        18.96802
284.86        18.99714
285.32        19.10539
285.77        19.23757
286.22         19.3391
286.68        19.39741
287.13        19.40604
287.59         19.3686
288.04        19.25896
288.50        19.10948
288.95         18.9013
289.41        18.71447
289.86        18.60324
290.32        18.59312
290.77        18.66508
291.22         18.7582
291.68        18.77069
292.13        18.68944
292.59        18.57615
293.04         18.4936
293.50        18.58522
293.95        18.86128
294.40        19.27641
294.86        19.76438
295.31        20.23652
295.77        20.64597
296.22        21.00725
296.68        21.31001
297.13        21.53325
297.58        21.69356
298.04        21.81629
298.49        21.92782
298.95        22.10622
299.40        22.35545
299.85        22.65188
300.31        22.99377
300.76        23.38032
301.21        23.79171
301.67        24.22694
302.12        24.59583
302.58         24.7802
303.03          24.756
303.48        24.59476
303.94        24.42356
304.39        24.38188
304.84        24.51813
305.30        24.77045
305.75        25.08404
306.20        25.38664
306.66        25.63985
307.11        25.84199
307.57        25.95947
308.02         25.9018
308.47        25.67985
308.93        25.33224
309.38        24.92626
309.83        24.61514
310.29        24.44387
310.74        24.37385
311.19        24.35931
311.65        24.30956
312.10        24.19724
312.55        24.05654
313.00        23.91897
313.46        23.83124
313.91        23.79442
314.36        23.77433
314.82        23.74467
315.27        23.68299
315.72        23.57036
316.18        23.41793
316.63        23.20511
317.08        22.89771
317.53        22.49997
317.99        22.03533
318.44        21.55447
318.89        21.16037
319.35        20.88946
319.80        20.72257
320.25        20.62415
320.70        20.52376
321.16        20.39218
321.61        20.24855
322.06        20.10707
322.51        19.99683
322.97         19.9154
323.42        19.84778
323.87        19.76029
324.32        19.61211
324.78        19.39253
325.23        19.13169
325.68        18.85289
326.13        18.59616
326.59        18.37166
327.04        18.17743
327.49          18.012
327.94        17.87848
328.39        17.77117
328.85        17.68576
329.30        17.59948
329.75        17.45708
330.20        17.24622
330.66        16.97359
331.11        16.68488
331.56        16.44302
332.01        16.26937
332.46        16.15168
332.92        16.05241
333.37        15.92735
333.82          15.755
334.27        15.55276
334.72        15.35676
335.17        15.23011
335.63        15.18061
336.08        15.19326
336.53        15.22235
336.98        15.20403
337.43        15.11854
337.88        14.98781
338.34        14.82305
338.79        14.65207
339.24        14.48905
339.69        14.32778
340.14        14.19449
340.59        14.13082
341.05        14.13108
341.50        14.18441
341.95        14.24527
342.40        14.23706
342.85        14.14519
343.30        14.00653
343.75        13.84483
344.20         13.6969
344.66        13.58629
345.11         13.4905
345.56        13.45696
346.01        13.55866
346.46        13.78699
346.91        14.10091
347.36        14.38894
347.81        14.48452
348.26        14.35758
348.72        14.07187
349.17        13.69553
349.62        13.37855
350.07        13.16743
350.52        13.01654
350.97        12.91462
351.42        12.83625
351.87        12.77185
352.32        12.75732
352.77        12.73813
353.22        12.62322
353.67         12.4075
354.13        12.10979
354.58        11.85071
355.03        11.84402
355.48         12.1168
355.93         12.6074
356.38         13.1122
356.83        13.28791
357.28         13.0643
357.73        12.55959
358.18          12.011
358.63        11.77351
359.08        11.91783
359.53        12.32083
359.98         12.8087
360.43        13.08484
360.88        13.05819
361.33        12.84001
361.78        12.52077
362.23        12.22735
362.68        12.00976
363.13        11.81995
363.58        11.68372
364.03        11.65353
364.48        11.72183
364.93        11.87187
365.38        12.02101
365.83        12.03286
366.28        11.87715
366.73        11.59269
367.18        11.24187
367.63        10.93541
368.08        10.72111
368.53        10.58087
368.98        10.49921
369.43        10.44826
369.88        10.41217
370.33        10.39214
370.78        10.39868
371.23        10.44466
371.68        10.51923
372.13        10.60593
372.58        10.64301
373.03        10.54311
373.48        10.29945
373.93        9.946602
374.38         9.57716
374.83        9.346835
375.28        9.300028
375.72        9.393051
376.17         9.55175
376.62        9.660946
377.07        9.682997
377.52        9.647911
377.97        9.580218
378.42        9.518155
378.87        9.475487
379.32        9.438188
379.77        9.394464
380.22        9.331473
380.67         9.24932
381.11         9.15923
381.56        9.085185
382.01        9.065187
382.46         9.10594
382.91        9.194668
383.36        9.287906
383.81        9.322845
384.26        9.279857
384.71        9.163324
385.15        9.016587
385.60        8.923188
386.05        8.896112
386.50        8.925236
386.95        8.934756
387.40        8.807742
387.85        8.542959
388.29        8.184384
388.74        7.881942
389.19        7.807875
389.64        7.980654
390.09        8.325572
390.54        8.706491
390.98        8.904995
391.43        8.865659
391.88        8.672937
392.33        8.417323
392.78        8.230778
393.23        8.149553
393.67        8.113995
394.12        8.121737
394.57        8.176009
395.02        8.254327
395.47         8.31457
395.91        8.348139
396.36        8.373184
396.81        8.392862
397.26        8.378447
397.71        8.349293
398.15        8.360968
398.60        8.425673
399.05        8.482669
399.50        8.519789
399.95        8.584455
400.39        8.643597
400.84        8.557574
401.29        8.345799
401.74        8.178612
402.18          8.0796
402.63        7.960683
403.08        7.852988
403.53        7.839353
403.97        7.920228
404.42        8.069139
404.87        8.222316
405.32        8.274994
405.76        8.203575
406.21        8.046382
406.66        7.863986
407.11        7.756932
407.55        7.754767
408.00        7.826378
408.45        7.934373
408.90        8.000983
409.34        8.004655
409.79        7.985025
410.24        7.953878
410.68        7.905442
411.13         7.84819
411.58        7.788261
412.03        7.726365
412.47        7.665009
412.92        7.608639
413.37        7.557687
413.81        7.523676
414.26        7.528422
414.71        7.568697
415.15        7.645595
415.60        7.715565
416.05        7.717357
416.49         7.63976
416.94        7.502399
417.39        7.367424
417.83        7.335454
418.28        7.425866
418.73        7.602546
419.17        7.798999
419.62        7.900048
420.07        7.881694
420.51        7.780226
420.96        7.650385
421.41          7.5599
421.85        7.527514
422.30        7.532057
422.74        7.560889
423.19        7.602385
423.64        7.646259
424.08        7.702569
424.53        7.742881
424.98        7.731824
425.42         7.66523
425.87        7.561016
426.31        7.444362
426.76        7.369173
427.21        7.344458
427.65        7.353272
428.10        7.399125
428.54        7.485709
428.99        7.598575
429.44        7.744055
429.88        7.863026
430.33        7.867524
430.77        7.754079
431.22        7.562652
431.66        7.364133
432.11        7.289463
432.56        7.337859
433.00        7.454766
433.45        7.557436
433.89        7.479885
434.34        7.223111
434.78        7.269248
435.23        7.635198
435.67        7.770274
436.12        7.665302
436.57        7.611632
437.01        7.627651
437.46          7.5981
437.90        7.527653
438.35        7.461955
438.79         7.40992
439.24        7.365367
439.68        7.345576
440.13        7.404401
440.57        7.507486
441.02        7.561732
441.46         7.55495
441.91         7.47765
442.35        7.379471
442.80        7.461705
443.24        7.671953
443.69        7.701462
444.13        7.551884
444.58        7.497027
445.02        7.537774
445.47        7.519312
445.91        7.461988
446.36        7.474247
446.80        7.561141
447.24        7.688512
447.69        7.814504
448.13         7.87754
448.58        7.862266
449.02        7.788249
449.47        7.693343
449.91        7.630157
450.36        7.616858
450.80        7.636922
451.25        7.665774
451.69        7.659298
452.13        7.608959
452.58        7.532672
453.02         7.45569
453.47        7.422574
453.91        7.441613
454.36        7.499815
454.80         7.56654
455.24        7.589602
455.69        7.559118
456.13        7.485028
456.58        7.409611
457.02        7.385182
457.46        7.423673
457.91        7.506684
458.35        7.586628
458.79        7.577032
459.24        7.471811
459.68        7.319841
460.13        7.192483
460.57        7.042392
461.01        7.095245
461.46        7.168797
461.90        7.284338
462.34        7.338856
462.79        7.351232
463.23        7.303976
463.68        7.247077
464.12        7.241598
464.56        7.300548
465.01        7.409306
465.45        7.502919
465.89        7.498662
466.34        7.392196
466.78        7.207603
467.22        7.019422
467.67        6.968228
468.11        7.054048
468.55        7.260856
468.99        7.499119
469.44        7.644315
469.88        7.664775
470.32        7.591707
470.77        7.475182
471.21        7.392563
471.65        7.371863
472.10        7.389863
472.54         7.41765
472.98        7.418121
473.42         7.38414
473.87        7.338539
474.31        7.298799
474.75        7.296381
475.20        7.337867
475.64        7.402428
476.08        7.471208
476.52        7.535764
476.97        7.591245
477.41        7.607921
477.85         7.57267
478.29        7.679285
478.74        7.602084
479.18        7.591483
479.62        7.567952
480.06        7.610465
480.50        7.722356
480.95        7.732449
481.39        7.879241
481.83        7.901613
482.27        7.875321
482.72        7.818639
483.16        7.746772
483.60        7.710812
484.04        7.707741
484.48        7.706951
484.93        7.782031
485.37        7.975629
485.81        8.104017
486.25        8.641285
486.69        7.776533
487.14        7.679207
487.58        8.319963
488.02        8.533193
488.46        8.218236
488.90        8.377262
489.34        8.209257
489.79        8.228847
490.23        8.505952
490.67        8.700144
491.11        8.853683
491.55        8.880053
491.99         8.81586
492.43        8.813826
492.88        8.885699
493.32        8.914053
493.76        8.908132
494.20        8.956213
494.64        9.066749
495.08        9.203959
495.52        9.344657
495.96        9.485753
496.41        9.606086
496.85        9.631713
497.29        9.599183
497.73        9.684834
498.17        9.875742
498.61        9.965897
499.05        9.949835
499.49        9.987178
499.93        10.08053
500.37        10.13376
500.82        10.16338
501.26        10.23393
501.70        10.35045
502.14        10.49509
502.58        10.62661
503.02        10.68059
503.46         10.6495
503.90        10.55834
504.34        10.46792
504.78        10.47598
505.22        10.60442
505.66        10.82017
506.10        11.06422
506.54        11.23823
506.98        11.31039
507.42        11.30881
507.86        11.26513
508.30        11.22912
508.74        11.22106
509.18        11.22935
509.62        11.24912
510.06        11.27412
510.50        11.30253
510.94        11.33926
511.38        11.39319
511.82        11.47438
512.26        11.57765
512.70        11.69059
513.14         11.7862
513.58        11.82544
514.02        11.80129
514.46        11.72892
514.90        11.63029
515.34         11.5426
515.78        11.48132
516.22         11.4386
516.66        11.41882
517.10        11.42565
517.54        11.45603
517.98        11.51182
518.42        11.57134
518.86        11.59681
519.30        11.58044
519.74        11.52963
520.18        11.47252
520.62        11.45665
521.06        11.49024
521.50         11.5558
521.93        11.62466
522.37        11.64637
522.81        11.61079
523.25        11.53786
523.69        11.44809
524.13        11.37179
524.57        11.32183
525.01        11.29035
525.45        11.27814
525.89         11.2875
526.32        11.31324
526.76        11.34839
527.20        11.38283
527.64        11.39817
528.08        11.38809
528.52        11.35942
528.96         11.3059
529.40        11.21956
529.83        11.10484
530.27        10.97063
530.71        10.84851
531.15        10.79084
531.59        10.80478
532.03        10.87169
532.46        10.95022
532.90        10.97241
533.34        10.92341
533.78        10.81883
534.22        10.68766
534.66        10.59185
535.09        10.53633
535.53        10.47281
535.97        10.40996
536.41        10.40057
536.85        10.44457
537.28        10.51523
537.72        10.59342
538.16        10.65912
538.60        10.70224
539.04        10.72594
539.47        10.73456
539.91        10.74447
540.35        10.75915
540.79        10.78081
541.22        10.81359
541.66        10.84642
542.10        10.90888
542.54        10.97891
542.97         11.0612
543.41        11.15709
543.85        11.26085
544.29        11.37029
544.72        11.48033
545.16        11.58776
545.60        11.69061
546.04        11.78898
546.47        11.88205
546.91        11.97283
547.35        12.06194
547.79        12.14584
548.22        12.22199
548.66        12.31232
549.10        12.42012
549.53        12.48413
549.97        12.61523
550.41        12.73052
550.84        12.85947
551.28        13.00139
551.72        13.14749
552.15        13.26997
552.59         13.3712
553.03        13.47562
553.46        13.57949
553.90        13.68648
554.34        13.79914
554.77        13.89404
555.21        13.96493
555.65        14.15417
556.08        14.19314
556.52        14.30071
556.96        14.38989
557.39        14.46677
557.83        14.53482
558.27        14.57476
558.70         14.5966
559.14        14.68744
559.57        14.71957
560.01        14.81936
560.45        14.91559
560.88        14.94662
561.32        14.94005
561.75        14.91392
562.19        14.91257
562.63        15.06929
563.06        15.32049
563.50        15.34355
563.93         15.1691
564.37        15.14656
564.80        15.28232
565.24        15.38772
565.68        15.44991
566.11        15.53969
566.55        15.65887
566.98        15.78088
567.42        15.91012
567.85        16.04538
568.29        16.18922
568.72        16.32461
569.16         16.4587
569.60        16.57505
570.03        16.66854
570.47        16.73779
570.90        16.91182
571.34        16.87927
571.77        17.04973
572.21        17.09532
572.64        17.16117
573.08         17.2921
573.51        17.82035
573.95        17.86813
574.38        17.71916
574.82        17.91282
575.25        17.83297
575.69          17.897
576.12        17.89807
576.56        18.03625
576.99        18.30138
577.42        18.04159
577.86        18.11828
578.29        18.07265
578.73        18.05102
579.16        17.92435
579.60        17.78217
580.03        17.67345
580.47        17.72645
580.90        17.46411
581.33        17.80292
581.77        17.78968
582.20        17.52007
582.64        17.14165
583.07         17.1294
583.51        17.00831
583.94        16.98593
584.37        16.98483
584.81        16.96277
585.24        16.87742
585.68        16.77832
586.11        16.51374
586.54        16.46999
586.98         16.4303
587.41        16.48725
587.85        16.47222
588.28        16.22009
588.71        16.13128
589.15        16.34104
589.58        16.01461
590.01        16.24962
590.45          16.134
590.88        16.01708
591.31         15.9923
591.75        16.09092
592.18        16.13511
592.61        16.01818
593.05        16.38132
593.48         16.1006
593.91        15.99701
594.35        16.24684
594.78        16.41723
595.21        16.60945
595.65        16.66596
596.08        16.61634
596.51        16.80148
596.94        16.87495
597.38        17.08642
597.81        17.36288
598.24        17.32475
598.68        17.75159
599.11        17.99543
599.54         18.3736
599.97        18.36661
600.41        18.84653
600.84        19.05249
601.27        19.40274
601.70        19.79247
602.14        20.14135
602.57        20.54024
603.00        20.91738
603.43        21.17877
603.87        21.50382
604.30        21.81838
604.73        22.20747
605.16        22.59793
605.60        22.98609
606.03        23.50497
606.46        24.03493
606.89        24.36108
607.32        24.58514
607.76        24.85885
608.19        25.20555
608.62        25.73219
609.05        26.11048
609.48        26.42907
609.92        26.65119
610.35        27.02471
610.78         27.7111
611.21        28.12967
611.64        28.34424
612.07        28.64745
612.50        29.04852
612.94        29.30993
613.37        29.50382
613.80        29.72813
614.23        29.97954
614.66        30.42349
615.09        30.57256
615.52        30.86221
615.96        31.15655
616.39        31.52926
616.82        31.95295
617.25        32.27844
617.68         32.5018
618.11        32.77223
618.54        33.06606
618.97        33.21029
619.40        33.26157
619.84         33.4042
620.27        33.66499
620.70        34.02113
621.13        34.41632
621.56        34.47262
621.99        34.56735
622.42        34.58591
622.85        34.65609
623.28         34.6889
623.71        34.64539
624.14        34.68078
624.57        34.75736
625.00        34.79377
625.43        34.74598
625.86        34.59115
626.29        34.36498
626.72        34.02584
627.15        33.94575
627.58        33.71379
628.01        33.45199
628.44        33.32143
628.87        33.26582
629.30        33.01808
629.73        32.60311
630.16        32.26696
630.59        32.00652
631.02        31.70724
631.45        31.36289
631.88        30.95114
632.31         30.4563
632.74        30.17295
633.17        29.60299
633.60        29.19909
634.03        28.81144
634.46        28.44637
634.89        28.07237
635.32        27.64811
635.75        27.17323
636.18        26.66212
636.61        26.14743
637.04        25.67647
637.47        25.26266
637.89        24.88717
638.32        24.52626
638.75        24.18197
639.18        23.85514
639.61        23.45612
640.04        23.17035
640.47        22.86355
640.90        22.59091
641.33        22.34119
641.76        22.11374
642.18        21.94058
642.61        21.82362
643.04        21.70819
643.47        21.57138
643.90        21.67907
644.33        21.56055
644.76        21.56438
645.18        21.56381
645.61        21.66446
646.04        21.83206
646.47        21.89047
646.90        21.88167
647.33        22.01932
647.75        22.31984
648.18        22.67142
648.61        23.02909
649.04        23.35943
649.47        23.64885
649.89        23.95062
650.32        24.28977
650.75        24.61971
651.18        24.97696
651.61        25.57736
652.03        26.36093
652.46        26.92753
652.89        27.30688
653.32        27.81343
653.74         28.4747
654.17        29.32628
654.60        29.62791
655.03        30.27905
655.46        30.66435
655.88        31.56439
656.31        35.77082
656.74        35.03178
657.16        32.62057
657.59        32.56401
658.02         34.0551
658.45        34.70846
658.87        35.02178
659.30        35.16471
659.73        35.88079
660.15         36.8513
660.58        37.24323
661.01         37.6198
661.44        37.80931
661.86         38.1469
662.29        38.66538
662.72        39.13564
663.14        39.53595
663.57        39.88973
664.00        40.19475
664.42        40.47096
664.85        40.73172
665.27        40.93155
665.70        41.11301
666.13        41.36697
666.55        41.71291
666.98        42.12222
667.41        42.54393
667.83        42.88823
668.26        43.11898
668.69        43.26365
669.11        43.37689
669.54        43.55782
669.96        43.82185
670.39        44.11805
670.82        44.40875
671.24        44.61167
671.67        44.73563
672.09        44.89141
672.52        45.08997
672.94        45.22381
673.37        45.30246
673.80        45.38989
674.22         45.5046
674.65        45.62012
675.07        45.75097
675.50        45.89739
675.92        46.06597
676.35        46.25042
676.77        46.43721
677.20        46.65343
677.62        46.90258
678.05        47.04902
678.47        47.05954
678.90         47.4746
679.32        47.38056
679.75        47.51225
680.17        47.59976
680.60        47.66314
681.02        47.72888
681.45        47.83068
681.87        47.98806
682.30        48.22543
682.72        48.49144
683.15        48.55492
683.57        48.45911
684.00        48.49825
684.42         48.6852
684.85        48.82116
685.27        48.90295
685.70        49.04378
686.12        49.20478
686.54        49.33128
686.97        49.42056
687.39        49.27412
687.82        49.41132
688.24        49.30335
688.66        49.18515
689.09        49.35036
689.51        49.76336
689.94        50.05119
690.36        50.18464
690.78        50.31561
691.21        50.49389
691.63        50.80698
692.06        51.21636
692.48        51.52454
692.90        51.68966
693.33        51.81776
693.75        51.90756
694.17        51.82431
694.60        51.65772
695.02        51.64565
695.44        51.77341
695.87        51.90847
696.29        52.01155
696.71        51.91271
697.14        51.73871
697.56        52.02115
697.98        52.66218
698.41        53.01067
698.83        53.01802
699.25        53.04882
699.68        53.12824
700.10        53.17847
700.52        53.20987
700.94        53.22266
701.37        53.24142
701.79         53.3719
702.21        53.57777
702.64        53.77957
703.06        53.94055
703.48        53.98641
703.90        53.89458
704.33        54.03981
704.75        53.78784
705.17        53.79433
705.59        53.87758
706.01         54.0151
706.44        54.19783
706.86        54.39504
707.28        54.57378
707.70        54.84322
708.12        55.15144
708.55        55.02757
708.97        54.91291
709.39        54.84952
709.81        54.98209
710.23        55.06634
710.66        55.10625
711.08        55.27111
711.50        55.50902
711.92        55.67097
712.34        55.73646
712.76        55.75066
713.19        55.72824
713.61        55.73575
714.03        55.77406
714.45        55.81955
714.87        55.88048
715.29        55.97387
715.71        56.10028
716.13         56.2634
716.56        56.40535
716.98        56.50957
717.40        56.54276
717.82        56.47548
718.24        56.38148
718.66        56.47607
719.08        56.73551
719.50         56.9115
719.92        56.96075
720.34        57.00379
720.76        57.03047
721.19        56.94924
721.61        56.81245
722.03        56.75166
722.45        56.79427
722.87        56.92004
723.29        57.09764
723.71         57.2389
724.13        57.31168
724.55        57.45547
724.97        57.49649
725.39        57.61882
725.81        57.84632
726.23          58.099
726.65        58.30846
727.07        58.33025
727.49        58.15007
727.91        57.82056
728.33        57.48451
728.75        57.35924
729.17        57.48872
729.59        57.83068
730.01        58.25513
730.43        58.46055
730.85        58.43389
731.27        58.40119
731.69        58.35163
732.10        58.27035
732.52        58.20792
732.94        57.66337
733.36        57.61787
733.78        57.76075
734.20        57.83323
734.62        58.40473
735.04        59.10133
735.46        59.07473
735.88        58.47895
736.30        58.53483
736.72        59.20403
737.13        59.37847
737.55        59.25935
737.97         58.8617
738.39        58.48213
738.81        58.63942
739.23        59.26578
739.65        59.56733
740.06        59.43582
740.48        59.43503
740.90        59.54405
741.32         59.4982
741.74        59.32166
742.16         59.1692
742.57        59.07185
742.99        59.06763
743.41        59.16765
743.83        59.19205
744.25        59.20533
744.67        59.59594
745.08        60.22519
745.50        60.42798
745.92        60.12668
746.34        59.66859
746.75        59.24738
747.17        58.90681
747.59        58.66633
748.01        59.21685
748.42        59.33339
748.84        59.42085
749.26        59.21162
749.68         59.3006
750.09        59.66275
750.51        59.90298
750.93        59.98505
751.35        60.02139
751.76         60.0452
752.18        60.10204
752.60         60.2019
753.01        60.31572
753.43        60.41888
753.85        60.50544
754.27        60.56487
754.68        60.76073
755.10        60.79288
755.52        60.91711
755.93        61.02588
756.35        61.10733
756.77        61.14971
757.18        61.11209
757.60         61.0228
758.02        61.00319
758.43        60.95778
758.85        60.80663
759.26        60.39375
759.68        60.25372
760.10        60.82228
760.51         61.5018
760.93        61.64832
761.34        61.69093
761.76        61.50153
762.18        60.93783
762.59        60.32728
763.01         60.6599
763.42        61.77826
763.84        62.19169
764.26        61.78483
764.67         61.2918
765.09        60.96534
765.50        60.91757
765.92        61.13544
766.33        61.20757
766.75        61.02788
767.16         61.0805
767.58        61.17164
768.00        61.32391
768.41        61.55321
768.83        62.24175
769.24        63.10789
769.66        63.35216
770.07         62.8215
770.49        62.24688
770.90        61.82814
771.32         61.9114
771.73        62.37617
772.15        62.47553
772.56        62.17226
772.97        61.97425
773.39        61.95485
773.80        62.01142
774.22        62.12825
774.63        62.37391
775.05        62.64106
775.46        62.81162
775.88        62.82661
776.29        62.74062
776.70        62.61021
777.12        62.55891
777.53        62.62906
777.95        62.74862
778.36        62.88503
778.77        62.95032
779.19        62.92982
779.60         62.9199
780.02        62.89673
780.43        62.76649
780.84        62.62489
781.26        62.51975
781.67        62.50947
782.09        62.98158
782.50        63.65117
782.91        63.35433
783.33        62.34088
783.74        62.08755
784.15        62.70216
784.57        63.39974
784.98        63.99809
785.39        64.34148
785.81        64.43775
786.22        64.52591
786.63        64.94984
787.04        64.97601
787.46         64.7466
787.87        64.47312
788.28        64.29468
788.70        64.24563
789.11        64.32458
789.52        64.65253
789.93        65.05873
790.35        65.00948
790.76        64.57566
791.17        64.34296
791.58        64.38132
792.00        64.34884
792.41        64.25249
792.82        64.28215
793.23        64.37324
793.65        64.34135
794.06        64.18811
794.47        63.96746
794.88        63.81223
795.29        63.86819
795.71        64.09614
796.12        64.63757
796.53        65.28124
796.94        65.36063
797.35        64.85916
797.76        64.49147
798.18        64.40718
798.59        64.28938
799.00        64.19749
799.41        64.37701
799.82        64.76733
800.23        65.10352
800.64        65.32287
801.06        65.48015
801.47        65.59462
801.88        65.60838
802.29        65.52586
802.70        65.33907
803.11        65.11514
803.52        64.99339
803.93        65.00996
804.34        65.10571
804.75        65.24472
805.17        65.43943
805.58        65.70786
805.99        65.79869
806.40        65.71619
806.81        65.99008
807.22        66.38874
807.63        65.76316
808.04        64.39206
808.45        63.78994
808.86        64.11697
809.27        64.59378
809.68        65.01974
810.09        65.37914
810.50        65.56876
810.91        65.59968
811.32        65.52476
811.73        65.43515
812.14        65.37548
812.55        65.31513
812.96        65.29573
813.37        65.39233
813.78        65.60995
814.19        65.93092
814.60        66.27544
815.01        66.51316
815.42        66.61075
815.83        66.59384
816.24        66.49744
816.65        66.39841
817.05        66.33366
817.46        66.26292
817.87        66.19916
818.28        66.11906
818.69         66.0161
819.10        65.90324
819.51        65.80358
819.92        65.75271
820.33        65.75825
820.74        65.80527
821.14        65.85185
821.55        65.86038
821.96        65.81529
822.37        65.75137
822.78         65.6997
823.19        65.71362
823.60        65.81575
824.00         65.9961
824.41         66.2336
824.82        66.59673
825.23        67.05743
825.64        67.56493
826.04        68.00866
826.45        68.13628
826.86        67.92075
827.27        67.44769
827.68        66.80919
828.08        66.18314
828.49        65.62835
828.90        65.13001
829.31        64.79135
829.72        64.75501
830.12        65.05998
830.53        65.65131
830.94        66.31236
831.35        66.59567
831.75        66.40266
832.16        65.80434
832.57        65.15266
832.97        64.99279
833.38        65.42049
833.79        66.25561
834.20        67.18381
834.60        67.66649
835.01        67.52655
835.42        66.97607
835.82        66.23022
836.23        65.60818
836.64        65.23157
837.04        65.01157
837.45        64.93568
837.86        65.04689
838.26        65.32759
838.67        65.74325
839.08        66.16801
839.48        66.35373
839.89        66.23277
840.29        65.87242
840.70        65.41008
841.11        65.04205
841.51        64.85103
841.92        64.76286
842.33        64.78958
842.73        64.94999
843.14         65.1835
843.54        65.54471
843.95        65.91586
844.35        66.15695
844.76        66.20064
845.17         66.0611
845.57        65.86857
845.98         65.8326
846.38         66.0117
846.79        66.33286
847.19        66.63926
847.60        66.58649
848.00         66.1397
848.41        65.41851
848.81        64.68722
849.22        64.31956
849.62        64.41779
850.03        64.83573
850.43        65.41998
850.84        65.76795
851.24        65.81667
851.65        65.66736
852.05        65.45263
852.46        65.35301
852.86        65.41338
853.27        65.54643
853.67        65.74877
854.07        66.19717
854.48         66.8319
854.88        67.72192
855.29        68.47449
855.69        68.56342
856.10        67.75063
856.50         66.3107
856.90        64.76315
857.31        63.85594
857.71        63.74809
858.12         64.1925
858.52        64.95345
858.92        65.37897
859.33        65.23594
859.73        64.77951
860.13        64.13712
860.54        63.52891
860.94        63.05354
861.34        62.60429
861.75        62.28343
862.15        62.32901
862.55        62.74677
862.96        63.47408
863.36        64.26011
863.76        64.59671
864.17        64.37276
864.57        63.73767
864.97        62.99053
865.38        62.64477
865.78        62.86042
866.18        63.46596
866.58        64.21712
866.99        64.66699
867.39        64.69955
867.79        64.47007
868.19        64.10425
868.60        63.75202
869.00         63.4707
869.40        63.18911
869.80        63.02196
870.21        63.18431
870.61        63.73198
871.01        64.55148
871.41        65.30993
871.81         65.4967
872.22        65.02309
872.62        64.05022
873.02        62.92765
873.42        62.24592
873.82        62.18756
874.22        62.59835
874.63        63.23834
875.03         63.7144
875.43        63.90439
875.83        63.91985
876.23        63.90665
876.63        64.08756
877.03        64.50624
877.44        65.04714
877.84        65.55916
878.24        65.76514
878.64         65.6013
879.04         65.1656
879.44        64.65862
879.84        64.37215
880.24        64.37666
880.64        64.59966
881.04        64.88824
881.44         64.9858
881.84        64.83807
882.24        64.53595
882.65        64.21239
883.05        64.19967
883.45        64.52458
883.85        65.04308
884.25        65.61535
884.65        66.06093
885.05        66.32631
885.45        66.48199
885.85        66.48737
886.25        66.27618
886.65        65.86941
887.05        65.28633
887.45        64.72357
887.85        64.48891
888.25        64.64022
888.65        65.10402
889.04        65.64087
889.44        65.82327
889.84        65.55804
890.24        64.95567
890.64        64.26657
891.04        63.85302
891.44        63.80186
891.84        64.03838
892.24        64.32084
892.64        64.24709
893.04        63.74861
893.44        62.96514
893.83        62.27161
894.23        62.23603
894.63        62.92989
895.03        64.17116
895.43        65.49752
895.83        66.07195
896.23        65.67495
896.63        64.61134
897.02         63.3271
897.42          62.557
897.82         62.4142
898.22        62.72948
898.62        63.28182
899.01        63.71721
899.41        63.86694
899.81        63.87028
900.21        63.91152
900.61        64.28564
901.00        65.02637
901.40        65.94745
901.80        66.78069
902.20        67.14288
902.59        66.96392
902.99        66.40559
903.39         65.6507
903.79        64.99466
904.18         64.5459
904.58        64.22911
904.98        64.09981
905.38        64.24834
905.77        64.64082
906.17        65.28941
906.57        65.89866
906.96        65.98195
907.36        65.44466
907.76        64.44065
908.15         63.4165
908.55        63.06861
908.95        63.57446
909.34        64.71922
909.74        66.05888
910.14        66.93401
910.53        67.12529
910.93        66.82595
911.33        66.26692
911.72        65.81144
912.12         65.6042
912.52        65.51995
912.91        65.45681
913.31        65.26358
913.70        64.92145
914.10         64.5307
914.49        64.21413
914.89        64.11218
915.29        64.25331
915.68        64.56091
916.08        64.94206
916.47        65.26125
916.87        65.45698
917.26        65.57174
917.66         65.5893
918.05        65.48949
918.45        65.28409
918.84        65.00689
919.24        64.75803
919.64        64.78379
920.03        65.14399
920.42        65.74162
920.82        66.39782
921.21        66.87428
921.61         67.0697
922.00        67.03762
922.40        66.83276
922.79        66.63158
923.19        66.48132
923.58        66.34827
923.98         66.1396
924.37        65.67228
924.77        64.95909
925.16        64.05849
925.55         63.2033
925.95        62.75419
926.34        62.83964
926.74        63.34887
927.13        64.09675
927.52        64.68082
927.92        64.96728
928.31        65.04363
928.70        65.06581
929.10        65.32958
929.49        65.89881
929.89        66.63932
930.28        67.29951
930.67        67.44912
931.07        66.99046
931.46        66.06861
931.85        65.02368
932.24        64.41049
932.64        64.38018
933.03        64.82194
933.42        65.39551
933.82        65.57948
934.21        65.25865
934.60        64.58041
934.99        63.92054
935.39        63.81778
935.78        64.40522
936.17        65.53075
936.56        66.71947
936.96        67.11958
937.35        66.55211
937.74         65.2729
938.13        63.88625
938.53        63.18503
938.92        63.29159
939.31        64.01076
939.70        64.95184
940.09        65.40047
940.49        65.14821
940.88        64.45025
941.27        63.67062
941.66        63.35106
942.05        63.61989
942.44        64.28934
942.84        65.09035
943.23        65.61475
943.62        65.66817
944.01        65.41395
944.40        65.01099
944.79        64.69963
945.18        64.57198
945.57        64.53449
945.97        64.57447
946.36        64.78431
946.75        65.11253
947.14        65.54385
947.53         65.9491
947.92        66.08007
948.31         65.8758
948.70        65.42628
949.09        64.85998
949.48        64.36793
949.87         64.0359
950.26        63.84574
950.65        63.83119
951.04        64.04598
951.43        64.45547
951.82        64.97374
952.21        65.52948
952.60        66.03372
952.99        66.41667
953.38        66.67367
953.77        66.63428
954.16        66.02691
954.55         64.8933
954.94        63.44242
955.33        62.03048
955.72        61.18171
956.11        61.02541
956.50         61.3758
956.89        62.13559
957.28        63.13551
957.66        64.26917
958.05        65.44579
958.44        66.32483
958.83        66.25789
959.22         65.1751
959.61        63.37471
960.00        61.42039
960.39        60.10929
960.78        59.63995
961.16        59.82804
961.55        60.50916
961.94        61.48357
962.33        62.58987
962.72        63.88826
963.11        65.05405
963.49        65.49788
963.88        65.05698
964.27        63.93342
964.66        62.60434
965.04        61.77183
965.43        61.57106
965.82        61.79604
966.21        62.27142
966.60        62.63943
966.98        62.75032
967.37        62.73635
967.76        62.53777
968.15        62.02113
968.53        61.23906
968.92        60.23062
969.31         59.3133
969.69        59.00347
970.08         59.3699
970.47        60.27888
970.86        61.42477
971.24        62.21928
971.63        62.38901
972.02        62.11419
972.40        61.53181
972.79        60.90633
973.17        60.38346
973.56        59.89121
973.95        59.50986
974.33        59.37107
974.72        59.43588
975.11        59.66056
975.49        60.05592
975.88        60.57936
976.26        61.21742
976.65        61.92111
977.04        62.37957
977.42        62.08683
977.81        60.99125
978.19        59.22501
978.58        57.69017
978.96        57.52856
979.35        58.92558
979.74        61.64705
980.12        64.88142
980.51        66.42436
980.89         65.7574
981.28        63.37564
981.66         60.4488
982.05        58.98061
982.43        59.46319
982.82        61.28738
983.20        63.86415
983.59        66.00152
983.97        67.31428
984.35        68.08798
984.74        68.21443
985.12        67.66083
985.51        66.49418
985.89        64.65688
986.28        62.71219
986.66        61.43486
987.04        61.14786
987.43        61.73152
987.81        62.70472
988.20        63.00694
988.58        62.40563
988.96        61.04733
989.35         59.7118
989.73        59.62022
990.12        60.94843
990.50        63.35752
990.88          65.656
991.27        65.93345
991.65         63.9196
992.03        60.31676
992.42        56.60011
992.80        54.78156
993.18         55.4618
993.56        57.98886
993.95        61.34134
994.33        63.97438
994.71         65.0689
995.10        65.07783
995.48        64.28841
995.86        63.20576
996.24         62.1424
996.63        60.93638
997.01        59.75668
997.39        58.87154
997.77        58.33907
998.15        58.20324
998.54        58.43132
998.92        58.85801
999.30         59.4061
999.68        60.07127
1000.06        60.76133
1000.45        61.31274
1000.83        61.76183
1001.21        62.01347
1001.59         62.0644
1001.97        61.96553
1002.35        61.76414
1002.73        61.49738
1003.12        61.23122
1003.50        61.00572
1003.88        60.88787
1004.26        60.88617
1004.64        61.02919
1005.02        61.33823
1005.40        61.79616
1005.78        62.38503
1006.16        62.99525
1006.54        63.41567
1006.92        63.55278
1007.30        63.41079
1007.69        63.02769
1008.07        62.73679
1008.45        62.52275
1008.83        62.33306
1009.21        62.09129
1009.59        61.64115
1009.97        60.99561
1010.35        60.31619
1010.73        59.73316
1011.11        59.43887
1011.49        59.55982
1011.86         60.1674
1012.24        61.20412
1012.62        62.97881
1013.00        65.44337
1013.38        68.37901
1013.76        71.25446
1014.14        73.21968
1014.52        73.90903
1014.90        73.44717
1015.28        71.84244
1015.66        69.40701
1016.04        66.72913
1016.41         64.1452
1016.79        62.08305
1017.17        60.73263
1017.55        59.90879
1017.93        59.43171
1018.31        59.28132
1018.69        59.35651
1019.06        59.55215
1019.44        59.90337
1019.82        59.97226
1020.20        59.29355
1020.58        57.85537
1020.95        55.48987
1021.33        52.95146
1021.71        52.13596
1022.09        53.98502
1022.46        57.88757
1022.84          62.222
1023.22        64.88668
1023.60        65.34095
1023.97        64.22867
1024.35        61.88903
1024.73        59.09276
