SpectraSmart Spectrum 2.9.0.0
--------- Device Information -----------
Spectrum Name :  反射率_0
Saving Time :  2024/05/01 16:48:07
Spectro-Module Model Name : SE2030-DUVN
Spectro-Module Serial Number : OS361AC55029948
Wavelength Start : 200
Wavelength End : 1025
Wavelength Unit : Wavelength(nm)
Spectrum Unit : Reflectance(%)
-----------Spectrum Setting ------------
Integration Time : 20ms
Average : 10
Boxcar : 0
Background removal :  enabled
linearity correction :  enabled
SC :  disabled
Intensity correction :  disabled
DWT denoise :  enabled
savitzky-golay :  disabled
FFT :  disabled
Running average :  disabled
Kalman :  disabled
High pass :  disabled
---------------BEGIN--------------------
Wavelength(nm)             Reflectance(%)
200.29               0
200.75        265.8352
201.21        983.6189
201.67       -361.2431
202.13       -118.3211
202.58       -45.89046
203.04       -5.538164
203.50        17.59134
203.96        25.16351
204.42        17.99879
204.88       -24.07989
205.34       -1188.487
205.80        224.1619
206.26        156.0085
206.72        133.4366
207.18         137.462
207.64        40.77098
208.10        45.13042
208.55         34.2645
209.01           22.98
209.47        16.43591
209.93        13.31315
210.39        9.553277
210.85        3.241894
211.31       -11.47235
211.77       -66.81313
212.23        365.2445
212.69        108.9811
213.14        110.5026
213.60        199.0893
214.06       -865.2466
214.52        -132.995
214.98       -86.53043
215.44       -79.60838
215.90       -99.66823
216.36       -528.5317
216.81        150.4934
217.27        224.7519
217.73       -664.6907
218.19       -190.1104
218.65       -164.3204
219.11       -196.1201
219.57       -327.3604
220.02       -819.5139
220.48       -361.9863
220.94       -101.5771
221.40       -40.87632
221.86        -20.3056
222.32       -11.06376
222.77       -4.808147
223.23       0.8902196
223.69        7.374808
224.15        12.87724
224.61        14.87901
225.06        14.54229
225.52        13.76616
225.98        13.52724
226.44        13.94229
226.90        14.74086
227.36        16.11698
227.81        17.88245
228.27        19.15899
228.73        19.81219
229.19        19.86352
229.65        19.24822
230.10        18.04125
230.56        16.54336
231.02        14.80417
231.48        13.55758
231.93        13.41529
232.39        13.94205
232.85        15.54537
233.31         18.7849
233.77        23.12237
234.22         28.0246
234.68        32.23911
235.14        34.47777
235.60        34.60107
236.05        32.69217
236.51        29.02765
236.97        25.90893
237.43        25.44252
237.88        27.60564
238.34        30.46702
238.80        31.20047
239.26        28.64121
239.71        22.39023
240.17        11.61774
240.63      -0.2380563
241.08       -6.117525
241.54       -4.332544
242.00       0.7577522
242.46        4.388494
242.91         6.34098
243.37         6.78639
243.83        10.25595
244.28        27.17305
244.74        47.90071
245.20         60.8961
245.66        65.06259
246.11        61.98489
246.57        52.48085
247.03        33.55183
247.48       0.9823214
247.94       -35.52739
248.40       -55.66683
248.85       -57.15776
249.31       -42.15009
249.77       -22.04926
250.22       -5.002863
250.68        8.444609
251.14        16.89677
251.59        19.41629
252.05        16.39472
252.51         4.73696
252.96       -26.46423
253.42       -71.43988
253.88       -64.90552
254.33       -19.00305
254.79         10.6626
255.25        24.57934
255.70        31.52878
256.16        35.95173
256.62        38.98964
257.07        41.04566
257.53        42.63204
257.99        43.65015
258.44        44.31501
258.90        45.15099
259.35        45.91122
259.81        46.73689
260.27        47.20355
260.72        46.78672
261.18        45.80678
261.63        44.39885
262.09        43.09271
262.55        42.13779
263.00        41.46178
263.46         40.9996
263.91        40.54603
264.37        40.08363
264.83        39.54149
265.28        38.96985
265.74        38.37588
266.19        37.54943
266.65        36.59146
267.11        35.50097
267.56        34.50903
268.02        34.06757
268.47        34.19332
268.93        34.70047
269.38         35.2597
269.84        35.27464
270.30        34.62788
270.75        33.50654
271.21        32.18967
271.66        30.99107
272.12        30.08233
272.57        29.31852
273.03        28.73897
273.48         28.3553
273.94        28.15367
274.39        28.11501
274.85        28.10577
275.31        27.87746
275.76        27.38584
276.22        26.72873
276.67        26.02908
277.13        25.55257
277.58        25.28551
278.04        25.18048
278.49        25.05915
278.95        24.75817
279.40        24.21405
279.86        23.54506
280.31        22.85558
280.77        22.35681
281.22         22.0414
281.68        21.88078
282.13        21.72561
282.59        21.43658
283.04        20.97378
283.50        20.43608
283.95        19.93181
284.41        19.66754
284.86        19.66746
285.32         19.8566
285.77         20.1246
286.22        20.34638
286.68        20.48578
287.13        20.55912
287.59        20.58372
288.04         20.5456
288.50        20.47807
288.95        20.35148
289.41         20.2252
289.86        20.12622
290.32         20.0873
290.77        20.10582
291.22        20.16529
291.68        20.22891
292.13        20.29196
292.59        20.39101
293.04        20.54718
293.50        20.83865
293.95        21.25586
294.40        21.77487
294.86        22.34187
295.31        22.88767
295.77        23.37869
296.22        23.82195
296.68         24.2231
297.13        24.58735
297.58        24.93038
298.04         25.2621
298.49         25.5849
298.95        25.93776
299.40        26.31019
299.85        26.69608
300.31        27.09297
300.76        27.49334
301.21        27.89599
301.67        28.31471
302.12        28.70247
302.58        29.01165
303.03        29.21674
303.48         29.3462
303.94        29.48941
304.39         29.7266
304.84        30.08961
305.30        30.53611
305.75        30.97778
306.20        31.29583
306.66        31.46367
307.11        31.50078
307.57        31.46715
308.02        31.40388
308.47        31.34483
308.93        31.28461
309.38        31.20064
309.83        31.10711
310.29        31.01194
310.74        30.91512
311.19        30.82096
311.65        30.71832
312.10        30.60157
312.55         30.4769
313.00        30.35812
313.46        30.26693
313.91        30.19834
314.36        30.13811
314.82        30.06506
315.27        29.96007
315.72        29.80919
316.18        29.62313
316.63        29.39362
317.08        29.11097
317.53        28.78157
317.99         28.4222
318.44        28.05406
318.89        27.72932
319.35        27.46854
319.80        27.25808
320.25        27.09909
320.70        26.98379
321.16        26.89353
321.61        26.83217
322.06        26.75706
322.51        26.60447
322.97        26.35538
323.42         26.0317
323.87        25.67673
324.32        25.37867
324.78        25.15905
325.23        25.00663
325.68        24.87697
326.13        24.70035
326.59        24.45048
327.04        24.16172
327.49        23.85557
327.94        23.57667
328.39        23.34024
328.85        23.12449
329.30        22.92813
329.75         22.7262
330.20        22.51321
330.66        22.29633
331.11        22.09054
331.56        21.89301
332.01        21.70717
332.46        21.53083
332.92        21.36524
333.37        21.24024
333.82        21.15132
334.27        21.09821
334.72        21.06361
335.17        21.01856
335.63        20.94472
336.08         20.8543
336.53        20.76884
336.98         20.7356
337.43        20.76046
337.88        20.83232
338.34        20.88368
338.79        20.81569
339.24        20.60625
339.69        20.28833
340.14        19.96584
340.59        19.80344
341.05         19.8269
341.50        19.98788
341.95        20.17603
342.40        20.21156
342.85        20.05391
343.30        19.77641
343.75        19.45926
344.20        19.22316
344.66        19.11214
345.11        19.07635
345.56        19.11998
346.01         19.2465
346.46         19.4318
346.91        19.66433
347.36        19.86919
347.81         19.9334
348.26        19.83768
348.72         19.6199
349.17        19.32974
349.62        19.09144
350.07        18.93869
350.52        18.83678
350.97         18.7586
351.42        18.65207
351.87        18.51141
352.32        18.38379
352.77        18.25895
353.22        18.11548
353.67        17.95766
354.13        17.77839
354.58        17.65215
355.03        17.72653
355.48        18.00882
355.93        18.45765
356.38        18.88293
356.83        18.96545
357.28        18.65251
357.73        18.06217
358.18         17.4442
358.63        17.17129
359.08        17.31635
359.53        17.75146
359.98        18.29754
360.43        18.64509
360.88        18.68988
361.33        18.53744
361.78        18.26064
362.23        17.96318
362.68        17.69402
363.13        17.41553
363.58        17.17178
364.03        17.04766
364.48        17.05024
364.93         17.1582
365.38        17.29367
365.83        17.32348
366.28        17.21403
366.73        17.00378
367.18        16.73375
367.63        16.47901
368.08        16.27623
368.53        16.10956
368.98         15.9869
369.43        15.91962
369.88        15.89847
370.33        15.91427
370.78        15.94598
371.23        15.95156
371.68         15.9132
372.13         15.8423
372.58        15.72327
373.03        15.53432
373.48        15.28346
373.93        14.98231
374.38        14.69771
374.83        14.54224
375.28        14.53897
375.72        14.65064
376.17        14.80078
376.62        14.86762
377.07        14.81862
377.52        14.68967
377.97        14.51849
378.42        14.36663
378.87        14.25713
379.32        14.17089
379.77        14.10359
380.22        14.05105
380.67         14.0085
381.11        13.98227
381.56        13.96538
382.01        13.94653
382.46        13.92264
382.91        13.89578
383.36        13.85952
383.81        13.80808
384.26        13.73932
384.71        13.64805
385.15        13.55027
385.60        13.48747
386.05        13.46041
386.50        13.46662
386.95        13.46325
387.40        13.38298
387.85        13.22516
388.29        13.00742
388.74        12.82524
389.19        12.76647
389.64        12.83972
390.09        12.99914
390.54        13.17675
390.98         13.2628
391.43        13.22967
391.88        13.12338
392.33        12.97179
392.78        12.81913
393.23        12.68627
393.67        12.53949
394.12        12.42256
394.57        12.41085
395.02         12.4883
395.47         12.5578
395.91        12.59369
396.36        12.61541
396.81         12.6191
397.26         12.5765
397.71        12.50268
398.15        12.45402
398.60         12.4536
399.05        12.42573
399.50        12.38826
399.95        12.46065
400.39        12.59972
400.84        12.58025
401.29        12.39524
401.74        12.23492
402.18        12.11291
402.63        11.91484
403.08        11.69053
403.53        11.56935
403.97        11.56513
404.42        11.64249
404.87        11.74632
405.32        11.78602
405.76        11.73493
406.21          11.625
406.66        11.49781
407.11        11.42122
407.55        11.41678
408.00        11.46385
408.45        11.52734
408.90        11.53275
409.34        11.46935
409.79        11.38452
410.24        11.31212
410.68        11.27146
411.13         11.2734
411.58        11.32111
412.03        11.37487
412.47        11.36116
412.92        11.26534
413.37        11.11291
413.81        10.96403
414.26        10.91721
414.71        10.98468
415.15         11.1428
415.60         11.3125
416.05        11.37516
416.49        11.29877
416.94        11.11903
417.39        10.91564
417.83        10.81509
418.28        10.84837
418.73        10.97518
419.17        11.12371
419.62        11.17222
420.07        11.09847
420.51        10.94437
420.96        10.78415
421.41        10.70957
421.85        10.73704
422.30        10.83299
422.74        10.95274
423.19        11.04283
423.64        11.08182
424.08        11.09133
424.53        11.06183
424.98        10.99729
425.42        10.90988
425.87        10.80985
426.31        10.70888
426.76        10.63782
427.21        10.59898
427.65        10.58079
428.10        10.60645
428.54        10.70836
428.99        10.87568
429.44         11.1045
429.88        11.29321
430.33        11.29819
430.77        11.11021
431.22        10.79327
431.66        10.46402
432.11        10.32709
432.56        10.38898
433.00        10.56742
433.45        10.73276
433.89        10.62574
434.34        10.24481
434.78        10.28393
435.23        10.77702
435.67        10.96422
436.12         10.8371
436.57        10.79716
437.01        10.86402
437.46        10.86233
437.90        10.79151
438.35        10.71949
438.79        10.65345
439.24        10.57623
439.68        10.51241
440.13        10.53942
440.57        10.62297
441.02        10.65965
441.46        10.63951
441.91        10.54642
442.35        10.42518
442.80        10.52228
443.24         10.7575
443.69        10.70458
444.13        10.41055
444.58        10.31422
445.02        10.42436
445.47        10.50874
445.91        10.53961
446.36        10.58324
446.80        10.63011
447.24        10.66063
447.69        10.67728
448.13        10.68748
448.58        10.69223
449.02        10.68793
449.47        10.67638
449.91        10.65135
450.36        10.61834
450.80         10.5823
451.25        10.54541
451.69        10.50231
452.13        10.45551
452.58          10.407
453.02         10.3694
453.47        10.37053
453.91        10.41075
454.36        10.48443
454.80        10.55682
455.24        10.56907
455.69        10.51334
456.13        10.39989
456.58        10.28567
457.02        10.24247
457.46        10.28678
457.91        10.39573
458.35        10.50849
458.79        10.51213
459.24        10.39661
459.68        10.22777
460.13        10.09266
460.57        9.911736
461.01         9.99574
461.46        10.09065
461.90        10.23568
462.34        10.30598
462.79         10.3328
463.23        10.29061
463.68        10.22841
464.12        10.19958
464.56        10.21964
465.01        10.28197
465.45        10.33404
465.89        10.31575
466.34        10.22499
466.78        10.07921
467.22        9.933645
467.67        9.899959
468.11        9.957986
468.55        10.11201
468.99         10.2921
469.44        10.41011
469.88        10.44435
470.32        10.41668
470.77        10.35785
471.21        10.31439
471.65        10.30431
472.10        10.31283
472.54        10.32883
472.98        10.34361
473.42        10.35501
473.87        10.37693
474.31         10.4021
474.75        10.42787
475.20        10.45707
475.64        10.48069
476.08        10.50731
476.52        10.57836
476.97        10.69941
477.41        10.80783
477.85        10.85791
478.29         11.0867
478.74        11.01003
479.18        11.00281
479.62         10.9561
480.06        10.99162
480.50        11.12268
480.95        11.10682
481.39        11.29291
481.83        11.31827
482.27        11.29445
482.72        11.24523
483.16        11.19148
483.60        11.19105
484.04        11.24037
484.48        11.28349
484.93        11.39901
485.37        11.65353
485.81        11.87039
486.25        12.36986
486.69        11.46159
487.14        11.25638
487.58        12.02041
488.02        11.98687
488.46        11.90666
488.90        12.13232
489.34        11.91891
489.79        11.93558
490.23        12.34475
490.67        12.61674
491.11        12.80503
491.55         12.7626
491.99        12.57188
492.43        12.54448
492.88        12.71121
493.32        12.86851
493.76        12.98313
494.20        13.11589
494.64        13.26271
495.08         13.3942
495.52        13.50658
495.96        13.64627
496.41        13.80099
496.85        13.84271
497.29        13.81686
497.73        13.98336
498.17        14.30923
498.61        14.46119
499.05        14.43355
499.49        14.49296
499.93        14.64497
500.37        14.73069
500.82        14.76276
501.26        14.83345
501.70        14.95104
502.14        15.09197
502.58        15.22698
503.02        15.31011
503.46        15.33513
503.90        15.32063
504.34        15.30995
504.78         15.3707
505.22        15.51606
505.66        15.72138
506.10        15.93697
506.54        16.08134
506.98         16.1306
507.42         16.1093
507.86         16.0518
508.30        16.01158
508.74        16.00851
509.18        16.03126
509.62        16.06954
510.06        16.10634
510.50        16.13698
510.94        16.16912
511.38        16.21449
511.82        16.28879
512.26        16.38919
512.70        16.50139
513.14        16.60086
513.58        16.65221
514.02        16.64879
514.46        16.60593
514.90        16.53922
515.34        16.47513
515.78        16.42647
516.22        16.38659
516.66        16.36896
517.10        16.39234
517.54        16.45561
517.98        16.55526
518.42        16.65576
518.86        16.69668
519.30        16.66609
519.74        16.58045
520.18        16.48293
520.62        16.44432
521.06        16.47917
521.50         16.5624
521.93        16.65808
522.37         16.7029
522.81        16.68169
523.25        16.61815
523.69        16.53079
524.13        16.44697
524.57        16.37971
525.01        16.32014
525.45        16.27608
525.89        16.26161
526.32        16.27428
526.76        16.30656
527.20         16.3388
527.64        16.33637
528.08        16.29179
528.52        16.21904
528.96        16.12721
529.40        16.03196
529.83         15.9399
530.27        15.84946
530.71        15.77675
531.15        15.75142
531.59        15.77329
532.03        15.83137
532.46        15.88478
532.90        15.86907
533.34        15.77486
533.78        15.61467
534.22        15.43253
534.66        15.32123
535.09        15.28375
535.53        15.24802
535.97        15.20872
536.41        15.21245
536.85        15.25397
537.28        15.30336
537.72        15.35141
538.16        15.39903
538.60        15.44122
539.04         15.4739
539.47        15.49788
539.91        15.52716
540.35        15.56181
540.79        15.60758
541.22        15.66466
541.66        15.70831
542.10        15.77899
542.54        15.84567
542.97        15.92329
543.41         16.0258
543.85        16.15043
544.29        16.29431
544.72         16.4423
545.16        16.57876
545.60        16.69767
546.04        16.79986
546.47        16.90094
546.91        17.03047
547.35        17.19167
547.79        17.37063
548.22        17.53053
548.66        17.65374
549.10        17.73877
549.53         17.7165
549.97        17.78491
550.41        17.89453
550.84         18.1027
551.28        18.38437
551.72        18.69031
552.15        18.92159
552.59         19.0626
553.03        19.16522
553.46         19.2412
553.90        19.32093
554.34        19.41855
554.77         19.4958
555.21         19.5419
555.65        19.75391
556.08        19.75877
556.52        19.86718
556.96        19.96684
557.39         20.0771
557.83        20.20098
558.27        20.30269
558.70        20.37869
559.14        20.52364
559.57        20.55248
560.01        20.65048
560.45        20.72822
560.88        20.71593
561.32           20.66
561.75        20.58301
562.19        20.55366
562.63        20.76475
563.06        21.12852
563.50        21.19613
563.93        20.99677
564.37        20.99267
564.80        21.18766
565.24        21.32393
565.68        21.38819
566.11        21.48671
566.55         21.6264
566.98        21.76858
567.42        21.92108
567.85         22.0826
568.29        22.25875
568.72        22.42541
569.16        22.58874
569.60        22.73689
570.03        22.86033
570.47         22.9214
570.90        23.09304
571.34        23.07387
571.77        23.19294
572.21        23.23357
572.64        23.30758
573.08        23.38183
573.51        23.95548
573.95        23.99145
574.38        23.87168
574.82        24.29399
575.25        24.24946
575.69         24.3533
576.12        24.23969
576.56        24.36816
576.99        24.61416
577.42        24.46675
577.86        24.47783
578.29         24.4523
578.73        24.42669
579.16        24.20506
579.60        23.98631
580.03         23.8781
580.47        24.06792
580.90         23.7012
581.33         24.0388
581.77         24.2609
582.20        23.81697
582.64        23.54303
583.07        23.56866
583.51        23.38226
583.94        23.17803
584.37        23.07615
584.81         23.0996
585.24        23.09446
585.68        23.03318
586.11        22.87369
586.54        22.65214
586.98        22.51641
587.41         22.4628
587.85        22.66113
588.28        22.37237
588.71        22.23544
589.15        22.50815
589.58        22.12837
590.01        22.35351
590.45         22.2563
590.88        22.18134
591.31         22.2165
591.75        22.37453
592.18        22.25916
592.61        21.80695
593.05        22.45398
593.48        22.20499
593.91        22.14978
594.35        22.38994
594.78        22.51687
595.21        22.69487
595.65        22.80193
596.08        22.82838
596.51        23.02198
596.94        23.05938
597.38        23.26505
597.81        23.59251
598.24        23.48613
598.68        24.01143
599.11        24.13495
599.54        24.87139
599.97        24.73772
600.41        25.05374
600.84        25.65302
601.27        25.74793
601.70        26.27365
602.14        26.68885
602.57        26.99863
603.00         27.1632
603.43        27.39495
603.87        27.91088
604.30        28.27063
604.73        28.56578
605.16        28.93124
605.60        29.36568
606.03        29.84657
606.46        30.29091
606.89        30.68397
607.32         31.0908
607.76        31.44047
608.19        31.73872
608.62        32.16699
609.05        32.42112
609.48        32.83926
609.92        32.85913
610.35          33.421
610.78        33.84614
611.21        34.36916
611.64        34.61113
612.07        34.94523
612.50        35.31134
612.94        35.52817
613.37        35.62841
613.80        35.91921
614.23        36.02598
614.66        36.47289
615.09        36.56718
615.52        36.82813
615.96        37.09686
616.39        37.45262
616.82        37.85995
617.25        38.20123
617.68        38.44275
618.11        38.56947
618.54        38.62049
618.97        38.71601
619.40        38.89491
619.84        39.07021
620.27        39.24844
620.70        39.58357
621.13        40.01802
621.56        40.15451
621.99        39.97387
622.42        40.29897
622.85        40.23848
623.28        40.30695
623.71        40.32438
624.14        40.42316
624.57        40.58032
625.00        40.63177
625.43        40.57246
625.86        40.36878
626.29        40.33007
626.72        39.99502
627.15        39.92493
627.58        39.67493
628.01        39.40969
628.44        39.32574
628.87        39.29969
629.30        39.03619
629.73        38.56765
630.16        38.25234
630.59        38.10054
631.02        37.92231
631.45        37.66503
631.88        37.32661
632.31        36.89637
632.74        36.38144
633.17        35.85059
633.60        35.41266
634.03        35.09081
634.46        34.85294
634.89        34.63536
635.32        34.33169
635.75        33.91484
636.18        33.42302
636.61        32.89795
637.04        32.40274
637.47        31.96113
637.89        31.54749
638.32        31.14567
638.75        30.78274
639.18        30.46572
639.61        30.07567
640.04        29.83591
640.47        29.55045
640.90        29.28247
641.33        29.02085
641.76        28.77387
642.18        28.59825
642.61        28.50019
643.04        28.40541
643.47        28.26724
643.90        28.40973
644.33        28.21257
644.76        28.13846
645.18        28.05458
645.61        28.14822
646.04        28.38491
646.47        28.52313
646.90        28.56665
647.33        28.71324
647.75        28.96649
648.18        29.20142
648.61         29.4236
649.04        29.68751
649.47        29.99375
649.89        30.38435
650.32        30.82724
650.75        31.14234
651.18        31.36715
651.61        31.84641
652.03        32.56018
652.46        33.02931
652.89        33.28059
653.32        33.74894
653.74        34.50857
654.17        34.94701
654.60         35.7051
655.03        36.12498
655.46         35.9926
655.88         37.0161
656.31        41.97321
656.74        41.24509
657.16        37.79697
657.59        37.40214
658.02        38.68799
658.45        39.28979
658.87        39.98873
659.30        39.81966
659.73        40.19604
660.15        40.88109
660.58        41.32866
661.01        41.57807
661.44        41.51382
661.86        41.92651
662.29        42.74464
662.72        43.17084
663.14        43.20604
663.57        43.40459
664.00        43.77648
664.42        43.98617
664.85        44.04846
665.27        44.11443
665.70        44.23277
666.13        44.41672
666.55        44.68332
666.98        45.01991
667.41        45.37944
667.83         45.6801
668.26        45.88403
668.69        46.01155
669.11        46.09692
669.54        46.21219
669.96        46.36891
670.39        46.52213
670.82        46.66941
671.24         46.7874
671.67         46.8964
672.09        47.08732
672.52        47.33469
672.94        47.47231
673.37        47.49607
673.80        47.48979
674.22         47.4982
674.65        47.53832
675.07        47.63985
675.50        47.78634
675.92        47.97434
676.35        48.18829
676.77        48.41591
677.20        48.66033
677.62        48.90731
678.05        49.08931
678.47        49.18424
678.90        49.35832
679.32        49.33411
679.75        49.42702
680.17        49.55676
680.60        49.70285
681.02        49.85897
681.45        50.00439
681.87        50.14114
682.30        50.29787
682.72        50.46193
683.15        50.50944
683.57        50.47803
684.00        50.54302
684.42        50.70856
684.85        50.84209
685.27        50.92865
685.70        51.06618
686.12        51.22102
686.54        51.28434
686.97        51.24722
687.39        51.23314
687.82         51.2496
688.24        51.16257
688.66         51.0508
689.09        51.24607
689.51        51.69646
689.94        51.96628
690.36        52.02173
690.78        52.10449
691.21        52.27281
691.63        52.45008
692.06        52.68684
692.48        53.16953
692.90        53.76815
693.33        54.08234
693.75        54.06008
694.17        53.83672
694.60        53.56621
695.02        53.45578
695.44        53.55146
695.87        53.68794
696.29        53.81916
696.71         53.7215
697.14        53.52099
697.56        53.83034
697.98        54.53301
698.41        54.85393
698.83        54.76742
699.25        54.78849
699.68        54.94461
700.10        55.04984
700.52        55.10855
700.94        55.16813
701.37        55.24316
701.79        55.42735
702.21        55.66096
702.64        55.79986
703.06        55.83226
703.48        55.79323
703.90        55.67112
704.33        55.81504
704.75        55.58866
705.17        55.65285
705.59        55.79837
706.01        56.26653
706.44        56.50589
706.86        56.79904
707.28        56.94861
707.70         57.1053
708.12        57.24269
708.55        57.06337
708.97        56.70944
709.39        56.76885
709.81        57.19229
710.23        57.40701
710.66        57.38103
711.08        57.27931
711.50        57.47643
711.92        57.54526
712.34        57.59586
712.76        57.65364
713.19        57.70518
713.61        57.76532
714.03        57.81484
714.45        57.85197
714.87        57.89452
715.29        57.97253
715.71         58.0915
716.13        58.24911
716.56        58.39694
716.98        58.51481
717.40         58.5619
717.82        58.56716
718.24        58.59146
718.66        58.60842
719.08        58.81434
719.50        59.06396
719.92        59.32433
720.34        59.37364
720.76        59.21952
721.19        59.07483
721.61        59.00048
722.03        58.93879
722.45        58.92114
722.87        59.02987
723.29        59.21637
723.71        59.34958
724.13        59.39864
724.55        59.38552
724.97        59.38921
725.39        59.52158
725.81        59.79191
726.23        60.20053
726.65        60.58994
727.07        60.60361
727.49        60.25525
727.91        59.87849
728.33        59.61285
728.75        59.46305
729.17        59.47996
729.59        59.72796
730.01         60.1049
730.43        60.36146
730.85        60.43401
731.27        60.40774
731.69        60.32265
732.10        60.23809
732.52        60.18866
732.94        60.14416
733.36        60.14318
733.78        60.25171
734.20        60.46781
734.62        60.79547
735.04        61.15626
735.46        61.34166
735.88        61.35978
736.30        61.43047
736.72        61.53573
737.13        61.52229
737.55        61.37235
737.97          61.131
738.39         60.8944
738.81        60.92699
739.23        61.18996
739.65        61.30652
740.06        61.23431
740.48        61.30513
740.90        61.48732
741.32        61.60382
741.74        61.63011
742.16        61.62037
742.57        61.57439
742.99        61.51475
743.41        61.49067
743.83        61.44446
744.25         61.4437
744.67        61.76001
745.08        62.27272
745.50        62.43906
745.92        62.21032
746.34        61.83583
746.75        61.45147
747.17        61.21716
747.59        61.17958
748.01        61.30798
748.42        61.53471
748.84        61.71428
749.26        61.82201
749.68        61.87753
750.09        61.91459
750.51          62.084
750.93        62.33687
751.35        62.41232
751.76        62.34563
752.18        62.38733
752.60        62.55233
753.01        62.74815
753.43        62.92205
753.85        62.92152
754.27         63.0118
754.68        62.98702
755.10        62.98452
755.52        63.08887
755.93        63.28911
756.35        63.51602
756.77        63.72915
757.18        63.80907
757.60        63.75072
758.02        63.81348
758.43        63.83339
758.85        63.41705
759.26         62.4883
759.68        62.19175
760.10        62.52368
760.51        63.45402
760.93        63.90739
761.34        64.18382
761.76          64.024
762.18        63.43169
762.59        62.75304
763.01        62.91446
763.42        63.84144
763.84        64.18807
764.26        63.87477
764.67        63.62245
765.09        63.59615
765.50        63.69921
765.92        63.89128
766.33        63.95278
766.75        63.78886
767.16        63.57421
767.58        63.42287
768.00        63.52614
768.41        63.95279
768.83        64.74371
769.24        65.60559
769.66        65.89108
770.07        65.59391
770.49        65.05222
770.90         64.5461
771.32        64.65229
771.73         65.2517
772.15        65.41684
772.56         65.1028
772.97        64.92705
773.39          64.937
773.80        64.93515
774.22         64.9018
774.63        64.94589
775.05        65.01501
775.46        65.08199
775.88        65.11332
776.29        65.13567
776.70        65.16697
777.12        65.26643
777.53        65.44262
777.95          65.631
778.36        65.79504
778.77        65.82069
779.19         65.6951
779.60        65.58848
780.02        65.47997
780.43        65.13911
780.84        64.75832
781.26        64.68712
781.67        64.92313
782.09        65.57459
782.50        66.34493
782.91        65.72727
783.33        64.90453
783.74        64.56392
784.15        65.10416
784.57        65.63009
784.98         66.0482
785.39        66.53123
785.81        67.00615
786.22        67.25746
786.63         67.6209
787.04        67.59989
787.46        67.45621
787.87        67.18901
788.28        66.99638
788.70        66.95984
789.11        67.08631
789.52        67.57396
789.93        68.17108
790.35        68.07424
790.76        67.40197
791.17        67.01494
791.58        67.04099
792.00        67.14323
792.41        67.25227
792.82        67.26823
793.23        67.14741
793.65        67.05804
794.06        67.01413
794.47        66.81419
794.88        66.56911
795.29        66.56599
795.71          66.775
796.12        67.17484
796.53         67.6151
796.94        67.87724
797.35        67.87524
797.76        67.46877
798.18        67.21151
798.59        66.99197
799.00        66.99986
799.41        67.15582
799.82        67.40069
800.23        67.62663
800.64        67.78553
801.06        67.90079
801.47        67.99194
801.88        67.99917
802.29        67.91782
802.70        67.73372
803.11        67.53346
803.52        67.46897
803.93        67.58839
804.34        67.86952
804.75        68.17293
805.17        68.35191
805.58        68.41161
805.99        68.02695
806.40        67.42485
806.81        67.79665
807.22        68.82809
807.63         68.5637
808.04        67.17493
808.45        66.63946
808.86        67.08803
809.27        67.38599
809.68         67.4389
810.09         67.6309
810.50        67.92925
810.91        68.23038
811.32        68.46096
811.73        68.50677
812.14        68.35325
812.55        68.04048
812.96        67.72592
813.37        67.67276
813.78        67.94041
814.19        68.44831
814.60        69.01009
815.01        69.33492
815.42        69.34901
815.83        69.12991
816.24        68.79005
816.65        68.55016
817.05        68.50188
817.46        68.55804
817.87        68.67167
818.28        68.73423
818.69        68.71198
819.10        68.64069
819.51        68.56566
819.92        68.55713
820.33        68.62988
820.74        68.74968
821.14        68.84414
821.55        68.83805
821.96        68.71017
822.37           68.51
822.78        68.31187
823.19        68.24277
823.60        68.35159
824.00        68.61832
824.41        68.97379
824.82        69.40575
825.23        69.86451
825.64        70.31922
826.04        70.71487
826.45        70.89007
826.86        70.83721
827.27        70.60538
827.68        70.21169
828.08        69.71735
828.49        69.14416
828.90        68.50529
829.31        67.97064
829.72        67.78914
830.12        68.03532
830.53        68.63667
830.94        69.31728
831.35        69.52263
831.75         69.1379
832.16        68.27689
832.57        67.40342
832.97        67.22498
833.38        67.86373
833.79        69.08557
834.20         70.4423
834.60        71.16639
835.01        71.01096
835.42        70.25266
835.82        69.23158
836.23        68.46436
836.64        68.12975
837.04        68.08981
837.45        68.24342
837.86        68.48778
838.26        68.76357
838.67         69.0779
839.08        69.39925
839.48        69.62689
839.89        69.71822
840.29        69.68187
840.70        69.53182
841.11        69.27721
841.51        68.96497
841.92        68.58793
842.33        68.27894
842.73        68.25379
843.14        68.50722
843.54        69.03429
843.95        69.63855
844.35        70.04892
844.76        70.14404
845.17        69.97968
845.57        69.70816
845.98        69.56757
846.38        69.63985
846.79        69.84725
847.19        70.04631
847.60        69.92207
848.00        69.44636
848.41        68.71786
848.81        68.02274
849.22         67.7626
849.62        68.03408
850.03        68.69266
850.43        69.46706
850.84        69.74771
851.24        69.43479
851.65        68.66831
852.05        67.82045
852.46        67.47928
852.86         67.7688
853.27        68.46893
853.67        69.26196
854.07        69.90232
854.48        70.25104
854.88        70.48719
855.29        70.46242
855.69        70.18698
856.10        69.60749
856.50        68.81504
856.90        68.02126
857.31        67.55027
857.71        67.45973
858.12        67.62656
858.52        67.96674
858.92        68.10207
859.33        67.91039
859.73        67.55609
860.13        67.07978
860.54        66.57732
860.94        66.11113
861.34        65.63404
861.75        65.28511
862.15        65.35152
862.55        65.85085
862.96        66.68373
863.36        67.58301
863.76        68.02552
864.17        67.88512
864.57        67.31513
864.97        66.59138
865.38        66.18708
865.78        66.26331
866.18        66.66472
866.58        67.19238
866.99         67.4849
867.39        67.46108
867.79        67.25614
868.19        66.97086
868.60        66.71156
869.00        66.51776
869.40         66.3298
869.80        66.24583
870.21        66.45083
870.61        66.99301
871.01        67.75293
871.41        68.42449
871.81        68.54593
872.22        68.03506
872.62        67.03931
873.02        65.88005
873.42        65.09793
873.82         64.8734
874.22        65.08863
874.63        65.53613
875.03        65.86633
875.43        65.98087
875.83        65.98356
876.23        66.03474
876.63        66.38176
877.03        67.05267
877.44        67.89881
877.84        68.71979
878.24        69.15142
878.64        69.10073
879.04        68.69895
879.44        68.13004
879.84        67.67135
880.24        67.40991
880.64        67.26671
881.04        67.22063
881.44        67.22395
881.84        67.25824
882.24        67.38231
882.65        67.49673
883.05        67.51515
883.45        67.38137
883.85        67.10406
884.25        66.87819
884.65        67.00832
885.05        67.52667
885.45        68.33926
885.85         69.1481
886.25        69.43798
886.65         69.0852
887.05        68.25947
887.45        67.30669
887.85        66.76799
888.25        66.79145
888.65        67.22357
889.04        67.83247
889.44        68.21083
889.84        68.24139
890.24        68.03136
890.64        67.74129
891.04        67.59368
891.44        67.64427
891.84        67.83642
892.24        67.99427
892.64        67.84306
893.04        67.34821
893.44        66.61399
893.83        65.94751
894.23        65.81442
894.63        66.26828
895.03        67.17257
895.43        68.15356
895.83        68.52662
896.23        68.12863
896.63        67.22649
897.02         66.1813
897.42        65.61734
897.82        65.62152
898.22        66.04788
898.62        66.73136
899.01        67.41777
899.41        67.93408
899.81         68.3532
900.21        68.75531
900.61        69.26752
901.00        69.89026
901.40        70.52592
901.80        70.96266
902.20        70.90346
902.59        70.33255
902.99        69.37774
903.39        68.36731
903.79        67.82323
904.18        67.85249
904.58        68.30202
904.98        68.89864
905.38        69.22374
905.77        69.15951
906.17        68.87511
906.57        68.43711
906.96        67.96859
907.36         67.5376
907.76         67.1161
908.15        66.86482
908.55        67.00471
908.95        67.57096
909.34        68.50401
909.74        69.51406
910.14        70.19102
910.53         70.3943
910.93        70.20647
911.33        69.79998
911.72        69.46906
912.12        69.32169
912.52        69.26903
912.91        69.18604
913.31        68.86597
913.70        68.29803
914.10        67.61138
914.49        66.99603
914.89        66.69787
915.29        66.77983
915.68        67.14718
916.08         67.6883
916.47        68.22748
916.87        68.67068
917.26        69.05085
917.66        69.33035
918.05        69.46262
918.45         69.4511
918.84         69.3322
919.24        69.18099
919.64        69.21983
920.03        69.50742
920.42         69.9465
920.82        70.43221
921.21        70.83084
921.61        71.05788
922.00        71.15691
922.40        71.07462
922.79        70.79834
923.19         70.3526
923.58         69.7929
923.98        69.19725
924.37        68.60767
924.77         68.0853
925.16        67.62331
925.55        67.33547
925.95        67.36498
926.34        67.74392
926.74        68.37742
927.13        69.15936
927.52        69.82433
927.92        70.26706
928.31        70.53919
928.70        70.65609
929.10        70.69353
929.49        70.70276
929.89         70.6496
930.28        70.54941
930.67        70.39088
931.07        70.17455
931.46        69.91768
931.85        69.69614
932.24        69.62183
932.64        69.70982
933.03        69.97321
933.42        70.21815
933.82        70.16045
934.21         69.7602
934.60         69.0824
934.99        68.46131
935.39        68.38145
935.78        68.95576
936.17        70.06548
936.56        71.24101
936.96        71.62217
937.35        71.03486
937.74        69.73108
938.13        68.30713
938.53        67.54932
938.92        67.57388
939.31        68.17864
939.70        69.00358
940.09         69.3939
940.49        69.15265
940.88        68.52171
941.27         67.7888
941.66        67.37662
942.05        67.39507
942.44          67.692
942.84        68.10262
943.23        68.42824
943.62        68.54079
944.01        68.54432
944.40        68.49335
944.79        68.45882
945.18        68.47793
945.57         68.5031
945.97        68.55898
946.36        68.79913
946.75        69.19675
947.14        69.71112
947.53        70.20825
947.92        70.44009
948.31        70.33501
948.70        69.97823
949.09        69.49935
949.48        69.08535
949.87        68.82598
950.26        68.72263
950.65        68.77461
951.04        68.97632
951.43        69.29468
951.82        69.65945
952.21        70.11429
952.60        70.74828
952.99        71.50922
953.38        72.32841
953.77        72.85556
954.16        72.50146
954.55        71.21566
954.94        69.30403
955.33        67.29029
955.72        65.95966
956.11        65.52628
956.50        65.74792
956.89        66.46008
957.28        67.37665
957.66        68.36237
958.05        69.37296
958.44        70.13974
958.83        70.12038
959.22        69.26073
959.61        67.79636
960.00        66.19123
960.39        65.11871
960.78        64.74991
961.16        64.92876
961.55        65.54373
961.94        66.49805
962.33        67.64702
962.72        68.99564
963.11        70.16457
963.49        70.47588
963.88        69.75166
964.27        68.27702
964.66         66.5388
965.04         65.2133
965.43        64.45697
965.82        64.08022
966.21        64.05298
966.60        64.29165
966.98        64.71451
967.37        65.35405
967.76        65.95327
968.15          66.047
968.53        65.55954
968.92        64.58733
969.31        63.50633
969.69        62.94291
970.08        63.02024
970.47         63.5882
970.86        64.37211
971.24        64.85941
971.63        64.82175
972.02        64.45321
972.40        63.93021
972.79        63.54739
973.17        63.41927
973.56        63.44059
973.95        63.55377
974.33        63.69735
974.72        63.78383
975.11        63.79179
975.49        63.85973
975.88        64.19968
976.26        64.88994
976.65        65.81868
977.04        66.51863
977.42        66.21992
977.81        64.84006
978.19        62.63934
978.58        60.69337
978.96        60.38535
979.35        61.95673
979.74        65.08822
980.12        68.91467
980.51        71.07583
980.89        70.96499
981.28        69.11757
981.66        66.60643
982.05        65.30087
982.43         65.6914
982.82        67.14073
983.20         69.3332
983.59        71.55592
983.97         73.5037
984.35        75.32455
984.74        76.45016
985.12         76.0909
985.51        74.18878
985.89        70.97153
986.28        67.49935
986.66        65.35835
987.04         65.0821
987.43        66.25694
987.81        68.14326
988.20        69.20914
988.58        69.01481
988.96        67.88443
989.35        66.46039
989.73        65.73521
990.12        65.93719
990.50        66.79556
990.88        67.65109
991.27        67.50098
991.65        66.24912
992.03        64.30838
992.42        62.52441
992.80         61.9348
993.18        62.85417
993.56        64.82046
993.95        67.17401
994.33        69.06904
994.71        69.94032
995.10        70.09804
995.48        69.46092
995.86        67.93148
996.24        65.75586
996.63        63.04831
997.01        60.59719
997.39        59.53814
997.77        60.04504
998.15         61.8687
998.54        64.26455
998.92        65.77631
999.30        65.89898
999.68         64.9795
1000.06        63.57047
1000.45        62.66655
1000.83        62.73899
1001.21         63.3948
1001.59        64.35419
1001.97        65.16224
1002.35        65.61299
1002.73        65.88026
1003.12        66.01286
1003.50        65.98376
1003.88        65.86696
1004.26        65.67996
1004.64        65.45221
1005.02        65.23623
1005.40         65.0863
1005.78        65.02507
1006.16        65.18819
1006.54        65.79192
1006.92        66.78107
1007.30         67.9351
1007.69        68.95665
1008.07        69.60861
1008.45        69.71935
1008.83        69.50687
1009.21        68.79276
1009.59        67.30147
1009.97        65.13293
1010.35        62.34453
1010.73         59.9736
1011.11        59.81073
1011.49        62.31837
1011.86        67.35988
1012.24        73.11742
1012.62        76.44151
1013.00        76.16106
1013.38        72.79568
1013.76        68.28981
1014.14        66.42475
1014.52        68.41252
1014.90        73.15759
1015.28        78.73329
1015.66        81.50124
1016.04        80.52155
1016.41        77.45472
1016.79        73.93211
1017.17        71.25057
1017.55        69.46329
1017.93        67.79958
1018.31        66.23708
1018.69        65.35912
1019.06        65.41584
1019.44        66.33783
1019.82        67.10854
1020.20        66.60563
1020.58        64.77854
1020.95        61.67958
1021.33         58.0224
1021.71        55.93404
1022.09        56.72341
1022.46        59.75095
1022.84        63.93707
1023.22        67.97031
1023.60        71.26228
1023.97        74.13073
1024.35        75.76839
1024.73        74.82112
