SpectraSmart Spectrum 2.9.0.0
--------- Device Information -----------
Spectrum Name :  反射率_0
Saving Time :  2024/05/01 17:09:59
Spectro-Module Model Name : SE2030-DUVN
Spectro-Module Serial Number : OS361AC55029948
Wavelength Start : 200
Wavelength End : 1025
Wavelength Unit : Wavelength(nm)
Spectrum Unit : Reflectance(%)
-----------Spectrum Setting ------------
Integration Time : 20ms
Average : 10
Boxcar : 0
Background removal :  enabled
linearity correction :  enabled
SC :  disabled
Intensity correction :  disabled
DWT denoise :  enabled
savitzky-golay :  disabled
FFT :  disabled
Running average :  disabled
Kalman :  disabled
High pass :  disabled
---------------BEGIN--------------------
Wavelength(nm)             Reflectance(%)
200.29               0
200.75        102.1424
201.21        390.2136
201.67        -135.121
202.13       -36.15763
202.58       -4.800017
203.04        13.63575
203.50        24.62051
203.96        28.28768
204.42        25.05651
204.88         6.48197
205.34       -505.9383
205.80        115.4515
206.26          84.562
206.72        72.80065
207.18        53.51963
207.64        104.3793
208.10        88.22391
208.55        85.67474
209.01        83.11659
209.47        78.54951
209.93        71.78354
210.39        62.00813
210.85         51.5064
211.31        43.01265
211.77        33.08484
212.23        69.19485
212.69        48.83717
213.14        61.69264
213.60        120.5421
214.06       -524.3671
214.52        -77.3691
214.98       -47.99041
215.44       -41.68872
215.90       -47.57516
216.36       -186.3681
216.81        10.14522
217.27       -31.74893
217.73        114.2025
218.19        25.35258
218.65        13.80807
219.11        5.722162
219.57       -12.74129
220.02       -91.84921
220.48       -52.69672
220.94       -10.97915
221.40        1.150795
221.86        6.751949
222.32        11.13805
222.77        16.58556
223.23        24.80478
223.69        35.85888
224.15        42.84068
224.61        41.81322
225.06        36.92897
225.52        33.76511
225.98        35.05228
226.44        40.79514
226.90        51.15054
227.36        64.21873
227.81        70.07461
228.27        65.05106
228.73        55.67807
229.19        48.16952
229.65        45.89175
230.10         48.2698
230.56         54.4269
231.02        62.55229
231.48        66.91288
231.93        64.91623
232.39        59.77114
232.85        54.62767
233.31         52.2952
233.77        52.67225
234.22        54.40763
234.68        56.53394
235.14        58.11486
235.60        58.99957
236.05        59.70567
236.51        60.38964
236.97        61.54926
237.43        63.18908
237.88        64.66114
238.34        65.19407
238.80        64.81738
239.26        63.36467
239.71         60.7467
240.17          55.478
240.63        46.63474
241.08        37.01683
241.54        30.14523
242.00         27.6658
242.46        29.12269
242.91        34.72698
243.37        46.04737
243.83        66.70824
244.28        87.80676
244.74        90.93532
245.20        82.87041
245.66        73.19359
246.11        64.65128
246.57        55.49447
247.03        42.16547
247.48        19.90541
247.94       -9.983912
248.40       -35.68979
248.85       -51.59612
249.31       -49.49578
249.77       -30.35036
250.22        -5.75895
250.68        17.30712
251.14        33.47258
251.59        39.98471
252.05        37.66484
252.51        23.10558
252.96       -17.00703
253.42       -73.99845
253.88       -63.84823
254.33       -6.464567
254.79        26.58599
255.25         36.1158
255.70         35.8158
256.16         33.3766
256.62         31.9092
257.07        33.33923
257.53         36.7433
257.99        40.28112
258.44        43.03238
258.90        44.64801
259.35        45.09048
259.81        45.08027
260.27        44.70083
260.72        44.05214
261.18        43.50135
261.63        42.85715
262.09        42.38282
262.55        42.10474
263.00        41.90463
263.46        41.78523
263.91        41.61242
264.37        41.44261
264.83        41.21082
265.28        40.95379
265.74        40.58543
266.19        39.76346
266.65        38.60638
267.11        37.16959
267.56        35.87859
268.02        35.48269
268.47        36.03748
268.93        37.25473
269.38        38.56293
269.84        38.96906
270.30        38.27116
270.75        36.80233
271.21        35.05284
271.66        33.65273
272.12        32.85773
272.57        32.40139
273.03        32.23975
273.48        32.25812
273.94        32.37516
274.39        32.59315
274.85        32.74509
275.31        32.51403
275.76        31.87373
276.22         30.9814
276.67        30.01186
277.13        29.32395
277.58        28.92203
278.04        28.72408
278.49        28.59328
278.95        28.43134
279.40         28.1455
279.86        27.82716
280.31         27.4151
280.77        26.90277
281.22         26.2754
281.68        25.61149
282.13        24.95021
282.59        24.43248
283.04        24.05142
283.50        23.79629
283.95        23.62886
284.41         23.5392
284.86        23.48062
285.32         23.4504
285.77        23.39495
286.22        23.26657
286.68        23.06242
287.13        22.79159
287.59        22.46554
288.04        22.07358
288.50        21.67059
288.95        21.23484
289.41        20.89212
289.86        20.75101
290.32        20.82248
290.77        21.04677
291.22        21.26379
291.68        21.22172
292.13        20.87918
292.59        20.34885
293.04        19.77746
293.50        19.44782
293.95        19.41084
294.40           19.58
294.86        19.86261
295.31        20.12386
295.77        20.30268
296.22        20.44624
296.68        20.52947
297.13        20.49876
297.58        20.37451
298.04        20.18925
298.49        20.02905
298.95        20.07128
299.40        20.33268
299.85        20.74973
300.31        21.24321
300.76        21.69696
301.21        22.06577
301.67        22.38897
302.12        22.62082
302.58         22.7162
303.03        22.67335
303.48        22.52813
303.94         22.4022
304.39        22.43552
304.84        22.66283
305.30        23.02456
305.75        23.42216
306.20        23.70923
306.66        23.84415
307.11         23.8593
307.57        23.78922
308.02        23.64956
308.47         23.4725
308.93        23.26164
309.38        23.04149
309.83         22.8943
310.29        22.83995
310.74         22.8602
311.19         22.9146
311.65        22.92171
312.10        22.86026
312.55        22.75587
313.00        22.65187
313.46        22.61774
313.91        22.66081
314.36        22.74823
314.82        22.83715
315.27        22.87277
315.72         22.8301
316.18        22.72874
316.63        22.57522
317.08        22.37808
317.53        22.14784
317.99        21.89074
318.44        21.62207
318.89        21.38675
319.35        21.20147
319.80        21.06001
320.25        20.95368
320.70        20.85648
321.16        20.75505
321.61        20.66234
322.06        20.57411
322.51        20.48748
322.97        20.39804
323.42        20.30813
323.87         20.2205
324.32        20.15103
324.78        20.09625
325.23        20.05805
325.68        20.01748
326.13        19.94937
326.59        19.84291
327.04        19.71727
327.49        19.57784
327.94        19.44226
328.39        19.31917
328.85        19.19979
329.30        19.09867
329.75        19.02155
330.20        18.96755
330.66        18.92915
331.11        18.89737
331.56        18.83666
332.01        18.73926
332.46        18.61503
332.92        18.47325
333.37        18.35378
333.82        18.26528
334.27        18.21114
334.72        18.19263
335.17        18.21088
335.63        18.25218
336.08        18.31331
336.53        18.40059
336.98        18.53519
337.43        18.70943
337.88        18.91774
338.34        19.07162
338.79        19.03679
339.24        18.79546
339.69        18.40022
340.14        18.00693
340.59        17.86428
341.05         18.0159
341.50         18.3812
341.95        18.81718
342.40        19.08685
342.85        19.12039
343.30        19.00376
343.75        18.79031
344.20        18.56234
344.66        18.36806
345.11        18.16991
345.56        18.03763
346.01        18.08691
346.46        18.31891
346.91        18.68951
347.36         19.0635
347.81        19.22931
348.26         19.1451
348.72        18.88704
349.17         18.5338
349.62        18.25401
350.07        18.10168
350.52        18.02482
350.97        18.00792
351.42        18.02185
351.87        18.04965
352.32        18.11781
352.77        18.17448
353.22        18.13432
353.67        17.98775
354.13        17.75308
354.58        17.51933
355.03        17.45658
355.48         17.5938
355.93        17.89309
356.38        18.20723
356.83        18.28697
357.28        18.08529
357.73        17.68733
358.18        17.28636
358.63        17.17083
359.08         17.3886
359.53        17.83468
359.98         18.3305
360.43        18.57362
360.88         18.4796
361.33        18.16065
361.78        17.73908
362.23        17.39109
362.68        17.17648
363.13        17.03804
363.58        16.97078
364.03        16.97361
364.48        17.02311
364.93        17.11376
365.38        17.19294
365.83        17.17047
366.28         17.0267
366.73        16.79005
367.18        16.48351
367.63        16.15562
368.08        15.84518
368.53        15.55504
368.98        15.33161
369.43        15.23911
369.88        15.27534
370.33        15.41119
370.78        15.58292
371.23        15.67252
371.68        15.63477
372.13        15.50002
372.58        15.28168
373.03        15.00316
373.48        14.69057
373.93        14.34924
374.38        14.03934
374.83        13.86284
375.28        13.84178
375.72          13.943
376.17        14.10857
376.62        14.24325
377.07         14.3091
377.52         14.3226
377.97        14.27594
378.42        14.16255
378.87        13.99498
379.32        13.78272
379.77        13.56352
380.22        13.39673
380.67        13.29987
381.11        13.26528
381.56        13.28082
382.01        13.32338
382.46        13.37974
382.91        13.45226
383.36        13.51974
383.81         13.5546
384.26        13.54436
384.71        13.47867
385.15        13.37824
385.60        13.29576
386.05        13.23982
386.50        13.21676
386.95        13.17479
387.40        13.03214
387.85        12.79395
388.29        12.48504
388.74        12.24461
389.19        12.22298
389.64        12.42945
390.09        12.79306
390.54        13.17144
390.98         13.3347
391.43         13.2351
391.88        12.96596
392.33        12.63083
392.78        12.38168
393.23        12.25954
393.67        12.19043
394.12        12.17898
394.57        12.24359
395.02        12.35007
395.47        12.42269
395.91        12.43658
396.36        12.41048
396.81        12.34658
397.26        12.21528
397.71        12.05562
398.15        11.96108
398.60        11.96116
399.05        11.97625
399.50        11.99489
399.95        12.09009
400.39        12.21398
400.84        12.16002
401.29        11.95436
401.74         11.8367
402.18        11.83002
402.63        11.79725
403.08        11.74127
403.53        11.72539
403.97        11.74642
404.42         11.7882
404.87        11.82073
405.32        11.79324
405.76        11.69654
406.21        11.55756
406.66        11.41341
407.11        11.32417
407.55        11.31008
408.00        11.35464
408.45        11.43717
408.90        11.50217
409.34        11.53576
409.79        11.57217
410.24        11.60946
410.68        11.61868
411.13         11.6017
411.58        11.57168
412.03        11.52599
412.47        11.45821
412.92        11.37362
413.37        11.28261
413.81        11.20191
414.26        11.16302
414.71        11.16677
415.15        11.21171
415.60        11.26928
416.05        11.30495
416.49        11.30569
416.94        11.27667
417.39         11.2394
417.83        11.23065
418.28        11.25742
418.73        11.30604
419.17        11.34802
419.62        11.33084
420.07        11.25338
420.51        11.13801
420.96        11.03152
421.41        10.98417
421.85        11.00377
422.30         11.0735
422.74        11.17435
423.19        11.28934
423.64         11.4035
424.08        11.52508
424.53        11.61542
424.98        11.62849
425.42        11.56013
425.87        11.43284
426.31         11.2868
426.76        11.19903
427.21        11.18388
427.65         11.2164
428.10        11.29773
428.54        11.42254
428.99        11.57452
429.44        11.77034
429.88        11.92671
430.33        11.92477
430.77        11.75978
431.22        11.48323
431.66        11.20967
432.11        11.14198
432.56           11.28
433.00        11.54316
433.45        11.77336
433.89         11.6585
434.34        11.19914
434.78         11.1635
435.23        11.62085
435.67        11.81176
436.12        11.74142
436.57        11.82603
437.01        12.04333
437.46        12.11848
437.90         12.0281
438.35        11.87339
438.79        11.71232
439.24        11.60246
439.68        11.58665
440.13        11.72349
440.57        11.93497
441.02        12.03936
441.46        12.00683
441.91         11.8444
442.35        11.63632
442.80        11.69979
443.24        11.95508
443.69        11.91641
444.13        11.61757
444.58        11.51999
445.02         11.6294
445.47        11.69896
445.91        11.71637
446.36        11.78197
446.80        11.88944
447.24        12.00409
447.69        12.11156
448.13        12.19464
448.58        12.24525
449.02        12.26456
449.47        12.25872
449.91        12.22803
450.36        12.18215
450.80        12.12427
451.25        12.05877
451.69        11.98329
452.13        11.90296
452.58        11.82256
453.02        11.75742
453.47        11.73784
453.91        11.76531
454.36        11.83581
454.80        11.91213
455.24        11.93099
455.69        11.88432
456.13        11.78243
456.58        11.68656
457.02         11.6745
457.46         11.7616
457.91        11.91857
458.35        12.07775
458.79         12.1137
459.24        12.01308
459.68        11.85137
460.13        11.71662
460.57        11.49919
461.01        11.55921
461.46        11.61087
461.90         11.7219
462.34        11.78607
462.79        11.84732
463.23        11.86563
463.68        11.87439
464.12         11.8957
464.56        11.93601
465.01        12.00172
465.45        12.04594
465.89        12.02101
466.34        11.92934
466.78        11.78188
467.22        11.64018
467.67         11.6303
468.11        11.72474
468.55        11.93086
468.99        12.15766
469.44        12.28649
469.88        12.29081
470.32        12.20158
470.77          12.073
471.21          11.992
471.65        11.98661
472.10        12.02955
472.54        12.08994
472.98        12.12848
473.42        12.13461
473.87        12.13337
474.31         12.1252
474.75        12.12084
475.20        12.12767
475.64        12.12915
476.08         12.1337
476.52        12.18767
476.97        12.29687
477.41        12.39232
477.85        12.41964
478.29        12.64402
478.74        12.51399
479.18        12.46149
479.62         12.3724
480.06        12.39893
480.50        12.55862
480.95         12.5728
481.39        12.82464
481.83        12.88711
482.27        12.88074
482.72        12.83505
483.16        12.77595
483.60        12.76587
484.04        12.80159
484.48        12.82687
484.93        12.92968
485.37        13.14063
485.81        13.27737
486.25        13.76348
486.69        13.05881
487.14         12.6905
487.58        12.93034
488.02        13.54055
488.46        13.45457
488.90         13.5543
489.34        13.36603
489.79         13.2488
490.23        13.70064
490.67        13.92603
491.11        14.03909
491.55        14.00231
491.99        13.87908
492.43        13.88624
492.88        14.04086
493.32         14.1812
493.76        14.28495
494.20         14.4172
494.64        14.57624
495.08        14.72629
495.52        14.84735
495.96        14.96695
496.41        15.06927
496.85        15.02658
497.29        14.90998
497.73        15.03063
498.17        15.35864
498.61        15.52458
499.05        15.51406
499.49        15.59914
499.93        15.77853
500.37        15.88608
500.82        15.92188
501.26        15.96529
501.70        16.02394
502.14        16.07698
502.58        16.12272
503.02         16.1594
503.46        16.19001
503.90        16.22362
504.34        16.27206
504.78        16.34924
505.22        16.45623
505.66        16.58498
506.10        16.72079
506.54        16.83952
506.98          16.931
507.42        16.99969
507.86        17.04614
508.30        17.07285
508.74        17.08557
509.18        17.08693
509.62        17.08927
510.06        17.11306
510.50        17.16336
510.94        17.23413
511.38        17.31642
511.82        17.39448
512.26        17.45869
512.70        17.50787
513.14        17.53666
513.58        17.53833
514.02        17.51428
514.46        17.47087
514.90         17.4128
515.34        17.34841
515.78        17.28614
516.22        17.22845
516.66        17.19331
517.10        17.20559
517.54        17.26662
517.98        17.36766
518.42         17.4786
518.86        17.54883
519.30        17.56459
519.74        17.53759
520.18        17.49178
520.62        17.46849
521.06          17.477
521.50        17.50073
521.93        17.52609
522.37        17.52685
522.81        17.49871
523.25        17.45691
523.69        17.40252
524.13        17.33395
524.57        17.25851
525.01        17.17881
525.45        17.11881
525.89         17.1168
526.32        17.17506
526.76        17.27483
527.20        17.38238
527.64        17.44225
528.08        17.43781
528.52        17.38645
528.96        17.30163
529.40        17.20596
529.83         17.1105
530.27        17.01595
530.71        16.93581
531.15        16.89588
531.59        16.89837
532.03        16.93486
532.46         16.9814
532.90        16.99949
533.34        16.97963
533.78        16.92006
534.22         16.8339
534.66        16.77142
535.09        16.72479
535.53        16.63023
535.97        16.50805
536.41        16.45056
536.85         16.4658
537.28        16.51202
537.72        16.56816
538.16        16.61634
538.60        16.64651
539.04        16.66211
539.47        16.67428
539.91        16.71173
540.35        16.77525
540.79        16.86299
541.22        16.96055
541.66        17.01954
542.10        17.07929
542.54        17.11433
542.97        17.15248
543.41         17.2275
543.85        17.34113
544.29         17.4818
544.72        17.63089
545.16        17.76796
545.60        17.88338
546.04         17.9819
546.47        18.06967
546.91         18.1601
547.35        18.25869
547.79        18.35998
548.22        18.44869
548.66        18.54173
549.10        18.64153
549.53        18.65966
549.97        18.78488
550.41        18.93288
550.84        19.15242
551.28        19.42833
551.72        19.70672
552.15        19.88068
552.59         19.9422
553.03        19.95076
553.46        19.94439
553.90        19.99481
554.34        20.12074
554.77        20.26558
555.21        20.39187
555.65        20.66203
556.08        20.67124
556.52        20.75785
556.96        20.80705
557.39        20.84309
557.83        20.87782
558.27        20.87682
558.70        20.85973
559.14        20.96174
559.57        21.00109
560.01        21.15446
560.45        21.30866
560.88         21.3559
561.32         21.3308
561.75        21.26465
562.19          21.229
562.63        21.42483
563.06        21.76491
563.50        21.78609
563.93        21.53099
564.37        21.49283
564.80        21.67779
565.24        21.81624
565.68        21.88686
566.11        21.98427
566.55        22.11048
566.98        22.23132
567.42        22.35347
567.85        22.47075
568.29        22.59276
568.72        22.70594
569.16        22.83434
569.60        22.95303
570.03        23.04353
570.47        23.13148
570.90         23.4087
571.34        23.22108
571.77        23.47128
572.21        23.54108
572.64        23.68615
573.08        23.65434
573.51        23.82511
573.95        23.96533
574.38        24.03445
574.82        24.19644
575.25        24.34841
575.69         24.4575
576.12        24.48873
576.56        24.66351
576.99        24.60348
577.42         24.6377
577.86        24.53825
578.29         24.5807
578.73        24.58054
579.16        24.56111
579.60        24.13838
580.03        24.00576
580.47        24.21103
580.90        23.85214
581.33        24.20266
581.77        24.60028
582.20        24.10928
582.64        24.05893
583.07        24.01143
583.51        23.85969
583.94        23.65893
584.37        23.66507
584.81        23.76392
585.24        23.68419
585.68        23.48024
586.11        23.19594
586.54        23.22886
586.98        23.18934
587.41        23.17052
587.85        23.15081
588.28         23.1875
588.71        22.71778
589.15        23.19866
589.58        22.76125
590.01        22.95337
590.45         22.8592
590.88        22.82793
591.31        22.86867
591.75        22.97919
592.18        22.96434
592.61        22.72181
593.05        23.23185
593.48        22.74787
593.91        22.80785
594.35        22.91872
594.78        23.06849
595.21        23.23023
595.65         23.3526
596.08        23.42039
596.51        23.65927
596.94        23.58238
597.38        23.76037
597.81        24.11179
598.24           23.94
598.68         24.3242
599.11        24.60818
599.54        25.03129
599.97        24.95051
600.41        25.39734
600.84        25.70342
601.27        25.99509
601.70        26.49992
602.14        26.92834
602.57        27.16369
603.00        27.18855
603.43        27.27834
603.87        27.66155
604.30         28.0382
604.73        28.24012
605.16        28.62271
605.60        29.07477
606.03         29.5614
606.46        29.95387
606.89        30.13476
607.32        30.23815
607.76        30.41649
608.19        30.71913
608.62        31.24854
609.05        31.56702
609.48        31.93513
609.92        32.08445
610.35        32.19815
610.78        32.88623
611.21        33.19802
611.64         33.3318
612.07        33.51185
612.50        33.77015
612.94        33.92879
613.37        34.01665
613.80        34.32221
614.23        34.48823
614.66        34.93207
615.09        34.98451
615.52         35.1565
615.96        35.32917
616.39        35.60557
616.82        35.96642
617.25         36.3619
617.68        36.70834
618.11        36.76456
618.54        36.60312
618.97        36.63121
619.40        36.88913
619.84        37.05536
620.27        37.13534
620.70        37.43911
621.13        37.87272
621.56        37.93442
621.99        37.67154
622.42        37.74537
622.85        37.92453
623.28        38.19307
623.71        37.81149
624.14        38.13248
624.57        38.09865
625.00        38.18093
625.43        38.10775
625.86        38.04838
626.29        38.01464
626.72        37.75377
627.15         37.7186
627.58        37.49467
628.01        37.26115
628.44        37.21814
628.87        37.30885
629.30        37.19814
629.73        36.89117
630.16        36.67111
630.59        36.53776
631.02         36.3231
631.45        36.02663
631.88        35.73065
632.31         35.4414
632.74        35.13745
633.17        34.82693
633.60        34.52052
634.03        34.21888
634.46        33.92549
634.89        33.62579
635.32        33.29387
635.75        32.92841
636.18        32.53942
636.61        32.15096
637.04        31.79981
637.47        31.49469
637.89        31.21832
638.32        30.93703
638.75        30.64585
639.18        30.34735
639.61        29.93027
640.04        29.64431
640.47        29.34208
640.90        29.09968
641.33        28.89405
641.76        28.71776
642.18        28.59888
642.61        28.53214
643.04         28.4508
643.47        28.30998
643.90        28.43665
644.33        28.21256
644.76        28.09943
645.18        27.96588
645.61        28.00435
646.04        28.18105
646.47        28.25249
646.90        28.23082
647.33        28.32362
647.75        28.53668
648.18        28.74584
648.61        28.93354
649.04        29.13036
649.47        29.33531
649.89        29.55687
650.32        29.80697
650.75        30.08532
651.18        30.39654
651.61        30.83216
652.03        31.37102
652.46        31.76386
652.89        31.99876
653.32        32.39821
653.74        32.81945
654.17        33.15325
654.60        33.75761
655.03        34.34155
655.46         34.1945
655.88        34.88367
656.31        39.06364
656.74        38.50031
657.16        35.55889
657.59        35.66177
658.02        36.65955
658.45        36.56901
658.87        37.16021
659.30        36.85171
659.73        37.34562
660.15         38.1568
660.58        37.84031
661.01        38.09695
661.44        38.41375
661.86        38.74913
662.29        39.07522
662.72        39.32935
663.14        39.55601
663.57        39.89489
664.00        40.30321
664.42        40.54859
664.85        40.62678
665.27        40.65354
665.70        40.69695
666.13        40.81099
666.55        41.02527
666.98          41.322
667.41        41.65414
667.83         41.9375
668.26        42.13436
668.69        42.26798
669.11         42.3719
669.54        42.51662
669.96        42.71124
670.39        42.89863
670.82        43.06388
671.24        43.19706
671.67        43.30047
672.09        43.39883
672.52          43.507
672.94        43.58806
673.37        43.65105
673.80        43.71939
674.22        43.80164
674.65        43.87628
675.07        43.95528
675.50        44.03563
675.92        44.13469
676.35        44.27077
676.77        44.44721
677.20        44.65327
677.62        44.87077
678.05        45.03412
678.47        45.12809
678.90           45.22
679.32         45.3427
679.75        45.32273
680.17        45.55309
680.60        45.70493
681.02        45.88056
681.45        46.03112
681.87         46.1547
682.30        46.28172
682.72        46.40626
683.15        46.43247
683.57        46.40313
684.00        46.48515
684.42         46.6721
684.85        46.82215
685.27        46.91901
685.70        47.05091
686.12        47.20467
686.54         47.3405
686.97        47.45476
687.39        47.58081
687.82        47.66271
688.24        47.77105
688.66        47.50826
689.09        47.56283
689.51        47.81205
689.94        47.96684
690.36        48.02172
690.78        48.18679
691.21         48.4601
691.63        48.64843
692.06         48.7855
692.48        49.11478
692.90        49.56925
693.33        49.83451
693.75        49.88017
694.17        49.81416
694.60        49.72251
695.02        49.71133
695.44        49.76127
695.87        49.82193
696.29        49.87708
696.71        49.67657
697.14        49.40416
697.56        49.83978
697.98        50.79446
698.41        51.21307
698.83        51.04545
699.25         50.9606
699.68         51.0352
700.10        51.09131
700.52        51.15558
700.94        51.27832
701.37        51.44476
701.79        51.69288
702.21        51.94954
702.64        52.08773
703.06        52.11143
703.48         52.0816
703.90        51.99928
704.33        52.16561
704.75        51.95166
705.17        51.98716
705.59         52.0898
706.01        52.23851
706.44        52.43529
706.86        52.68119
707.28        52.94618
707.70        53.30092
708.12        53.65303
708.55        53.65937
708.97        53.39395
709.39        53.34844
709.81        53.54608
710.23        53.62585
710.66        53.58785
711.08        53.68266
711.50        53.88659
711.92          54.047
712.34        54.14891
712.76         54.2381
713.19        54.30384
713.61        54.36588
714.03        54.41353
714.45         54.4366
714.87          54.463
715.29        54.54165
715.71        54.68082
716.13        54.87269
716.56        55.05523
716.98        55.19121
717.40        55.23853
717.82        55.20856
718.24         55.1615
718.66        55.20998
719.08        55.37268
719.50        55.59375
719.92         55.7911
720.34        55.93635
720.76        55.82835
721.19        55.70983
721.61        55.59808
722.03        55.56116
722.45        55.63253
722.87        55.81594
723.29        56.06445
723.71        56.27909
724.13         56.4223
724.55        56.50608
724.97        56.57005
725.39        56.66022
725.81        56.78309
726.23        56.98033
726.65        57.16491
727.07        57.06684
727.49        56.73989
727.91          56.539
728.33        56.53659
728.75        56.57803
729.17        56.67614
729.59         56.9547
730.01        57.32866
730.43        57.56206
730.85        57.60929
731.27        57.55032
731.69        57.42968
732.10        57.32868
732.52        57.28202
732.94        57.20933
733.36        57.23795
733.78        57.36932
734.20         57.6146
734.62        58.05072
735.04        58.53814
735.46        58.59743
735.88        58.32299
736.30        58.35174
736.72        58.65694
737.13        58.80917
737.55        58.73739
737.97        58.41833
738.39        58.03719
738.81        58.26287
739.23        58.99994
739.65        59.29119
740.06        59.07187
740.48         59.1137
740.90        59.38931
741.32        59.46312
741.74        59.33815
742.16        59.23274
742.57        59.16686
742.99        59.18694
743.41        59.29288
743.83        59.19816
744.25        59.02702
744.67        59.41971
745.08        60.22546
745.50         60.5337
745.92        60.25876
746.34        59.84217
746.75        59.46058
747.17        59.21326
747.59        59.15572
748.01        59.38662
748.42        59.76191
748.84        59.78706
749.26        59.55281
749.68        59.57393
750.09        59.88156
750.51        60.37808
750.93         60.8704
751.35        60.82887
751.76        60.36497
752.18        60.22607
752.60        60.46452
753.01        60.68749
753.43         60.7514
753.85        60.84003
754.27        60.90964
754.68        61.12103
755.10        61.13072
755.52        61.22439
755.93        61.31488
756.35        61.32689
756.77        61.23543
757.18        61.34053
757.60        61.74812
758.02        61.41428
758.43        61.46071
758.85        62.13211
759.26        61.35159
759.68         60.9207
760.10        61.58562
760.51        61.86525
760.93        62.04276
761.34        61.88193
761.76        61.98644
762.18        61.59608
762.59        61.11713
763.01        61.34433
763.42        62.19027
763.84        62.56826
764.26        62.40579
764.67        62.12585
765.09        61.91868
765.50        62.09047
765.92        62.57159
766.33        62.38839
766.75        62.09731
767.16        61.91443
767.58        62.08688
768.00        62.14092
768.41        62.17723
768.83        62.86306
769.24        63.90589
769.66        64.13171
770.07        63.58936
770.49          63.179
770.90        63.08348
771.32        63.22326
771.73        63.50761
772.15        63.56448
772.56        63.37626
772.97        63.25369
773.39        63.22969
773.80        63.23065
774.22        63.23845
774.63        63.32418
775.05        63.44764
775.46        63.59568
775.88        63.73316
776.29        63.89076
776.70        64.04193
777.12         64.1675
777.53        64.26395
777.95        64.29237
778.36        64.29343
778.77        64.25871
779.19        64.19257
779.60        64.28589
780.02        64.43432
780.43        64.10096
780.84        63.49067
781.26        63.43023
781.67        63.91011
782.09        64.41653
782.50        64.71758
782.91        64.46422
783.33         63.8426
783.74        63.71832
784.15        64.17548
784.57        64.64084
784.98        65.04934
785.39        65.53021
785.81        66.02962
786.22        66.28508
786.63        66.62713
787.04        66.68029
787.46        66.58823
787.87          66.332
788.28         66.0538
788.70        65.94228
789.11        66.01415
789.52        66.24792
789.93        66.52053
790.35        66.61408
790.76        66.49842
791.17        66.22667
791.58         65.9186
792.00        65.75805
792.41        65.80722
792.82        65.97059
793.23        66.15654
793.65        66.33797
794.06        66.42522
794.47        66.16957
794.88        65.75683
795.29        65.64588
795.71        65.81013
796.12        66.22404
796.53        66.70532
796.94        66.71773
797.35        66.28002
797.76        66.12316
798.18        66.30359
798.59        66.30651
799.00        66.15704
799.41        66.17299
799.82        66.36723
800.23        66.58553
800.64        66.80759
801.06        67.05843
801.47        67.30795
801.88        67.41466
802.29        67.34853
802.70        67.11537
803.11        66.82997
803.52        66.70173
803.93        66.79573
804.34        67.05516
804.75        67.34998
805.17        67.58205
805.58        67.75961
805.99          67.501
806.40        67.00681
806.81        67.53123
807.22        68.69865
807.63        68.32712
808.04        66.66686
808.45        66.03548
808.86        66.60331
809.27        67.07512
809.68        67.26683
810.09        67.47447
810.50        67.63309
810.91         67.6722
811.32        67.62182
811.73        67.53643
812.14        67.44592
812.55        67.34036
812.96        67.29166
813.37        67.41054
813.78        67.70744
814.19        68.15372
814.60        68.60964
815.01        68.85471
815.42        68.84097
815.83        68.61648
816.24        68.30101
816.65        68.13319
817.05        68.19468
817.46        68.39021
817.87         68.6257
818.28        68.71974
818.69        68.62534
819.10        68.39713
819.51        68.11707
819.92        67.93323
820.33        67.89708
820.74         67.9598
821.14        68.04253
821.55         68.0538
821.96        67.96243
822.37          67.827
822.78        67.70592
823.19        67.69164
823.60        67.82398
824.00        68.08763
824.41         68.4333
824.82        68.88775
825.23        69.41193
825.64        69.95936
826.04        70.46182
826.45        70.73833
826.86        70.76431
827.27        70.58411
827.68        70.20486
828.08        69.67123
828.49        69.00797
828.90        68.24827
829.31        67.56256
829.72        67.19872
830.12         67.2431
830.53        67.62617
830.94        68.14405
831.35        68.36328
831.75        68.18706
832.16        67.68873
832.57        67.19621
832.97        67.21192
833.38        67.80994
833.79        68.80158
834.20        69.85911
834.60        70.43018
835.01        70.33271
835.42        69.78519
835.82        69.00827
836.23        68.33428
836.64         67.8962
837.04        67.60634
837.45        67.48721
837.86        67.63693
838.26        68.04745
838.67        68.67288
839.08        69.32082
839.48         69.6297
839.89        69.50655
840.29        69.04896
840.70        68.47502
841.11        68.11181
841.51        68.07017
841.92        68.23186
842.33        68.53214
842.73        68.86618
843.14        69.13371
843.54        69.42456
843.95         69.6717
844.35        69.82883
844.76        69.85683
845.17        69.74388
845.57        69.57998
845.98        69.51072
846.38        69.58393
846.79        69.75468
847.19        69.90948
847.60        69.77194
848.00        69.32296
848.41         68.6441
848.81        67.97244
849.22        67.64143
849.62        67.73993
850.03        68.14764
850.43        68.67732
850.84        68.86318
851.24        68.64747
851.65        68.13816
852.05        67.60976
852.46        67.47853
852.86        67.81513
853.27        68.44166
853.67        69.13563
854.07        69.78658
854.48        70.28669
854.88        70.78908
855.29        71.05287
855.69        70.89819
856.10         70.2096
856.50        69.13935
856.90        68.06212
857.31        67.53079
857.71        67.65009
858.12        68.24474
858.52        69.07056
858.92        69.44257
859.33        69.13965
859.73         68.4101
860.13        67.49839
860.54        66.81728
860.94        66.49969
861.34        66.40362
861.75        66.47065
862.15        66.65564
862.55        66.89342
862.96        67.20415
863.36        67.51942
863.76        67.62954
864.17        67.49422
864.57        67.16326
864.97        66.77623
865.38        66.58885
865.78        66.68856
866.18        66.98636
866.58        67.33548
866.99        67.46794
867.39          67.344
867.79        67.06107
868.19        66.71299
868.60        66.40115
869.00        66.16221
869.40        65.95686
869.80        65.87393
870.21        66.07271
870.61        66.59637
871.01        67.32248
871.41        67.98492
871.81        68.18484
872.22        67.84911
872.62        67.11526
873.02        66.22356
873.42        65.57946
873.82        65.33897
874.22        65.42113
874.63        65.74437
875.03        66.16213
875.43        66.60683
875.83        67.10311
876.23        67.65611
876.63         68.2728
877.03        68.91766
877.44        69.51041
877.84        69.95933
878.24          70.089
878.64        69.86991
879.04        69.37814
879.44         68.7478
879.84        68.17424
880.24        67.73113
880.64        67.40002
881.04        67.17791
881.44        67.03159
881.84        66.95979
882.24         67.0048
882.65        67.12982
883.05        67.35801
883.45          67.624
883.85        67.87066
884.25        68.14261
884.65        68.53805
885.05        69.05642
885.45        69.66959
885.85        70.18149
886.25        70.26249
886.65        69.85448
887.05        69.06879
887.45        68.22607
887.85        67.82268
888.25        67.97793
888.65        68.56062
889.04        69.27469
889.44         69.6068
889.84        69.42551
890.24        68.85956
890.64        68.18725
891.04        67.80553
891.44        67.80878
891.84        68.11882
892.24        68.43351
892.64         68.2551
893.04        67.51778
893.44        66.40859
893.83        65.43513
894.23        65.36382
894.63        66.28817
895.03        67.94901
895.43         69.7497
895.83         70.5957
896.23        70.19192
896.63        68.95911
897.02        67.39858
897.42        66.32447
897.82         65.8943
898.22        65.90205
898.62        66.26953
899.01        66.89675
899.41        67.63974
899.81        68.56376
900.21        69.55523
900.61        70.38779
901.00        70.96406
901.40        71.24967
901.80        71.26552
902.20        71.10204
902.59        70.82097
902.99        70.42654
903.39        69.98514
903.79        69.59932
904.18        69.28986
904.58        69.06257
904.98        68.91851
905.38        68.84551
905.77        68.82584
906.17        68.90688
906.57        68.95369
906.96        68.75964
907.36        68.29967
907.76        67.64962
908.15        67.12683
908.55         67.2028
908.95        67.96877
909.34         69.2576
909.74        70.64311
910.14        71.50516
910.53        71.64884
910.93        71.24959
911.33        70.55327
911.72         69.9627
912.12        69.63284
912.52        69.43147
912.91        69.28319
913.31         69.0617
913.70        68.75318
914.10        68.47385
914.49        68.26022
914.89        68.11279
915.29        68.04912
915.68        68.02931
916.08        68.13644
916.47        68.53555
916.87         69.2035
917.26        70.05363
917.66        70.82581
918.05        71.13535
918.45        70.90653
918.84        70.28573
919.24        69.50673
919.64        69.07795
920.03        69.16586
920.42        69.59406
920.82        70.16843
921.21        70.61646
921.61        70.81169
922.00         70.8535
922.40        70.72343
922.79        70.45793
923.19        70.09157
923.58        69.63554
923.98        69.15061
924.37        68.67069
924.77        68.25183
925.16        67.90022
925.55        67.70247
925.95         67.7486
926.34         68.0683
926.74         68.5835
927.13        69.25843
927.52        69.94511
927.92        70.55112
928.31        71.07385
928.70        71.44958
929.10        71.61996
929.49        71.59961
929.89        71.41425
930.28        71.08635
930.67        70.61975
931.07        70.04839
931.46        69.38151
931.85        68.83557
932.24        68.74535
932.64        69.15162
933.03        70.00507
933.42        70.86457
933.82        71.05631
934.21        70.46362
934.60        69.25934
934.99        68.04276
935.39        67.71859
935.78        68.50253
936.17        70.16826
936.56        72.00016
936.96        72.66758
937.35        71.85741
937.74        69.99232
938.13        67.95461
938.53        66.90733
938.92        67.05181
939.31        68.08405
939.70        69.46181
940.09        70.20037
940.49        69.98807
940.88        69.15092
941.27        68.18235
941.66        67.81367
942.05        68.21551
942.44        69.14738
942.84        70.18227
943.23        70.64763
943.62        70.29293
944.01        69.39538
944.40        68.36258
944.79        67.81788
945.18        67.91871
945.57        68.41196
945.97        69.08357
946.36        69.70591
946.75        70.13427
947.14         70.4892
947.53        70.63911
947.92        70.33992
948.31        69.60799
948.70        68.53422
949.09        67.52766
949.48        67.21341
949.87        67.72242
950.26        68.91187
950.65        70.38965
951.04        71.42963
951.43        71.77019
951.82        71.55045
952.21        71.09509
952.60        70.93358
952.99        71.17033
953.38        71.62233
953.77        71.95224
954.16        71.59028
954.55        70.47446
954.94        68.94852
955.33         67.4284
955.72        66.50446
956.11        66.32996
956.50        66.65361
956.89        67.40279
957.28        68.47248
957.66        69.76113
958.05        71.17532
958.44        72.25577
958.83        72.13471
959.22        70.70612
959.61        68.34092
960.00        65.82323
960.39        64.26054
960.78        63.90445
961.16        64.49758
961.55        65.65508
961.94         66.7972
962.33        67.66666
962.72        68.42988
963.11        69.01711
963.49         69.3128
963.88        69.25517
964.27        68.82823
964.66        68.23914
965.04        67.84069
965.43        67.68934
965.82        67.71043
966.21        67.77271
966.60         67.5992
966.98         67.1441
967.37        66.54214
967.76        65.90919
968.15        65.39371
968.53        65.07721
968.92         64.8866
969.31        64.92846
969.69        65.38992
970.08        66.22509
970.47        67.37431
970.86        68.50186
971.24        69.00301
971.63        68.65649
972.02         67.6794
972.40        66.42941
972.79        65.50523
973.17        65.10667
973.56        65.07808
973.95         65.2982
974.33        65.58182
974.72        65.78836
975.11        65.92966
975.49        66.10631
975.88        66.44707
976.26        67.01128
976.65        67.69157
977.04        68.08289
977.42        67.52941
977.81        65.99359
978.19        63.72832
978.58        61.79586
978.96        61.54489
979.35        63.21249
979.74        66.49844
980.12        70.54658
980.51        73.00148
980.89        73.21032
981.28        71.60866
981.66        69.24513
982.05        67.97796
982.43        68.28322
982.82        69.57169
983.20        71.37508
983.59        72.71747
983.97        73.35898
984.35           73.63
984.74        73.45986
985.12        72.82736
985.51        71.79498
985.89        70.28407
986.28        68.88156
986.66        68.39655
987.04        69.09109
987.43        70.76269
987.81        72.67455
988.20        73.34361
988.58        72.43993
988.96        70.21998
989.35        67.75705
989.73        66.76389
990.12        67.58198
990.50        69.78409
990.88        72.07143
991.27        72.32188
991.65          70.202
992.03        66.50792
992.42        62.74212
992.80        60.94146
993.18        61.70173
993.56        64.29771
993.95        67.70736
994.33        70.42595
994.71        71.62463
995.10        71.77705
995.48        71.04523
995.86        69.71613
996.24         68.1105
996.63        66.16554
997.01        64.35319
997.39        63.39165
997.77        63.40347
998.15        64.29066
998.54        65.68433
998.92          66.811
999.30         67.3569
999.68        67.45075
1000.06        67.25099
1000.45        67.04593
1000.83        67.07653
1001.21         67.1797
1001.59         67.2182
1001.97        67.01463
1002.35        66.53526
1002.73        65.84301
1003.12        65.28276
1003.50        65.30719
1003.88        65.99965
1004.26         67.2317
1004.64        68.40324
1005.02         68.6226
1005.40         67.7708
1005.78        66.09305
1006.16        64.35947
1006.54        63.96157
1006.92        65.21681
1007.30        67.61021
1007.69        70.17327
1008.07        71.55421
1008.45        71.27108
1008.83        69.84768
1009.21        67.74418
1009.59        65.73305
1009.97        64.19424
1010.35        62.88775
1010.73         62.1685
1011.11        62.64811
1011.49        64.45208
1011.86         67.7643
1012.24        71.50819
1012.62        73.97894
1013.00         74.5005
1013.38        73.14152
1013.76        71.12689
1014.14        70.90838
1014.52        73.18858
1014.90        77.36604
1015.28        81.53842
1015.66        82.28461
1016.04        79.16454
1016.41        73.93194
1016.79        68.96139
1017.17        66.34787
1017.55        66.22326
1017.93        68.06084
1018.31        71.11279
1018.69        72.68401
1019.06        71.49067
1019.44        69.00574
1019.82        66.67036
1020.20        65.50411
1020.58        65.51048
1020.95        66.20975
1021.33        67.66934
1021.71        69.53821
1022.09        71.33241
1022.46        73.00361
1022.84        74.18771
1023.22        74.74923
1023.60        74.68747
1023.97        74.02596
1024.35        72.72439
1024.73          70.875
