SpectraSmart Spectrum 2.9.0.0
--------- Device Information -----------
Spectrum Name :  反射率_0
Saving Time :  2024/05/01 16:44:23
Spectro-Module Model Name : SE2030-DUVN
Spectro-Module Serial Number : OS361AC55029948
Wavelength Start : 200
Wavelength End : 1025
Wavelength Unit : Wavelength(nm)
Spectrum Unit : Reflectance(%)
-----------Spectrum Setting ------------
Integration Time : 20ms
Average : 10
Boxcar : 0
Background removal :  enabled
linearity correction :  enabled
SC :  disabled
Intensity correction :  disabled
DWT denoise :  enabled
savitzky-golay :  disabled
FFT :  disabled
Running average :  disabled
Kalman :  disabled
High pass :  disabled
---------------BEGIN--------------------
Wavelength(nm)             Reflectance(%)
200.29               0
200.75        151.6592
201.21        613.3693
201.67       -236.0803
202.13       -69.56958
202.58       -12.40338
203.04         22.6969
203.50        44.56856
203.96        54.03077
204.42        53.30212
204.88        34.83383
205.34       -495.3304
205.80        139.7588
206.26         97.5451
206.72        62.10257
207.18       -65.49175
207.64        263.2726
208.10        134.4698
208.55        97.57526
209.01         76.6334
209.47        64.93522
209.93         58.4572
210.39         52.5331
210.85        46.59612
211.31        39.09105
211.77        18.73389
212.23        152.2815
212.69        73.86734
213.14        82.76595
213.60        143.9572
214.06       -555.3295
214.52       -69.75942
214.98       -32.67254
215.44       -13.77103
215.90        18.68506
216.36        437.9708
216.81       -198.2681
217.27       -223.7265
217.73        303.6263
218.19        20.82034
218.65       -7.071262
219.11        -16.6821
219.57       -18.67415
220.02        30.08672
220.48         70.6039
220.94        43.94054
221.40        34.13148
221.86        32.62329
222.32        37.99706
222.77        49.84257
223.23        69.34901
223.69        94.94975
224.15        107.8153
224.61        99.52691
225.06        83.18127
225.52        70.88692
225.98        66.34125
226.44        68.16625
226.90        75.14043
227.36        85.02745
227.81        88.79445
228.27        83.61527
228.73        75.48518
229.19        69.81442
229.65        69.74079
230.10        74.83823
230.56         84.3423
231.02         96.0069
231.48        102.2583
231.93        99.58535
232.39        92.47968
232.85        84.76124
233.31        79.77683
233.77        77.73967
234.22        77.17098
234.68        77.86038
235.14         79.7895
235.60        83.05935
236.05        88.76067
236.51        96.67574
236.97        103.7872
237.43        106.4559
237.88        103.4875
238.34        97.22321
238.80        93.19789
239.26        92.89277
239.71        96.68548
240.17        102.6936
240.63        102.2676
241.08        89.63136
241.54         70.8803
242.00        56.32251
242.46        51.94062
242.91        58.20995
243.37        76.49073
243.83        109.8165
244.28        135.2789
244.74        127.1313
245.20        105.3678
245.66        86.90924
246.11        75.54749
246.57        68.05742
247.03        60.27929
247.48        48.01378
247.94         27.7298
248.40        4.214458
248.85       -15.37613
249.31       -20.44967
249.77        -8.20385
250.22        11.70321
250.68        31.49686
251.14        46.42404
251.59        54.78071
252.05        58.36727
252.51        58.32354
252.96         53.2414
253.42        48.78904
253.88        58.05247
254.33        68.35875
254.79        72.46852
255.25        72.86216
255.70        71.77509
256.16        71.14157
256.62        71.04934
257.07        71.50678
257.53        72.74181
257.99        74.01601
258.44        74.95497
258.90        75.89484
259.35        76.43458
259.81        76.94994
260.27        77.17561
260.72        76.83706
261.18        76.30593
261.63        75.38815
262.09        74.51718
262.55        73.63804
263.00        72.65695
263.46        71.77923
263.91        70.85068
264.37        70.11814
264.83        69.50672
265.28        68.99004
265.74        68.58067
266.19        67.94097
266.65        67.18668
267.11         66.2791
267.56        65.50446
268.02        65.43533
268.47        66.05061
268.93        67.11344
269.38        68.06845
269.84        67.98253
270.30        66.70832
270.75        64.58639
271.21        62.20841
271.66        60.31576
272.12        59.19167
272.57        58.51093
273.03        58.18151
273.48        57.95914
273.94        57.75661
274.39        57.59723
274.85        57.32366
275.31        56.57109
275.76        55.32039
276.22        53.78102
276.67        52.20908
277.13        51.15725
277.58        50.60115
278.04        50.42059
278.49        50.30141
278.95        49.93498
279.40        49.17316
279.86        48.21911
280.31        47.13446
280.77        46.15439
281.22        45.25614
281.68        44.45863
282.13        43.65437
282.59        42.83886
283.04        41.96212
283.50        41.11764
283.95        40.33516
284.41        39.74302
284.86        39.33467
285.32        39.08416
285.77        38.91673
286.22        38.79366
286.68        38.67874
287.13         38.5473
287.59        38.35431
288.04        37.98498
288.50         37.4792
288.95        36.84338
289.41        36.22929
289.86        35.74454
290.32        35.44712
290.77        35.27357
291.22        35.16523
291.68        35.01554
292.13        34.78757
292.59        34.54504
293.04        34.30181
293.50        34.13963
293.95        34.05404
294.40        34.02007
294.86        34.02793
295.31        34.07699
295.77         34.1562
296.22        34.26516
296.68         34.3592
297.13        34.34267
297.58        34.22116
298.04        34.03952
298.49        33.87449
298.95        33.89328
299.40        34.10201
299.85          34.437
300.31        34.81734
300.76        35.11185
301.21        35.28449
301.67        35.38219
302.12        35.38401
302.58        35.29589
303.03        35.12406
303.48        34.90025
303.94        34.72529
304.39        34.68032
304.84        34.79663
305.30        35.02564
305.75        35.29087
306.20        35.49389
306.66        35.60258
307.11        35.62172
307.57        35.55331
308.02        35.34673
308.47        35.02877
308.93        34.62669
309.38        34.19941
309.83        33.89208
310.29        33.74291
310.74        33.71262
311.19        33.73442
311.65         33.6838
312.10        33.52431
312.55        33.29546
313.00        33.06316
313.46        32.93106
313.91        32.91175
314.36        32.95886
314.82        33.00263
315.27        32.94872
315.72        32.76715
316.18        32.50269
316.63         32.1871
317.08        31.87178
317.53        31.57811
317.99        31.29689
318.44        31.03651
318.89        30.82674
319.35        30.67389
319.80        30.57429
320.25        30.50491
320.70        30.41896
321.16        30.29694
321.61        30.15439
322.06        30.00116
322.51        29.86349
322.97        29.74091
323.42        29.62941
323.87        29.51639
324.32         29.3928
324.78        29.25123
325.23        29.11283
325.68        28.96232
326.13        28.78096
326.59        28.56036
327.04        28.31357
327.49        28.07127
327.94         27.8966
328.39        27.80132
328.85        27.76322
329.30        27.73357
329.75         27.5953
330.20        27.32381
330.66        26.94733
331.11         26.5618
331.56        26.29645
332.01        26.19415
332.46        26.22458
332.92        26.31353
333.37         26.3655
333.82        26.33751
334.27         26.2603
334.72        26.18754
335.17        26.21455
335.63        26.34876
336.08        26.55457
336.53        26.76289
336.98        26.88416
337.43        26.89517
337.88        26.83945
338.34        26.71981
338.79        26.55906
339.24         26.3748
339.69        26.15749
340.14         25.9972
340.59        26.03656
341.05        26.27669
341.50        26.67512
341.95        27.06196
342.40        27.15895
342.85        26.91335
343.30        26.42908
343.75        25.87381
344.20        25.50986
344.66        25.41704
345.11         25.5088
345.56        25.73124
346.01        25.98526
346.46        26.21465
346.91        26.44289
347.36        26.62475
347.81         26.6895
348.26        26.63366
348.72        26.47976
349.17        26.26962
349.62        26.12161
350.07        26.06388
350.52        26.06059
350.97        26.08653
351.42        26.09089
351.87        26.05928
352.32        26.02857
352.77        25.96388
353.22        25.81064
353.67        25.57103
354.13        25.25591
354.58        24.96673
355.03        24.89692
355.48        25.07016
355.93        25.44045
356.38        25.80926
356.83        25.84171
357.28        25.47951
357.73        24.84314
358.18        24.19191
358.63         23.9104
359.08        24.06901
359.53        24.53384
359.98        25.09539
360.43        25.39695
360.88         25.3305
361.33        25.02176
361.78        24.59363
362.23        24.22264
362.68        23.97055
363.13        23.77578
363.58        23.63947
364.03        23.57547
364.48        23.56838
364.93         23.6157
365.38        23.66463
365.83        23.62175
366.28        23.46435
366.73        23.21651
367.18        22.90526
367.63        22.58602
368.08        22.29376
368.53        22.02725
368.98        21.80833
369.43        21.66335
369.88        21.58752
370.33        21.56714
370.78         21.5778
371.23        21.57299
371.68         21.5304
372.13          21.458
372.58        21.33763
373.03        21.14484
373.48        20.88301
373.93        20.56043
374.38        20.23484
374.83        20.00596
375.28        19.90064
375.72        19.89458
376.17        19.92956
376.62        19.90527
377.07        19.79749
377.52        19.63537
377.97        19.46181
378.42        19.34581
378.87        19.30109
379.32        19.29655
379.77        19.29877
380.22        19.26011
380.67        19.16809
381.11        19.04611
381.56        18.90573
382.01        18.76955
382.46        18.65363
382.91        18.55644
383.36        18.48519
383.81        18.45271
384.26        18.45231
384.71        18.46682
385.15        18.48169
385.60        18.49149
386.05        18.48129
386.50        18.46006
386.95        18.39243
387.40        18.22737
387.85        17.97576
388.29        17.65162
388.74        17.37246
389.19        17.24692
389.64        17.28543
390.09        17.43745
390.54        17.61528
390.98        17.67399
391.43        17.58393
391.88        17.40254
392.33        17.17612
392.78        16.97686
393.23        16.82962
393.67        16.68228
394.12        16.57124
394.57        16.56661
395.02        16.64179
395.47        16.67827
395.91        16.66192
396.36        16.65485
396.81        16.66058
397.26        16.63215
397.71        16.57951
398.15        16.56097
398.60        16.60077
399.05        16.60394
399.50        16.59353
399.95         16.7301
400.39        16.95762
400.84        16.96839
401.29        16.75582
401.74        16.58442
402.18        16.47143
402.63        16.25591
403.08        15.98901
403.53         15.8213
403.97        15.77092
404.42        15.80561
404.87        15.87299
405.32        15.88535
405.76        15.81825
406.21        15.70346
406.66        15.59127
407.11        15.56289
407.55        15.63859
408.00        15.78939
408.45        15.95324
408.90         16.0033
409.34         15.9169
409.79        15.76628
410.24        15.60917
410.68        15.49141
411.13        15.43564
411.58        15.44384
412.03        15.46722
412.47        15.41437
412.92        15.26796
413.37        15.06524
413.81        14.87942
414.26        14.82826
414.71          14.924
415.15        15.13395
415.60        15.36105
416.05         15.4601
416.49        15.39046
416.94        15.19464
417.39        14.96096
417.83        14.83085
418.28         14.8408
418.73        14.94455
419.17        15.07477
419.62        15.11738
420.07        15.05053
420.51        14.91748
420.96        14.77923
421.41         14.7021
421.85        14.69925
422.30        14.74688
422.74        14.82429
423.19        14.91942
423.64         15.0163
424.08        15.12602
424.53        15.20491
424.98        15.20075
425.42        15.10949
425.87        14.95523
426.31        14.78433
426.76        14.68182
427.21        14.66355
427.65        14.70197
428.10        14.79336
428.54        14.92441
428.99        15.07743
429.44          15.271
429.88        15.41961
430.33        15.40461
430.77        15.22223
431.22        14.93037
431.66        14.63522
432.11        14.53926
432.56        14.62883
433.00        14.77083
433.45        14.82978
433.89        14.63931
434.34        14.17702
434.78         14.1616
435.23        14.66246
435.67        14.86429
436.12        14.76913
436.57        14.79513
437.01        14.94286
437.46        14.97781
437.90        14.88698
438.35        14.76272
438.79        14.63165
439.24        14.49722
439.68        14.40171
440.13        14.44397
440.57        14.57683
441.02        14.65958
441.46        14.67204
441.91        14.58871
442.35        14.45918
442.80        14.60711
443.24        14.92024
443.69        14.81328
444.13         14.3617
444.58        14.18532
445.02        14.30128
445.47        14.38719
445.91        14.41351
446.36        14.48215
446.80         14.5798
447.24        14.67853
447.69        14.76359
448.13        14.81396
448.58        14.82476
449.02        14.79542
449.47        14.75124
449.91         14.7215
450.36        14.71897
450.80         14.7372
451.25         14.7489
451.69        14.69921
452.13         14.5846
452.58        14.42772
453.02         14.2782
453.47         14.2228
453.91        14.27471
454.36        14.40907
454.80        14.56219
455.24        14.63011
455.69        14.59173
456.13        14.46984
456.58        14.33426
457.02        14.27107
457.46         14.3039
457.91        14.40387
458.35         14.5116
458.79        14.51262
459.24        14.39759
459.68        14.24541
460.13        14.14389
460.57         13.9347
461.01        14.04189
461.46        14.12445
461.90        14.26277
462.34        14.32791
462.79        14.37601
463.23        14.36091
463.68         14.3254
464.12        14.30412
464.56        14.30935
465.01        14.34705
465.45        14.37277
465.89         14.3458
466.34        14.26638
466.78        14.14411
467.22        14.02134
467.67        13.99465
468.11        14.02301
468.55        14.13499
468.99        14.26816
469.44        14.35326
469.88        14.37526
470.32        14.34927
470.77        14.30615
471.21        14.29386
471.65        14.32416
472.10        14.37883
472.54        14.43039
472.98        14.44713
473.42        14.42302
473.87        14.38052
474.31        14.32363
474.75         14.2723
475.20        14.23801
475.64        14.20497
476.08        14.18006
476.52        14.20973
476.97        14.30052
477.41        14.37453
477.85        14.37712
478.29        14.62766
478.74        14.48846
479.18        14.45252
479.62        14.37573
480.06        14.41687
480.50        14.59111
480.95        14.57996
481.39        14.83403
481.83        14.86953
482.27        14.83044
482.72        14.74787
483.16        14.65105
483.60        14.61624
484.04        14.64425
484.48        14.64293
484.93        14.71745
485.37        14.98379
485.81        15.23974
486.25        15.70264
486.69        14.89452
487.14          14.469
487.58        14.84053
488.02        15.24701
488.46        15.12126
488.90        15.37568
489.34         15.1461
489.79        14.97854
490.23        15.32125
490.67        15.56061
491.11         15.7948
491.55        15.75008
491.99        15.49517
492.43        15.42328
492.88        15.56277
493.32        15.65815
493.76        15.68956
494.20        15.76965
494.64        15.89895
495.08        16.02721
495.52         16.1413
495.96        16.27693
496.41        16.41273
496.85        16.42231
497.29        16.35002
497.73        16.44968
498.17        16.69672
498.61        16.78511
499.05        16.72455
499.49        16.77348
499.93        16.93714
500.37        17.06905
500.82        17.15404
501.26         17.2291
501.70        17.29134
502.14        17.33351
502.58        17.35398
503.02        17.35064
503.46        17.33048
503.90        17.30145
504.34        17.28992
504.78        17.33556
505.22        17.44414
505.66        17.60044
506.10        17.77203
506.54        17.90378
506.98        17.97683
507.42        18.00508
507.86         18.0002
508.30        17.98237
508.74        17.96346
509.18         17.9405
509.62        17.92469
510.06        17.93548
510.50        17.97646
510.94         18.0428
511.38        18.12333
511.82        18.19695
512.26        18.25335
512.70         18.2938
513.14        18.31296
513.58        18.30504
514.02        18.27213
514.46        18.21814
514.90        18.15491
515.34        18.10238
515.78        18.06903
516.22        18.05389
516.66        18.05642
517.10        18.07252
517.54        18.09907
517.98        18.13598
518.42        18.17741
518.86        18.21373
519.30         18.2397
519.74        18.25233
520.18         18.2525
520.62        18.24456
521.06         18.2292
521.50         18.2057
521.93        18.17152
522.37        18.11806
522.81        18.05005
523.25        17.97571
523.69         17.9066
524.13         17.8581
524.57        17.83529
525.01        17.83417
525.45         17.8505
525.89        17.87753
526.32        17.90903
526.76        17.93988
527.20        17.96459
527.64        17.97519
528.08         17.9689
528.52        17.94926
528.96        17.91175
529.40        17.85077
529.83        17.76792
530.27        17.67203
530.71        17.58444
531.15         17.5423
531.59        17.55091
532.03         17.5975
532.46        17.64962
532.90        17.65715
533.34        17.61018
533.78        17.51287
534.22        17.39325
534.66         17.3237
535.09        17.29934
535.53          17.247
535.97        17.17196
536.41        17.14548
536.85        17.16937
537.28        17.20672
537.72        17.24626
538.16         17.2871
538.60        17.32326
539.04        17.35156
539.47        17.37649
539.91        17.41749
540.35        17.47289
540.79        17.54547
541.22        17.62403
541.66        17.66375
542.10        17.70757
542.54        17.72706
542.97        17.75128
543.41        17.81556
543.85        17.92137
544.29        18.05756
544.72        18.20233
545.16        18.32984
545.60        18.43019
546.04        18.51043
546.47        18.58051
546.91        18.66132
547.35        18.75808
547.79        18.85796
548.22        18.94413
548.66        19.03242
549.10        19.12308
549.53        19.12907
549.97        19.23009
550.41        19.31738
550.84        19.44268
551.28        19.60069
551.72        19.77208
552.15        19.90508
552.59        20.00049
553.03        20.09691
553.46        20.19365
553.90        20.30293
554.34        20.42759
554.77        20.52841
555.21        20.58665
555.65        20.79783
556.08        20.76724
556.52        20.82672
556.96        20.86032
557.39        20.89235
557.83        20.93283
558.27        20.94913
558.70        20.95654
559.14        21.08127
559.57        21.13651
560.01        21.29947
560.45        21.45629
560.88        21.50039
561.32        21.46746
561.75        21.38841
562.19        21.33632
562.63        21.51469
563.06        21.83721
563.50        21.84138
563.93        21.57182
564.37        21.52365
564.80        21.70357
565.24        21.84142
565.68         21.9177
566.11        22.02977
566.55        22.17849
566.98        22.32615
567.42        22.47279
567.85        22.60528
568.29        22.73125
568.72        22.83069
569.16        22.92199
569.60        23.03157
570.03        23.15871
570.47        23.22108
570.90        23.37548
571.34        23.46511
571.77         23.5251
572.21        23.58303
572.64        23.68993
573.08         23.7275
573.51        24.16933
573.95        24.30977
574.38        24.27978
574.82        24.25419
575.25        24.46306
575.69        24.45514
576.12         24.2998
576.56        24.55627
576.99        24.56748
577.42         24.6414
577.86        24.56815
578.29        24.65606
578.73         24.6994
579.16        24.53999
579.60        24.06852
580.03        23.89123
580.47        24.15735
580.90        23.82225
581.33         24.1678
581.77        24.51116
582.20         24.3921
582.64        24.00712
583.07        23.92371
583.51        23.65698
583.94        23.55226
584.37        23.60869
584.81        23.76298
585.24         23.6875
585.68        23.43499
586.11        23.19675
586.54        23.13483
586.98        23.06345
587.41        22.99418
587.85        23.09232
588.28         22.9643
588.71        22.59954
589.15        23.11126
589.58        22.65394
590.01        22.94442
590.45        22.85456
590.88        22.81334
591.31        22.73755
591.75        22.67782
592.18        22.66813
592.61        22.64334
593.05        23.01336
593.48        23.00866
593.91        22.86951
594.35        22.92613
594.78        22.99091
595.21        23.19822
595.65        23.31974
596.08        23.34057
596.51          23.512
596.94        23.48269
597.38        23.66983
597.81        24.02751
598.24        23.86608
598.68        24.25195
599.11        24.56359
599.54        24.92839
599.97        24.91479
600.41        25.30964
600.84        25.73472
601.27        25.90234
601.70        26.35564
602.14        26.72978
602.57        26.96897
603.00        27.05117
603.43        27.20071
603.87        27.63924
604.30        27.97104
604.73        28.29442
605.16        28.60424
605.60        29.08204
606.03         29.5711
606.46        30.00868
606.89        30.25683
607.32        30.42924
607.76          30.624
608.19        30.87361
608.62        31.34201
609.05        31.62971
609.48        31.88196
609.92        32.05414
610.35        32.31122
610.78        32.99376
611.21        33.38007
611.64        33.56503
612.07        33.84224
612.50        34.13396
612.94        34.28922
613.37        34.46524
613.80        34.64007
614.23         34.8306
614.66        35.27242
615.09        35.39971
615.52        35.66277
615.96        35.85993
616.39        36.32249
616.82        36.34371
617.25        36.66525
617.68         37.0345
618.11        37.16047
618.54        37.09084
618.97        37.21794
619.40        37.57413
619.84        37.81109
620.27        37.90611
620.70        38.21922
621.13        38.70974
621.56        38.56796
621.99         38.2498
622.42        38.52436
622.85        38.69368
623.28        38.62165
623.71        38.73347
624.14        38.91129
624.57        38.85099
625.00        38.88371
625.43        38.85883
625.86        38.81639
626.29        38.75508
626.72        38.46749
627.15        38.40756
627.58        38.16716
628.01        37.91129
628.44        37.76917
628.87        37.70086
629.30        37.48263
629.73        37.13645
630.16        36.87315
630.59        36.69274
631.02        36.48071
631.45        36.21121
631.88        35.89405
632.31        35.52525
632.74        35.10461
633.17        34.67233
633.60        34.29177
634.03        33.97599
634.46        33.70872
634.89        33.44878
635.32        33.12757
635.75        32.73071
636.18        32.28383
636.61         31.8236
637.04        31.40532
637.47        31.04702
637.89        30.72699
638.32        30.41688
638.75        30.12085
639.18        29.84107
639.61        29.46415
640.04        29.22731
640.47        28.97082
640.90        28.76302
641.33         28.5826
641.76         28.4174
642.18        28.28929
642.61        28.19507
643.04        28.07265
643.47        27.89152
643.90         27.9956
644.33        27.78203
644.76        27.70022
645.18        27.61357
645.61        27.69801
646.04        27.91524
646.47        28.02928
646.90        28.04755
647.33        28.16866
647.75        28.39787
648.18        28.61357
648.61        28.81119
649.04        29.03277
649.47        29.27967
649.89        29.58356
650.32        29.93685
650.75        30.23885
651.18        30.51369
651.61        31.00187
652.03        31.67478
652.46         32.0975
652.89        32.27111
653.32        32.61309
653.74         33.2518
654.17        33.32789
654.60        34.09509
655.03        34.44137
655.46        34.87702
655.88        35.80984
656.31        40.38177
656.74        40.27744
657.16        36.82356
657.59        36.34014
658.02        37.43863
658.45        38.00644
658.87        38.48792
659.30        38.45558
659.73        38.71376
660.15        39.67385
660.58        39.71482
661.01         39.9968
661.44        40.08566
661.86        40.54706
662.29        41.29619
662.72          41.639
663.14        41.62469
663.57        41.87363
664.00        42.37566
664.42        42.63967
664.85        42.66664
665.27        42.72828
665.70        42.88933
666.13        43.00256
666.55        43.31192
666.98        43.63029
667.41        43.98117
667.83        44.28252
668.26        44.49978
668.69        44.65113
669.11         44.7523
669.54        44.86026
669.96        44.98684
670.39        45.06721
670.82        45.12928
671.24        45.26671
671.67        45.48726
672.09        45.68199
672.52         45.9373
672.94        46.08209
673.37        46.14408
673.80         46.1405
674.22        46.12777
674.65        46.17318
675.07          46.308
675.50         46.5008
675.92        46.72042
676.35        46.91021
676.77        47.05555
677.20         47.1684
677.62         47.2672
678.05        47.36826
678.47         47.4795
678.90        47.60142
679.32        47.72025
679.75        47.83323
680.17        47.93242
680.60        48.01957
681.02        48.11801
681.45        48.23471
681.87        48.37641
682.30        48.58611
682.72        48.82468
683.15        48.86602
683.57        48.76842
684.00        48.86223
684.42        49.13327
684.85        49.29947
685.27        49.34091
685.70        49.42809
686.12        49.55863
686.54        49.65385
686.97        49.71295
687.39        49.80505
687.82        49.88886
688.24        49.85413
688.66        49.78113
689.09        49.68329
689.51        50.10555
689.94        50.30083
690.36        50.41932
690.78        50.64046
691.21        50.95616
691.63        51.19442
692.06        51.36588
692.48        51.65558
692.90        52.00776
693.33         52.1935
693.75        52.19707
694.17        52.08035
694.60        51.94308
695.02        51.93644
695.44         52.0429
695.87        52.18427
696.29        52.31476
696.71         52.1756
697.14        51.93078
697.56        52.28666
697.98        53.10736
698.41        53.53405
698.83        53.50574
699.25        53.49278
699.68        53.54528
700.10        53.62305
700.52        53.75478
700.94        53.84534
701.37        53.87105
701.79        54.27203
702.21        54.38891
702.64        54.55032
703.06        54.58567
703.48        54.57711
703.90        54.51938
704.33        54.73299
704.75        54.55785
705.17        54.63578
705.59        54.77198
706.01        54.94625
706.44        55.15318
706.86        55.39138
707.28        55.63118
707.70        55.93034
708.12        56.21356
708.55        56.19319
708.97        55.92885
709.39        55.85071
709.81        55.98905
710.23        56.01282
710.66        55.91666
711.08        56.11555
711.50        56.23719
711.92        56.46091
712.34        56.66358
712.76        56.88311
713.19        57.06981
713.61        57.18908
714.03        57.21799
714.45        57.15977
714.87        57.07855
715.29        57.07876
715.71        57.18412
716.13        57.37376
716.56        57.56734
716.98        57.69606
717.40        57.70921
717.82        57.63885
718.24        57.56146
718.66         57.5942
719.08        57.75977
719.50        58.02734
719.92        58.31497
720.34        58.45948
720.76        58.44156
721.19         58.3776
721.61        58.31649
722.03        58.26178
722.45        58.24517
722.87        58.29908
723.29        58.40811
723.71        58.52666
724.13        58.63967
724.55        58.74701
724.97        58.88565
725.39        59.09765
725.81        59.37595
726.23        59.72787
726.65        60.04783
727.07        60.02797
727.49        59.87775
727.91        59.47551
728.33        59.05671
728.75        58.90702
729.17        59.09259
729.59        59.47812
730.01        59.90075
730.43        60.32434
730.85        60.28839
731.27        60.20033
731.69        60.01886
732.10        59.86583
732.52        59.78458
732.94        59.72527
733.36        59.74587
733.78        59.90689
734.20        60.19801
734.62        60.69895
735.04        61.24398
735.46        61.33263
735.88        61.03159
736.30        60.92687
736.72        61.06258
737.13        61.11724
737.55        61.03748
737.97        60.93277
738.39        60.85057
738.81        60.86446
739.23        60.99696
739.65        61.23394
740.06        61.46789
740.48        61.62849
740.90        61.67387
741.32         61.6529
741.74        61.59285
742.16         61.5349
742.57        61.50356
742.99        61.49112
743.41        61.52779
743.83        61.61507
744.25        61.76302
744.67        62.03819
745.08        62.36098
745.50        62.45177
745.92        62.28959
746.34        61.98905
746.75        61.63688
747.17        61.37856
747.59        61.25358
748.01        61.23274
748.42        61.32268
748.84        61.51605
749.26        61.79706
749.68        62.10817
750.09        62.39246
750.51        62.67622
750.93        62.85815
751.35        62.81073
751.76        62.36961
752.18        62.22972
752.60        62.36507
753.01        62.59609
753.43        62.82471
753.85        62.95178
754.27        62.93438
754.68        63.06237
755.10        62.93686
755.52        63.02759
755.93        63.20266
756.35        63.42133
756.77        63.62162
757.18        63.70749
757.60        63.68239
758.02        63.64894
758.43         63.5481
758.85        63.46498
759.26        62.95298
759.68        62.92895
760.10        63.27371
760.51        63.65934
760.93        63.90024
761.34        64.11832
761.76        64.23788
762.18        63.67192
762.59        62.78333
763.01        62.99643
763.42        64.21499
763.84        64.71082
764.26        64.37279
764.67        64.08286
765.09        64.00839
765.50        64.08243
765.92        64.26797
766.33        64.15467
766.75        63.70577
767.16        63.69342
767.58        63.78354
768.00        64.06631
768.41        64.43791
768.83        65.19582
769.24        66.06269
769.66         66.2849
770.07        65.80046
770.49        65.32596
770.90        65.03593
771.32        65.07189
771.73        65.35536
772.15         65.4089
772.56        65.21564
772.97        65.10638
773.39        65.10622
773.80        65.18179
774.22        65.26925
774.63        65.27127
775.05        65.17503
775.46         65.1877
775.88         65.3006
776.29        65.42655
776.70        65.54698
777.12        65.70716
777.53        65.90412
777.95        66.08337
778.36        66.24341
778.77        66.31262
779.19        66.27541
779.60        66.30995
780.02        66.36303
780.43         66.0211
780.84        65.47633
781.26        65.46405
781.67        65.93893
782.09        66.30849
782.50        66.40026
782.91        66.11414
783.33        65.61524
783.74        65.50201
784.15        65.83119
784.57        66.23068
784.98        66.67207
785.39        67.10717
785.81        67.45313
786.22        68.08031
786.63        68.23673
787.04        68.33763
787.46         68.2086
787.87        67.86618
788.28        67.50372
788.70        67.39715
789.11        67.58076
789.52        68.03133
789.93        68.54455
790.35        68.67372
790.76        68.39901
791.17        68.02143
791.58        67.69523
792.00         67.4711
792.41        67.42132
792.82        67.56755
793.23        67.80674
793.65        67.96852
794.06        67.98832
794.47        67.79568
794.88        67.51569
795.29        67.43391
795.71        67.52264
796.12        67.74025
796.53        67.97966
796.94        68.09466
797.35        68.02682
797.76        67.83861
798.18        67.64902
798.59        67.60449
799.00        67.75051
799.41        68.02293
799.82        68.35822
800.23        68.65226
800.64        68.85757
801.06        68.98524
801.47         69.0415
801.88          68.951
802.29        68.71613
802.70        68.34029
803.11        67.95866
803.52        67.79344
803.93        67.91695
804.34         68.2966
804.75        68.75338
805.17        69.09587
805.58        69.30984
805.99        68.98141
806.40        68.37344
806.81        68.97239
807.22         70.3634
807.63        70.04077
808.04        68.25389
808.45        67.58595
808.86        68.21818
809.27        68.69617
809.68        68.84409
810.09        69.05744
810.50        69.27625
810.91         69.3946
811.32        69.42763
811.73        69.39857
812.14        69.32651
812.55        69.24127
812.96        69.20007
813.37        69.23222
813.78         69.3773
814.19        69.73581
814.60        70.19466
815.01        70.46394
815.42        70.49591
815.83        70.40313
816.24        70.23893
816.65        70.07523
817.05         69.9637
817.46        69.86698
817.87        69.80265
818.28        69.75155
818.69        69.70416
819.10         69.6698
819.51        69.65726
819.92        69.67355
820.33        69.71319
820.74         69.7642
821.14         69.7895
821.55        69.76498
821.96        69.67898
822.37        69.56089
822.78        69.45099
823.19        69.41834
823.60        69.49397
824.00        69.67773
824.41        69.92895
824.82        70.28421
825.23        70.71115
825.64        71.16533
826.04        71.58364
826.45        71.78865
826.86        71.76531
827.27        71.57096
827.68        71.21672
828.08        70.75012
828.49        70.19375
828.90        69.56633
829.31        69.05092
829.72        68.92217
830.12        69.25851
830.53        69.96967
830.94        70.77614
831.35        71.11271
831.75        70.85035
832.16        70.10467
832.57        69.29795
832.97        69.07691
833.38        69.56068
833.79        70.53096
834.20        71.62673
834.60        72.23254
835.01        72.13847
835.42        71.58127
835.82        70.79266
836.23        70.11596
836.64        69.68885
837.04        69.42237
837.45        69.31045
837.86        69.41442
838.26        69.72177
838.67        70.18809
839.08        70.69851
839.48        71.01537
839.89        71.06142
840.29        70.89838
840.70        70.60448
841.11        70.28639
841.51        70.01498
841.92         69.7375
842.33        69.55662
842.73         69.6451
843.14        69.97256
843.54        70.54907
843.95        71.15083
844.35        71.46127
844.76        71.36346
845.17        70.93835
845.57        70.40392
845.98        70.10017
846.38        70.13645
846.79         70.4101
847.19        70.75026
847.60        70.78181
848.00        70.44689
848.41        69.85912
848.81        69.28481
849.22        69.10059
849.62        69.40405
850.03        70.04555
850.43         70.8029
850.84        71.15413
851.24        71.02136
851.65        70.52612
852.05        69.96133
852.46        69.77309
852.86        70.05203
853.27        70.62187
853.67        71.26527
854.07        71.88234
854.48        72.35938
854.88        72.84483
855.29        73.09324
855.69        72.92271
856.10        72.21228
856.50        71.12556
856.90        70.00533
857.31        69.35615
857.71        69.27674
858.12        69.59486
858.52        70.15208
858.92        70.42254
859.33        70.22964
859.73        69.78305
860.13        69.18583
860.54        68.63071
860.94        68.20194
861.34        67.81082
861.75          67.549
862.15        67.63107
862.55        68.05717
862.96        68.76949
863.36        69.52712
863.76        69.84392
864.17        69.61118
864.57        68.96138
864.97        68.20382
865.38        67.86695
865.78        68.11127
866.18         68.7688
866.58        69.53278
866.99        69.84975
867.39        69.59873
867.79        68.97572
868.19        68.23637
868.60        67.71041
869.00        67.48986
869.40        67.46649
869.80        67.62836
870.21        67.95417
870.61        68.43117
871.01        69.00146
871.41        69.48074
871.81        69.58975
872.22        69.27853
872.62        68.62449
873.02        67.82157
873.42        67.20663
873.82        66.91036
874.22        66.88768
874.63        67.04366
875.03        67.20615
875.43        67.32083
875.83        67.42815
876.23        67.63824
876.63        68.06969
877.03        68.70804
877.44        69.54681
877.84        70.40246
878.24        70.42358
878.64        70.34043
879.04        69.64584
879.44        68.84853
879.84        68.33551
880.24         68.2179
880.64        68.37823
881.04        68.67845
881.44        68.89997
881.84        68.97747
882.24        69.00776
882.65        69.00177
883.05        69.07423
883.45        69.21114
883.85          69.343
884.25        69.52718
884.65        69.87733
885.05        70.39571
885.45        71.05836
885.85         71.6694
886.25        71.89017
886.65        71.63636
887.05        70.98927
887.45        70.23184
887.85        69.80997
888.25        69.83537
888.65        70.21193
889.04        70.64787
889.44        70.63831
889.84        70.09875
890.24         69.1914
890.64        68.29511
891.04        67.94958
891.44        68.25224
891.84        69.05025
892.24        69.92731
892.64        70.18207
893.04        69.65728
893.44        68.58192
893.83        67.46345
894.23        67.07529
894.63        67.54842
895.03        68.64309
895.43        69.88171
895.83        70.39952
896.23        69.97048
896.63        68.93948
897.02        67.72028
897.42        66.99702
897.82        66.87482
898.22        67.18211
898.62        67.75875
899.01        68.36744
899.41        68.84461
899.81        69.28002
900.21         69.7363
900.61        70.30462
901.00        70.96856
901.40        71.61182
901.80        72.07095
902.20        72.12939
902.59         71.7754
902.99        71.12163
903.39        70.35588
903.79        69.77561
904.18        69.46701
904.58        69.36226
904.98        69.42795
905.38        69.61028
905.77        69.85791
906.17        70.22404
906.57        70.52869
906.96        70.48733
907.36        70.05021
907.76        69.30034
908.15        68.58952
908.55        68.45512
908.95        69.02294
909.34        70.13398
909.74         71.3601
910.14        72.07101
910.53        72.07756
910.93        71.56538
911.33        70.83154
911.72        70.34543
912.12        70.26945
912.52         70.4568
912.91        70.71276
913.31        70.72314
913.70        70.41709
914.10         69.9185
914.49           69.44
914.89        69.26871
915.29        69.47054
915.68          69.944
916.08         70.4766
916.47        70.74146
916.87        70.64925
917.26        70.31104
917.66        69.92093
918.05        69.76439
918.45        69.91096
918.84        70.31773
919.24        70.82231
919.64        71.21871
920.03        71.43372
920.42        71.47535
920.82        71.47769
921.21        71.67373
921.61         72.0583
922.00        72.56412
922.40        72.91341
922.79        72.70566
923.19        71.88216
923.58        70.66998
923.98        69.41023
924.37        68.49345
924.77        68.05315
925.16        67.96932
925.55        68.20599
925.95        68.63815
926.34         69.1966
926.74         69.8644
927.13        70.60591
927.52        71.27034
927.92        71.78924
928.31        72.15536
928.70        72.36633
929.10        72.48519
929.49        72.55227
929.89        72.55065
930.28        72.47199
930.67        72.25546
931.07        71.89584
931.46        71.42198
931.85         70.9674
932.24        70.74062
932.64        70.78259
933.03        71.08871
933.42        71.40117
933.82        71.33057
934.21        70.82035
934.60        69.97582
934.99        69.20927
935.39        69.12268
935.78        69.86164
936.17        71.27907
936.56        72.83331
936.96        73.52009
937.35        73.09786
937.74        71.82916
938.13        70.38488
938.53        69.67141
938.92        69.82148
939.31        70.59718
939.70        71.53616
940.09        71.80278
940.49        71.18602
940.88        70.03708
941.27        68.79443
941.66        68.08533
942.05         68.0714
942.44        68.53461
942.84        69.28455
943.23        70.05519
943.62        70.64636
944.01        71.16458
944.40        71.52942
944.79        71.61646
945.18        71.44271
945.57         71.0052
945.97        70.53866
946.36        70.54028
946.75         71.0708
947.14          72.022
947.53        73.06978
947.92        73.60622
948.31          73.464
948.70        72.84634
949.09        72.08014
949.48        71.66222
949.87        71.73458
950.26        72.14928
950.65        72.75122
951.04         73.2728
951.43        73.58449
951.82        73.73499
952.21        73.76896
952.60        73.75872
952.99        73.70319
953.38        73.54416
953.77        73.19786
954.16        72.54342
954.55        71.63583
954.94        70.65228
955.33        69.73409
955.72        69.06368
956.11        68.69547
956.50        68.51553
956.89        68.65472
957.28        69.32633
957.66        70.53452
958.05        72.10393
958.44         73.4604
958.83          73.525
959.22        72.12328
959.61        69.70323
960.00        67.15152
960.39        65.71945
960.78        65.67832
961.16        66.69366
961.55        68.27665
961.94        69.69173
962.33        70.61416
962.72        71.23634
963.11        71.52924
963.49        71.46473
963.88        71.05229
964.27        70.31216
964.66        69.43677
965.04        68.73005
965.43        68.24792
965.82        67.92838
966.21        67.77868
966.60        67.76186
966.98        67.86414
967.37        68.12103
967.76        68.35852
968.15        68.26024
968.53        67.78708
968.92        66.98457
969.31        66.22061
969.69        66.10188
970.08        66.69464
970.47        67.82635
970.86        69.01837
971.24         69.4001
971.63        68.68957
972.02        67.25647
972.40        65.57279
972.79        64.37887
973.17        63.91639
973.56        63.94943
973.95          64.372
974.33          65.041
974.72        65.80714
975.11        66.69743
975.49        67.65093
975.88        68.45743
976.26        69.07262
976.65        69.45063
977.04         69.4572
977.42        68.89854
977.81        67.81695
978.19        66.28035
978.58        65.09656
978.96        65.24593
979.35         66.8616
979.74        69.75475
980.12        73.14655
980.51        74.84926
980.89        74.34598
981.28        72.06435
981.66        69.12362
982.05        67.45461
982.43        67.55382
982.82        68.86745
983.20        70.88504
983.59        72.52345
983.97         73.4785
984.35        74.03854
984.74        74.14859
985.12        73.84076
985.51        73.16374
985.89        72.01112
986.28        70.82539
986.66         70.1981
987.04        70.37636
987.43        71.24132
987.81        72.32979
988.20        72.62518
988.58        71.92167
988.96        70.34423
989.35        68.69199
989.73        68.21809
990.12        69.12994
990.50        71.14007
990.88        73.08492
991.27        73.07806
991.65        70.87244
992.03        67.16779
992.42        63.46971
992.80        61.83142
993.18        62.84155
993.56        65.81349
993.95        69.61095
994.33        72.51159
994.71        73.61877
995.10        73.40991
995.48        72.26501
995.86        70.85074
996.24        69.54963
996.63        68.18637
997.01        66.88435
997.39        65.84025
997.77        65.09741
998.15         64.7246
998.54        64.76022
998.92        65.17368
999.30        65.91441
999.68         66.9456
1000.06         68.0343
1000.45        68.77323
1000.83        69.14062
1001.21        69.08077
1001.59        68.75626
1001.97         68.5298
1002.35        68.50906
1002.73        68.59546
1003.12        68.67428
1003.50        68.48798
1003.88        68.04625
1004.26        67.54116
1004.64        67.05466
1005.02        66.65315
1005.40        66.38724
1005.78        66.20882
1006.16         66.2806
1006.54        66.89109
1006.92        67.99528
1007.30        69.39217
1007.69        70.61186
1008.07        71.13911
1008.45        70.76308
1008.83        69.75455
1009.21        68.32098
1009.59        66.82243
1009.97        65.50674
1010.35        64.31599
1010.73         63.7264
1011.11        64.52175
1011.49        66.88445
1011.86        70.88014
1012.24        75.39771
1012.62        78.70988
1013.00        80.08188
1013.38        79.58611
1013.76        78.23341
1014.14        78.12642
1014.52        79.88718
1014.90        82.96153
1015.28        85.83372
1015.66        85.84901
1016.04        82.73796
1016.41        77.96809
1016.79        73.44593
1017.17        70.67783
1017.55        69.66541
1017.93        69.92799
1018.31        70.86398
1018.69        70.82677
1019.06        69.28602
1019.44        67.27879
1019.82        65.69185
1020.20        65.07373
1020.58        65.36999
1020.95        66.29623
1021.33         67.7858
1021.71        69.14816
1022.09        69.84144
1022.46         69.9109
1022.84        69.57963
1023.22        69.52591
1023.60         69.9098
1023.97        70.63435
1024.35        71.16275
1024.73        70.58765
