SpectraSmart Spectrum 2.9.0.0
--------- Device Information -----------
Spectrum Name :  反射率_0
Saving Time :  2024/05/01 16:51:12
Spectro-Module Model Name : SE2030-DUVN
Spectro-Module Serial Number : OS361AC55029948
Wavelength Start : 200
Wavelength End : 1025
Wavelength Unit : Wavelength(nm)
Spectrum Unit : Reflectance(%)
-----------Spectrum Setting ------------
Integration Time : 20ms
Average : 10
Boxcar : 0
Background removal :  enabled
linearity correction :  enabled
SC :  disabled
Intensity correction :  disabled
DWT denoise :  enabled
savitzky-golay :  disabled
FFT :  disabled
Running average :  disabled
Kalman :  disabled
High pass :  disabled
---------------BEGIN--------------------
Wavelength(nm)             Reflectance(%)
200.29               0
200.75        334.6832
201.21        1129.418
201.67       -394.1287
202.13        -130.193
202.58       -57.08074
203.04       -19.49633
203.50       0.1543028
203.96        3.716713
204.42       -9.894072
204.88       -69.76092
205.34        -1697.44
205.80        289.4854
206.26        210.2451
206.72        216.3907
207.18        400.1522
207.64       -199.7401
208.10       -9.140566
208.55        30.50554
209.01        43.23012
209.47        42.77959
209.93        33.93955
210.39         17.4409
210.85       -4.569502
211.31       -34.15307
211.77       -112.1994
212.23        452.8344
212.69         111.028
213.14        104.8931
213.60        193.1876
214.06       -887.7045
214.52       -145.0948
214.98       -98.82762
215.44       -93.39087
215.90       -119.3723
216.36       -636.5167
216.81        170.8629
217.27        232.6404
217.73       -654.4396
218.19       -183.0631
218.65       -154.9437
219.11       -180.1311
219.57       -290.4695
220.02       -710.8414
220.48       -327.5902
220.94       -104.4896
221.40       -51.62526
221.86       -33.10926
222.32       -23.81979
222.77       -16.33152
223.23       -8.390229
223.69        1.737449
224.15        10.79684
224.61        14.24817
225.06         14.0038
225.52        12.54399
225.98        11.04733
226.44        9.610312
226.90        7.569677
227.36        5.756945
227.81        6.836582
228.27        10.57957
228.73        14.81188
229.19        17.81139
229.65         18.7774
230.10        18.09199
230.56        16.34886
231.02        13.84199
231.48         12.0372
231.93        11.83785
232.39        12.47096
232.85        13.96479
233.31        16.48431
233.77        19.61478
234.22        23.19307
234.68        26.12188
235.14        27.21265
235.60        26.26814
236.05         23.0699
236.51        18.09055
236.97        14.55803
237.43        15.32931
237.88        20.38907
238.34        26.45013
238.80        28.91241
239.26        26.19935
239.71        17.46257
240.17        1.917595
240.63       -13.50695
241.08       -18.09486
241.54        -11.1768
242.00      -0.8769656
242.46        4.919476
242.91        5.836235
243.37        2.250307
243.83       -1.607745
244.28        10.79344
244.74        34.74892
245.20        52.84582
245.66        61.16811
246.11         61.2897
246.57        54.96101
247.03        40.71465
247.48        13.79009
247.94       -21.95679
248.40       -50.88101
248.85          -68.07
249.31       -66.03652
249.77       -46.96692
250.22       -22.80557
250.68       0.1833387
251.14        15.98887
251.59         20.6815
252.05        14.33315
252.51       -8.836445
252.96       -68.18787
253.42        -149.556
253.88       -128.8694
254.33       -40.33888
254.79        10.74116
255.25        28.21286
255.70        31.56761
256.16        30.85992
256.62        30.18747
257.07        31.97843
257.53        35.51367
257.99        39.04523
258.44        41.71035
258.90         43.1817
259.35        43.43656
259.81        43.17984
260.27        42.54303
260.72         41.6974
261.18        40.98919
261.63        40.20211
262.09        39.50846
262.55        38.84128
263.00        38.11916
263.46        37.41637
263.91        36.68852
264.37        36.07246
264.83         35.5223
265.28        35.03279
265.74        34.50207
266.19        33.59449
266.65        32.41038
267.11        31.02586
267.56        29.80083
268.02        29.37553
268.47        29.79541
268.93        30.78124
269.38        31.89606
269.84        32.36847
270.30        32.01178
270.75        31.06357
271.21        29.79065
271.66        28.49722
272.12        27.38871
272.57        26.34008
273.03        25.50657
273.48        25.08701
273.94        25.08331
274.39        25.40202
274.85        25.78812
275.31        25.82123
275.76        25.41841
276.22        24.73929
276.67         23.9409
277.13        23.32665
277.58        22.91572
278.04        22.65198
278.49        22.41204
278.95        22.11281
279.40        21.69756
279.86        21.24755
280.31        20.80126
280.77        20.46752
281.22        20.22057
281.68        20.05692
282.13        19.86473
282.59        19.55298
283.04        19.09829
283.50        18.58372
283.95        18.10304
284.41        17.83955
284.86        17.81612
285.32        17.96723
285.77        18.21012
286.22        18.44979
286.68        18.65624
287.13        18.84226
287.59        18.98762
288.04        19.01835
288.50        18.95517
288.95         18.7833
289.41        18.61783
289.86        18.57255
290.32        18.68159
290.77        18.90516
291.22        19.14854
291.68        19.25769
292.13        19.20868
292.59        19.08401
293.04        18.97277
293.50        19.05851
293.95        19.36323
294.40        19.82944
294.86        20.37973
295.31        20.90605
295.77        21.35899
296.22        21.76716
296.68        22.12458
297.13        22.41441
297.58        22.65648
298.04        22.86894
298.49        23.09139
298.95        23.42412
299.40        23.86476
299.85        24.37652
300.31        24.91921
300.76        25.43399
301.21        25.89772
301.67        26.33449
302.12        26.69201
302.58        26.91522
303.03        26.99139
303.48        26.96247
303.94        26.94404
304.39        27.05657
304.84        27.33981
305.30        27.74192
305.75        28.17411
306.20        28.51088
306.66        28.71539
307.11        28.80613
307.57        28.81812
308.02        28.76037
308.47        28.66112
308.93         28.5242
309.38         28.3541
309.83        28.20668
310.29        28.10168
310.74        28.03114
311.19        27.98309
311.65        27.91963
312.10        27.82955
312.55        27.72748
313.00        27.63976
313.46        27.60765
313.91        27.62732
314.36        27.67149
314.82        27.70233
315.27        27.67457
315.72        27.56683
316.18        27.39939
316.63        27.16996
317.08        26.87721
317.53        26.53299
317.99         26.1496
318.44        25.76362
318.89        25.45339
319.35        25.24141
319.80        25.10769
320.25        25.01968
320.70        24.91337
321.16        24.76199
321.61        24.58971
322.06        24.39669
322.51        24.18949
322.97        23.97055
323.42        23.74113
323.87        23.51805
324.32         23.3427
324.78        23.21678
325.23        23.13815
325.68        23.06794
326.13        22.94583
326.59        22.75006
327.04        22.50917
327.49        22.24024
327.94        21.98395
328.39        21.75633
328.85        21.53899
329.30        21.34467
329.75        21.17278
330.20        21.02114
330.66        20.88945
331.11        20.76651
331.56         20.6069
332.01        20.40418
332.46        20.17109
332.92        19.93262
333.37        19.75741
333.82        19.65612
334.27        19.61764
334.72         19.6206
335.17        19.62781
335.63        19.61101
336.08         19.5795
336.53         19.5413
336.98        19.52101
337.43        19.52015
337.88        19.53555
338.34        19.50604
338.79        19.34606
339.24        19.04501
339.69         18.6355
340.14        18.24389
340.59        18.06745
341.05        18.13408
341.50        18.38582
341.95        18.67275
342.40        18.74878
342.85         18.5588
343.30        18.19583
343.75        17.77726
344.20        17.48496
344.66        17.37779
345.11        17.38356
345.56         17.4859
346.01        17.65411
346.46        17.85258
346.91        18.08641
347.36        18.28076
347.81        18.31958
348.26        18.19105
348.72        17.93635
349.17        17.62951
349.62        17.43449
350.07        17.39011
350.52        17.44461
350.97         17.5412
351.42        17.57946
351.87        17.53185
352.32        17.45078
352.77          17.331
353.22        17.16141
353.67        16.95725
354.13        16.71864
354.58        16.52436
355.03         16.5271
355.48        16.74109
355.93        17.12512
356.38         17.5187
356.83        17.64782
357.28        17.45705
357.73        17.04045
358.18         16.5842
358.63        16.36765
359.08        16.44903
359.53        16.73329
359.98        17.09329
360.43        17.31295
360.88        17.31976
361.33        17.18786
361.78        16.97593
362.23        16.76498
362.68        16.58887
363.13        16.42019
363.58        16.26766
364.03        16.15614
364.48        16.08451
364.93         16.0453
365.38        16.02308
365.83        15.98473
366.28        15.91906
366.73        15.84124
367.18        15.72807
367.63        15.54573
368.08        15.30506
368.53        15.02318
368.98        14.77685
369.43         14.6817
369.88        14.74895
370.33        14.93484
370.78        15.14824
371.23        15.22535
371.68        15.11438
372.13         14.8692
372.58         14.5454
373.03        14.22629
373.48        13.94819
373.93        13.69259
374.38        13.48595
374.83        13.37355
375.28        13.35952
375.72        13.43284
376.17        13.54413
376.62        13.61112
377.07        13.60856
377.52        13.55069
377.97        13.45723
378.42         13.3653
378.87        13.28957
379.32        13.22183
379.77        13.15756
380.22        13.09137
380.67        13.02251
381.11        12.95661
381.56        12.90586
382.01         12.8904
382.46        12.91216
382.91        12.96494
383.36        13.01192
383.81         13.0001
384.26        12.91674
384.71        12.76776
385.15        12.60123
385.60         12.5094
386.05        12.50439
386.50        12.56956
386.95        12.62627
387.40         12.5526
387.85        12.34078
388.29        12.03142
388.74        11.76323
389.19        11.68542
389.64        11.81783
390.09         12.0956
390.54        12.40749
390.98         12.5756
391.43        12.55345
391.88        12.40467
392.33        12.20127
392.78        12.04985
393.23        11.97969
393.67        11.93799
394.12        11.91733
394.57        11.91729
395.02        11.91184
395.47        11.83447
395.91        11.72472
396.36        11.69899
396.81        11.77228
397.26        11.88093
397.71        11.97486
398.15        12.01063
398.60        11.99092
399.05        11.88175
399.50        11.74209
399.95        11.73955
400.39        11.84904
400.84        11.84267
401.29        11.70597
401.74         11.6061
402.18        11.54596
402.63        11.41598
403.08         11.2584
403.53        11.18888
403.97        11.21641
404.42        11.30758
404.87        11.39645
405.32          11.378
405.76        11.23211
406.21        11.00346
406.66        10.76829
407.11        10.64784
407.55        10.67491
408.00        10.81217
408.45        10.99833
408.90        11.10843
409.34        11.10938
409.79        11.06021
410.24        10.99424
410.68        10.93347
411.13        10.89447
411.58        10.87528
412.03        10.86122
412.47        10.82629
412.92        10.76517
413.37        10.69088
413.81        10.62509
414.26         10.6049
414.71        10.63233
415.15        10.70544
415.60        10.77826
416.05        10.78931
416.49        10.72388
416.94        10.59595
417.39        10.46863
417.83        10.44347
418.28        10.53742
418.73        10.71569
419.17        10.89318
419.62        10.92673
420.07        10.79519
420.51        10.55013
420.96        10.29037
421.41        10.14734
421.85        10.14872
422.30        10.25089
422.74        10.39918
423.19        10.52197
423.64        10.59192
424.08        10.63729
424.53        10.64447
424.98        10.60912
425.42        10.53969
425.87        10.44117
426.31        10.33651
426.76        10.27821
427.21        10.27109
427.65        10.29875
428.10         10.3594
428.54        10.44396
428.99        10.53989
429.44         10.6649
429.88        10.75472
430.33         10.7161
430.77        10.54771
431.22        10.29423
431.66        10.04801
432.11        9.975524
432.56        10.07041
433.00        10.25963
433.45        10.41797
433.89        10.29746
434.34        9.902884
434.78        9.906181
435.23        10.34067
435.67        10.48286
436.12        10.33142
436.57        10.27112
437.01        10.32653
437.46        10.33925
437.90          10.309
438.35        10.29756
438.79        10.29655
439.24        10.26703
439.68        10.22734
440.13        10.25506
440.57        10.33123
441.02        10.38074
441.46        10.39585
441.91        10.34843
442.35        10.26216
442.80        10.35228
443.24        10.53686
443.69        10.41327
444.13         10.0498
444.58        9.899798
445.02        9.979305
445.47        10.05685
445.91        10.10868
446.36        10.20115
446.80        10.31946
447.24        10.44096
447.69        10.54414
448.13        10.59898
448.58        10.59902
449.02        10.54998
449.47        10.47745
449.91        10.41563
450.36        10.37956
450.80         10.3612
451.25        10.34769
451.69        10.30874
452.13        10.24152
452.58        10.16187
453.02        10.08738
453.47         10.0519
453.91        10.06061
454.36         10.1034
454.80        10.15953
455.24        10.19262
455.69        10.19442
456.13        10.16686
456.58        10.13473
457.02        10.12194
457.46        10.13623
457.91        10.16762
458.35        10.18975
458.79         10.1464
459.24        10.03949
459.68        9.915873
460.13        9.829676
460.57        9.656187
461.01        9.690633
461.46        9.705274
461.90        9.765966
462.34        9.795536
462.79        9.835831
463.23        9.847065
463.68        9.860983
464.12        9.903186
464.56        9.975787
465.01        10.07806
465.45        10.15708
465.89        10.15255
466.34        10.06506
466.78        9.911032
467.22        9.752204
467.67        9.713138
468.11        9.777852
468.55         9.94723
468.99        10.14636
469.44        10.27709
469.88        10.31538
470.32        10.28762
470.77        10.22487
471.21        10.17412
471.65         10.1546
472.10        10.14938
472.54        10.15405
472.98        10.17113
473.42        10.19774
473.87        10.24236
474.31        10.28324
474.75        10.29538
475.20        10.27819
475.64        10.23172
476.08        10.17923
476.52         10.1836
476.97        10.25836
477.41        10.34032
477.85        10.38059
478.29        10.59579
478.74        10.52036
479.18        10.51566
479.62        10.48339
480.06         10.5476
480.50        10.72033
480.95        10.76191
481.39        10.99651
481.83        11.05463
482.27        11.03982
482.72        10.97812
483.16        10.90234
483.60        10.88639
484.04        10.93686
484.48        10.99757
484.93        11.12237
485.37        11.34746
485.81        11.53183
486.25        11.88479
486.69        11.22029
487.14        10.99664
487.58        11.57882
488.02        11.78401
488.46        11.94687
488.90        11.89524
489.34        12.00278
489.79        11.87671
490.23        12.11718
490.67        12.31291
491.11        12.54752
491.55        12.59256
491.99        12.47678
492.43        12.48148
492.88        12.61812
493.32        12.69799
493.76        12.72795
494.20        12.82729
494.64        13.00484
495.08        13.21332
495.52        13.41171
495.96        13.58616
496.41        13.70991
496.85        13.67618
497.29        13.56684
497.73        13.69158
498.17        14.02993
498.61        14.23641
499.05        14.27515
499.49        14.36396
499.93        14.49727
500.37        14.53467
500.82        14.50557
501.26        14.52735
501.70        14.61806
502.14        14.74477
502.58         14.8789
503.02        14.97612
503.46        15.02777
503.90        15.05445
504.34        15.08508
504.78        15.16238
505.22        15.29458
505.66        15.46144
506.10        15.63549
506.54         15.7734
506.98        15.85916
507.42        15.90581
507.86        15.92014
508.30        15.91267
508.74        15.89402
509.18        15.86608
509.62        15.84474
510.06        15.85647
510.50        15.90743
510.94         15.9902
511.38        16.09297
511.82          16.194
512.26        16.28078
512.70        16.35299
513.14        16.40132
513.58         16.4139
514.02         16.3916
514.46        16.34068
514.90         16.2739
515.34        16.21355
515.78        16.16982
516.22        16.14026
516.66        16.13044
517.10        16.14574
517.54        16.18332
517.98         16.2407
518.42        16.29929
518.86         16.3277
519.30        16.31846
519.74        16.27887
520.18        16.22626
520.62        16.19039
521.06        16.17863
521.50        16.18086
521.93        16.18847
522.37        16.18288
522.81        16.16089
523.25        16.13104
523.69         16.0942
524.13        16.04985
524.57        16.00176
525.01        15.95109
525.45        15.90843
525.89         15.8911
526.32        15.90061
526.76        15.92769
527.20        15.95988
527.64        15.97608
528.08        15.96914
528.52        15.94583
528.96         15.9062
529.40        15.85138
529.83        15.78303
530.27        15.70476
530.71        15.62896
531.15           15.58
531.59        15.56075
532.03        15.56306
532.46        15.56523
532.90        15.53359
533.34        15.46391
533.78        15.35932
534.22        15.23993
534.66        15.16147
535.09        15.11828
535.53        15.04901
535.97         14.9662
536.41        14.94378
536.85        14.98491
537.28        15.05346
537.72        15.12687
538.16        15.18497
538.60        15.21847
539.04        15.23005
539.47        15.23766
539.91         15.2807
540.35        15.36164
540.79        15.47501
541.22        15.59725
541.66        15.66632
542.10        15.71562
542.54        15.72918
542.97         15.7426
543.41        15.80266
543.85        15.91512
544.29        16.06335
544.72        16.22748
545.16        16.38433
545.60        16.52241
546.04        16.64794
546.47        16.75967
546.91        16.85881
547.35        16.94876
547.79        17.02672
548.22        17.09187
548.66        17.18038
549.10        17.29917
549.53        17.36263
549.97        17.53111
550.41        17.70011
550.84        17.91012
551.28        18.15488
551.72        18.40513
552.15        18.59503
552.59        18.72112
553.03        18.82335
553.46         18.9122
553.90        19.01778
554.34        19.14985
554.77        19.26971
555.21        19.35603
555.65        19.58572
556.08        19.58425
556.52        19.66463
556.96         19.7229
557.39        19.78948
557.83        19.87411
558.27        19.94368
558.70        19.99738
559.14        20.13183
559.57        20.16585
560.01        20.27722
560.45         20.3828
560.88        20.42011
561.32        20.42998
561.75         20.4293
562.19        20.46111
562.63        20.68058
563.06        20.99557
563.50        20.97256
563.93        20.67866
564.37        20.62546
564.80        20.82671
565.24        21.01149
565.68        21.13796
566.11        21.26548
566.55        21.38807
566.98        21.48214
567.42        21.57109
567.85        21.67664
568.29        21.81384
568.72        21.95354
569.16        22.09377
569.60        22.22332
570.03        22.33305
570.47        22.36701
570.90        22.50111
571.34        22.54982
571.77        22.66768
572.21        22.77762
572.64        22.91627
573.08        22.99704
573.51         23.5015
573.95        23.47758
574.38        23.33583
574.82        23.66403
575.25        23.63424
575.69        23.80685
576.12        23.68662
576.56        23.90371
576.99        23.87182
577.42        23.84751
577.86        23.86735
578.29        23.89885
578.73        23.87727
579.16        23.66508
579.60        23.51914
580.03        23.47705
580.47        23.69803
580.90        23.24459
581.33        23.42939
581.77        23.45595
582.20        23.36764
582.64        23.01186
583.07        22.85681
583.51        22.69881
583.94        22.78277
584.37        22.81831
584.81        22.74925
585.24        22.65314
585.68        22.56219
586.11        22.25622
586.54        22.14839
586.98         22.0468
587.41        22.01459
587.85        22.28391
588.28        21.84315
588.71        21.63407
589.15        22.10161
589.58        21.51311
590.01        21.87283
590.45        21.74958
590.88         21.7108
591.31        21.72298
591.75        21.80746
592.18        21.79594
592.61         21.6287
593.05        22.04545
593.48        21.96906
593.91         21.9303
594.35        21.91511
594.78        21.98104
595.21         22.2217
595.65        22.36034
596.08        22.26868
596.51        22.51634
596.94        22.59455
597.38        22.85969
597.81        23.20133
598.24        23.11355
598.68        23.64676
599.11        23.73728
599.54        24.26324
599.97        24.13135
600.41        24.61967
600.84        24.92499
601.27        25.26973
601.70        25.80096
602.14        26.27079
602.57        26.67281
603.00        26.92835
603.43        27.08756
603.87        27.41228
604.30        27.70688
604.73        28.07924
605.16        28.54201
605.60        29.05159
606.03        29.56903
606.46        29.98641
606.89        30.27627
607.32         30.5419
607.76        30.80885
608.19        31.11302
608.62        31.59515
609.05        31.84801
609.48         32.3345
609.92        32.52036
610.35        32.79206
610.78         33.4267
611.21        33.77518
611.64        33.97282
612.07        34.28682
612.50        34.72341
612.94        34.95367
613.37        34.97773
613.80        35.37754
614.23        35.41245
614.66        35.89341
615.09         36.0245
615.52         36.3763
615.96        36.73028
616.39        36.97966
616.82        37.16658
617.25        37.29797
617.68        37.77388
618.11        37.93631
618.54        37.93706
618.97        38.06676
619.40        38.36273
619.84        38.59313
620.27        38.74657
620.70        39.07432
621.13        39.54821
621.56        39.43679
621.99        39.55083
622.42        39.60314
622.85        39.81741
623.28        39.85298
623.71         39.7951
624.14        39.80574
624.57        39.88721
625.00        39.89223
625.43        39.81268
625.86        39.71193
626.29         39.5862
626.72        39.45968
627.15        39.30011
627.58        39.09946
628.01        38.85261
628.44        38.75369
628.87        38.52253
629.30        38.31829
629.73        38.07091
630.16        37.82401
630.59        37.56898
631.02        37.28719
631.45        36.98061
631.88        36.65251
632.31        36.30415
632.74        35.93477
633.17        35.55452
633.60        35.17769
634.03        34.80718
634.46        34.44188
634.89        34.06898
635.32        33.66903
635.75        33.24152
636.18        32.79465
636.61        32.34948
637.04        31.93685
637.47         31.5642
637.89        31.21756
638.32        30.86451
638.75        30.50269
639.18        30.13747
639.61        29.65842
640.04        29.32035
640.47        28.98758
640.90        28.73632
641.33        28.54159
641.76        28.38376
642.18        28.26926
642.61         28.1895
643.04        28.08569
643.47        27.92773
643.90        28.06346
644.33        27.88576
644.76        27.83526
645.18        27.77635
645.61        27.89002
646.04        28.14385
646.47        28.30828
646.90        28.36746
647.33        28.51017
647.75        28.74085
648.18        28.86098
648.61        28.93783
649.04        29.28431
649.47        29.82643
649.89        30.23483
650.32        30.48341
650.75        30.64745
651.18        30.84268
651.61        31.43502
652.03        32.35096
652.46        32.97295
652.89        33.27845
653.32        33.64454
653.74        34.14053
654.17        34.67208
654.60        35.17413
655.03        35.45701
655.46        35.91119
655.88        36.64717
656.31        40.67603
656.74        39.80171
657.16        36.59658
657.59        36.32761
658.02        38.22667
658.45        39.28685
658.87        39.50972
659.30        39.30546
659.73        39.97335
660.15        40.72507
660.58        40.82275
661.01        41.07056
661.44        41.24324
661.86        41.54747
662.29        41.99957
662.72        42.42842
663.14        42.82587
663.57        43.25041
664.00        43.64796
664.42        43.89235
664.85        43.98374
665.27        43.95464
665.70        43.89798
666.13        43.95849
666.55        44.17995
666.98        44.51845
667.41        44.91061
667.83        45.24338
668.26        45.46746
668.69        45.61807
669.11        45.72743
669.54        45.86579
669.96        46.04448
670.39        46.19288
670.82        46.31285
671.24        46.44448
671.67        46.58551
672.09        46.70943
672.52        46.81915
672.94        46.89268
673.37        46.93667
673.80         46.9607
674.22        46.98961
674.65        47.03892
675.07        47.12917
675.50        47.24377
675.92        47.39012
676.35        47.57133
676.77        47.78366
677.20        48.01734
677.62        48.24485
678.05           48.41
678.47         48.5032
678.90        48.54794
679.32        48.57274
679.75        48.64223
680.17        48.76537
680.60         48.9215
681.02          49.102
681.45        49.26558
681.87        49.40625
682.30        49.57486
682.72        49.75042
683.15        49.76234
683.57        49.66107
684.00        49.70068
684.42        49.88513
684.85        49.99429
685.27        50.00747
685.70        50.13441
686.12         50.3348
686.54        50.30758
686.97        50.11961
687.39        50.26466
687.82        50.66409
688.24        50.71694
688.66        50.46015
689.09        50.46136
689.51        50.75638
689.94        50.96148
690.36         51.0723
690.78        51.31249
691.21        51.65937
691.63        51.88855
692.06        52.03051
692.48        52.35785
692.90        52.78829
693.33        52.97364
693.75        52.88608
694.17        52.64032
694.60        52.39222
695.02        52.34222
695.44        52.48191
695.87        52.77197
696.29        53.07943
696.71        52.87548
697.14        52.36242
697.56         52.5829
697.98        53.43208
698.41        53.84319
698.83        53.76163
699.25        53.80151
699.68        53.98746
700.10        54.11897
700.52        54.19637
700.94        54.23776
701.37        54.26696
701.79        54.42617
702.21        54.66368
702.64        54.81317
703.06        54.86574
703.48        54.86689
703.90        54.80839
704.33        55.02021
704.75        54.83708
705.17        54.90769
705.59        55.02837
706.01        55.20288
706.44         55.3769
706.86        55.58279
707.28        55.76463
707.70        56.09877
708.12        56.46907
708.55        56.26219
708.97         55.6221
709.39         55.6891
709.81        56.02177
710.23        56.24366
710.66        56.17942
711.08        56.26208
711.50        56.47278
711.92        56.61951
712.34        56.69268
712.76         56.7245
713.19        56.70868
713.61        56.69447
714.03          56.679
714.45        56.64406
714.87        56.62202
715.29        56.66898
715.71        56.79131
716.13        56.97915
716.56        57.16111
716.98        57.28415
717.40        57.30309
717.82        57.24065
718.24        57.16563
718.66        57.19146
719.08        57.34085
719.50        57.57376
719.92        57.82024
720.34         57.9672
720.76        57.98399
721.19        57.90937
721.61        57.79726
722.03        57.72398
722.45        57.72305
722.87        57.78381
723.29        57.89138
723.71        58.00473
724.13        58.10233
724.55        58.21011
724.97         58.3675
725.39        58.44982
725.81         58.7392
726.23        59.00306
726.65        59.21801
727.07        59.15894
727.49        58.88812
727.91        58.40983
728.33        57.93771
728.75        57.77441
729.17        57.98178
729.59        58.48063
730.01        59.08429
730.43        59.42461
730.85        59.42606
731.27        59.29617
731.69        59.11702
732.10        58.92993
732.52        58.79028
732.94        58.70261
733.36        58.69456
733.78        58.79408
734.20              59
734.62        59.31062
735.04        59.64272
735.46        59.88005
735.88        59.99787
736.30        59.94777
736.72        59.80207
737.13        59.90108
737.55        60.16809
737.97        60.12261
738.39        59.83933
738.81        59.85836
739.23        60.19413
739.65        60.49803
740.06        60.64386
740.48        60.73391
740.90        60.72817
741.32        60.60202
741.74        60.40107
742.16        60.24028
742.57        60.16295
742.99        60.12482
743.41        60.16533
743.83        60.34442
744.25        60.64408
744.67        61.01791
745.08        61.36581
745.50        61.48045
745.92        61.32375
746.34         60.9501
746.75        60.53571
747.17        60.19795
747.59        59.95288
748.01        60.16724
748.42        60.84094
748.84        59.97409
749.26        60.52132
749.68         60.4259
750.09        60.57191
750.51        60.88281
750.93        61.24531
751.35        61.22602
751.76        60.90276
752.18        60.86615
752.60        61.15207
753.01        61.48791
753.43        61.77092
753.85        61.77726
754.27        61.87246
754.68        61.75632
755.10        61.63279
755.52         61.6263
755.93        61.74848
756.35        61.93813
756.77        62.15038
757.18        62.22154
757.60        62.12434
758.02        62.19891
758.43        62.33691
758.85        61.84544
759.26        61.02226
759.68        61.14988
760.10         62.1263
760.51        62.83009
760.93        62.84315
761.34        62.56769
761.76        62.75644
762.18        62.20793
762.59        61.47607
763.01        61.69859
763.42        62.76009
763.84         63.1845
764.26         62.8568
764.67        62.46806
765.09        62.23259
765.50        62.25679
765.92        62.49427
766.33        62.44833
766.75        62.12821
767.16        61.95858
767.58        62.05649
768.00        62.27668
768.41        62.65932
768.83        63.50763
769.24         64.5107
769.66        64.70712
770.07         64.1625
770.49        63.68901
770.90         63.4875
771.32        63.53462
771.73        63.74385
772.15        63.74955
772.56        63.54232
772.97        63.36314
773.39        63.27533
773.80        63.41807
774.22         63.6959
774.63         63.7838
775.05        63.64798
775.46        63.64529
775.88        63.76529
776.29        63.81377
776.70        63.79594
777.12        63.85841
777.53        64.01049
777.95        64.16482
778.36        64.30347
778.77        64.32775
779.19        64.21964
779.60        64.18419
780.02        64.16248
780.43        63.74719
780.84        63.15514
781.26        63.04496
781.67        63.40943
782.09        63.97412
782.50        64.43138
782.91         64.0341
783.33        63.06058
783.74        62.85303
784.15        63.52931
784.57         64.2737
784.98        64.90906
785.39        65.46352
785.81        65.83911
786.22         65.8548
786.63        65.89577
787.04        65.77229
787.46        65.66686
787.87        65.57277
788.28        65.54176
788.70        65.56846
789.11        65.63303
789.52         65.7962
789.93        65.97211
790.35        65.98393
790.76        65.82479
791.17        65.52767
791.58        65.20773
792.00        65.05797
792.41        65.13557
792.82        65.31522
793.23        65.49248
793.65        65.69965
794.06        65.82517
794.47        65.45546
794.88         64.8089
795.29        64.71771
795.71        64.86327
796.12        65.28175
796.53        65.71999
796.94        66.00618
797.35        66.03256
797.76        65.86293
798.18        65.64063
798.59        65.54624
799.00        65.64211
799.41        65.85973
799.82        66.13022
800.23        66.34257
800.64        66.45454
801.06        66.48936
801.47        66.48843
801.88        66.42886
802.29        66.32222
802.70        66.15824
803.11        66.00288
803.52        65.97132
803.93        66.10129
804.34        66.37002
804.75        66.67602
805.17        66.94149
805.58        67.17789
805.99        67.02511
806.40        66.61939
806.81        67.04643
807.22        67.95204
807.63        67.34395
808.04        65.54128
808.45        64.83234
808.86        65.40986
809.27        66.04305
809.68        66.48653
810.09        66.85167
810.50        67.04207
810.91         67.0927
811.32        67.04721
811.73        66.92458
812.14        66.76601
812.55        66.58496
812.96        66.46373
813.37        66.51814
813.78        66.76506
814.19        67.18345
814.60        67.62189
815.01        67.83438
815.42        67.76522
815.83        67.46507
816.24         67.0655
816.65        66.83157
817.05        66.85606
817.46        67.04081
817.87        67.27402
818.28        67.34586
818.69        67.20574
819.10         66.9194
819.51        66.59661
819.92        66.43431
820.33        66.49289
820.74        66.69849
821.14        66.93823
821.55        67.07497
821.96        67.06085
822.37        66.96072
822.78        66.83296
823.19        66.77348
823.60        66.82827
824.00        66.98459
824.41        67.20287
824.82        67.52487
825.23        67.92189
825.64        68.35303
826.04        68.76885
826.45        69.01267
826.86        69.06584
827.27        68.97385
827.68        68.71233
828.08        68.27105
828.49        67.66097
828.90        66.92065
829.31        66.26366
829.72        66.01496
830.12        66.27076
830.53        66.93127
830.94        67.72138
831.35        68.08139
831.75        67.87774
832.16          67.228
832.57        66.52285
832.97        66.36118
833.38        66.85066
833.79        67.77603
834.20        68.81061
834.60        69.40121
835.01        69.35526
835.42         68.8951
835.82        68.20145
836.23        67.53831
836.64        67.02796
837.04        66.60034
837.45        66.32295
837.86         66.3763
838.26         66.7757
838.67        67.44708
839.08        68.17253
839.48        68.54822
839.89         68.4584
840.29        68.00954
840.70        67.40414
841.11         66.9439
841.51        66.74254
841.92        66.69531
842.33        66.77024
842.73        66.91685
843.14        67.05937
843.54         67.2832
843.95        67.52299
844.35        67.72432
844.76        67.83869
845.17        67.84756
845.57        67.82447
845.98        67.89266
846.38        68.08694
846.79        68.35924
847.19        68.58067
847.60        68.45555
848.00        67.96864
848.41        67.21906
848.81        66.47141
849.22        66.10126
849.62        66.20685
850.03        66.64749
850.43        67.24043
850.84        67.52809
851.24        67.43465
851.65        67.06207
852.05        66.60703
852.46        66.36042
852.86        66.39542
853.27        66.60812
853.67        66.89365
854.07        67.28248
854.48         67.6943
854.88        68.23447
855.29        68.65048
855.69        68.70646
856.10        68.24373
856.50         67.4213
856.90        66.54572
857.31        66.08311
857.71        66.13011
858.12        66.50974
858.52        67.07999
858.92        67.36796
859.33        67.20827
859.73        66.79411
860.13        66.20991
860.54        65.61164
860.94        65.08254
861.34        64.56597
861.75        64.16616
862.15        64.11331
862.55        64.42217
862.96        65.02148
863.36        65.72353
863.76        66.12277
864.17        66.12081
864.57        65.84358
864.97        65.46141
865.38        65.28165
865.78        65.41101
866.18        65.70297
866.58        66.07407
866.99        66.37798
867.39        66.56865
867.79        66.70959
868.19        66.68926
868.60        66.29625
869.00         65.5321
869.40        64.45688
869.80         63.4307
870.21        63.12793
870.61        63.74077
871.01        64.97118
871.41        66.30656
871.81        66.96635
872.22        66.76127
872.62        65.96074
873.02        64.82928
873.42        63.81198
873.82        63.13121
874.22        62.69157
874.63        62.57577
875.03        62.91573
875.43        63.67287
875.83        64.77537
876.23         66.0125
876.63        67.03151
877.03        67.70007
877.44        68.05262
877.84        68.09052
878.24        67.81033
878.64        67.27808
879.04        66.52654
879.44        65.76693
879.84        65.31524
880.24        65.23247
880.64        65.45107
881.04        65.81039
881.44        66.01388
881.84        65.98092
882.24        65.80901
882.65        65.53822
883.05        65.35594
883.45        65.28978
883.85         65.2681
884.25        65.34982
884.65        65.63781
885.05        66.12852
885.45        66.80808
885.85        67.48096
886.25        67.79951
886.65        67.67596
887.05        67.18978
887.45        66.61089
887.85        66.37521
888.25        66.58362
888.65        67.11802
889.04        67.70387
889.44        67.86774
889.84        67.51891
890.24        66.81311
890.64        66.05765
891.04        65.68385
891.44        65.79253
891.84        66.28329
892.24        66.86969
892.64        67.06913
893.04        66.77299
893.44         66.1246
893.83        65.51071
894.23        65.53294
894.63        66.26591
895.03        67.50693
895.43        68.77638
895.83        69.21353
896.23        68.61636
896.63        67.34118
897.02        65.85052
897.42        64.89008
897.82        64.57902
898.22        64.73537
898.62         65.2039
899.01        65.74493
899.41        66.19196
899.81         66.6414
900.21        67.11272
900.61        67.62045
901.00        68.13993
901.40          68.582
901.80         68.8558
902.20        68.86543
902.59        68.61541
902.99        68.16089
903.39        67.63232
903.79        67.23111
904.18        67.01041
904.58        66.94743
904.98        66.98451
905.38         67.0284
905.77        67.04789
906.17        67.10888
906.57        67.16695
906.96        67.16232
907.36        67.07696
907.76        66.91357
908.15        66.83056
908.55        67.04745
908.95        67.60228
909.34        68.42394
909.74        69.21208
910.14        69.56033
910.53        69.35519
910.93        68.70911
911.33        67.88917
911.72        67.31621
912.12        67.13137
912.52        67.23417
912.91         67.3979
913.31        67.23599
913.70        66.69124
914.10        65.92825
914.49        65.25803
914.89        65.12762
915.29        65.62471
915.68        66.56635
916.08        67.67027
916.47        68.48193
916.87        68.83612
917.26        68.86443
917.66        68.67397
918.05         68.4363
918.45        68.22026
918.84        67.99735
919.24        67.81321
919.64        67.83205
920.03         68.0922
920.42        68.54791
920.82        69.05891
921.21        69.42235
921.61        69.55306
922.00        69.49667
922.40        69.30584
922.79        69.16238
923.19        69.10207
923.58        69.07426
923.98        68.98632
924.37        68.65182
924.77        68.08795
925.16        67.36842
925.55        66.67707
925.95        66.29092
926.34        66.32291
926.74        66.66048
927.13        67.25568
927.52        67.92575
927.92        68.56762
928.31        69.21571
928.70        69.77934
929.10        70.14537
929.49        70.30161
929.89        70.23853
930.28        70.03044
930.67        69.78652
931.07        69.53777
931.46        69.25273
931.85        68.96793
932.24        68.73566
932.64         68.5668
933.03        68.53011
933.42        68.46005
933.82         68.0993
934.21         67.4358
934.60        66.53736
934.99        65.77878
935.39        65.70664
935.78        66.43801
936.17        67.83495
936.56        69.36523
936.96        70.03602
937.35        69.60855
937.74        68.35035
938.13        66.89858
938.53        66.11249
938.92        66.13474
939.31         66.7486
939.70        67.58127
940.09        67.95701
940.49        67.67908
940.88        67.00641
941.27        66.26344
941.66        65.92139
942.05        66.09625
942.44        66.62096
942.84        67.27573
943.23        67.75103
943.62         67.8858
944.01        67.81924
944.40        67.65862
944.79        67.56697
945.18        67.60433
945.57        67.67709
945.97        67.81134
946.36        68.16365
946.75        68.69503
947.14        69.38381
947.53        70.00468
947.92         70.1441
948.31        69.72099
948.70        68.88599
949.09        67.95885
949.48        67.42049
949.87         67.4041
950.26        67.79487
950.65        68.41975
951.04        68.96233
951.43         69.2758
951.82        69.39725
952.21        69.41039
952.60        69.45673
952.99        69.54507
953.38        69.60629
953.77        69.46162
954.16        68.82907
954.55        67.73235
954.94        66.39336
955.33        65.12582
955.72        64.37467
956.11         64.2449
956.50        64.55699
956.89        65.23125
957.28        66.13595
957.66        67.19017
958.05        68.30677
958.44        69.15106
958.83        69.08616
959.22         68.0389
959.61        66.28069
960.00         64.4153
960.39        63.29719
960.78        63.12135
961.16        63.70376
961.55        64.72024
961.94        65.70325
962.33        66.44103
962.72         67.0497
963.11        67.49597
963.49        67.73672
963.88        67.71807
964.27         67.4255
964.66        66.95472
965.04        66.47964
965.43        66.04002
965.82        65.62029
966.21        65.23237
966.60        64.87374
966.98        64.58498
967.37         64.4106
967.76        64.34163
968.15        64.31901
968.53        64.32951
968.92        64.33455
969.31        64.43373
969.69        64.81414
970.08        65.44212
970.47        66.24316
970.86         66.9248
971.24         66.9924
971.63        66.28204
972.02        65.00905
972.40        63.52783
972.79        62.40158
973.17        61.81612
973.56        61.63928
973.95        61.72274
974.33        61.81842
974.72         61.7966
975.11        61.71219
975.49        61.73577
975.88         62.1472
976.26        63.04293
976.65        64.23033
977.04        65.28814
977.42        65.55091
977.81        64.88625
978.19        63.47007
978.58        62.15109
978.96        61.98306
979.35        63.15632
979.74        65.45126
980.12        68.19623
980.51        69.47571
980.89        68.88432
981.28        66.84601
981.66         64.3805
982.05         63.2225
982.43        63.78575
982.82        65.53941
983.20        67.94572
983.59        69.90173
983.97        71.07043
984.35        71.69361
984.74         71.7268
985.12        71.23523
985.51        70.31412
985.89        68.93445
986.28        67.51433
986.66        66.58958
987.04        66.42141
987.43        66.87664
987.81        67.75277
988.20        68.46834
988.58        68.84846
988.96        68.87041
989.35        68.71755
989.73         68.6797
990.12        68.75925
990.50        68.91776
990.88        68.71909
991.27        67.51112
991.65        65.37587
992.03        62.67947
992.42        60.22625
992.80        58.97194
993.18        59.23655
993.56        60.64745
993.95         62.7082
994.33        64.81468
994.71        66.42199
995.10        67.66367
995.48        68.22076
995.86        67.62743
996.24        65.97118
996.63        63.46299
997.01        60.84734
997.39        59.20788
997.77        58.79809
998.15        59.41253
998.54        60.67787
998.92        61.81479
999.30        62.51736
999.68        62.97343
1000.06        63.31105
1000.45        63.73887
1000.83        64.42198
1001.21        65.09659
1001.59        65.62698
1001.97        65.88334
1002.35        65.80698
1002.73        65.47415
1003.12        64.95567
1003.50        64.28295
1003.88        63.58469
1004.26        62.96775
1004.64        62.48123
1005.02        62.14577
1005.40        61.99733
1005.78        62.04123
1006.16        62.41825
1006.54        63.34849
1006.92        64.75563
1007.30        66.39925
1007.69        67.85445
1008.07        68.72184
1008.45        68.75937
1008.83         68.1262
1009.21        66.86526
1009.59         65.0772
1009.97        62.96093
1010.35        60.61332
1010.73        58.59031
1011.11        57.78933
1011.49        58.55579
1011.86        61.02046
1012.24        64.45119
1012.62        67.73907
1013.00         70.3322
1013.38        72.11754
1013.76         73.6619
1014.14        76.23751
1014.52        79.99934
1014.90        84.44426
1015.28        87.67515
1015.66        86.57335
1016.04        81.24409
1016.41        73.78019
1016.79        66.89091
1017.17        62.78416
1017.55        61.43464
1017.93        62.09832
1018.31        64.35607
1018.69        66.38913
1019.06        66.89736
1019.44        66.63157
1019.82        65.80336
1020.20        64.44006
1020.58        62.57082
1020.95        59.76375
1021.33        56.71301
1021.71        55.46079
1022.09        57.07684
1022.46        61.04399
1022.84        65.74396
1023.22        68.98965
1023.60        70.17245
1023.97        69.88719
1024.35        68.30093
1024.73        65.90372
