SpectraSmart Spectrum 2.9.0.0
--------- Device Information -----------
Spectrum Name :  反射率_0
Saving Time :  2024/05/01 16:53:56
Spectro-Module Model Name : SE2030-DUVN
Spectro-Module Serial Number : OS361AC55029948
Wavelength Start : 200
Wavelength End : 1025
Wavelength Unit : Wavelength(nm)
Spectrum Unit : Reflectance(%)
-----------Spectrum Setting ------------
Integration Time : 20ms
Average : 10
Boxcar : 0
Background removal :  enabled
linearity correction :  enabled
SC :  disabled
Intensity correction :  disabled
DWT denoise :  enabled
savitzky-golay :  disabled
FFT :  disabled
Running average :  disabled
Kalman :  disabled
High pass :  disabled
---------------BEGIN--------------------
Wavelength(nm)             Reflectance(%)
200.29               0
200.75        396.8695
201.21        1405.127
201.67       -517.2579
202.13       -183.7202
202.58       -91.17966
203.04       -43.27917
203.50       -16.94372
203.96       -8.163734
204.42       -15.32551
204.88       -59.46251
205.34       -1312.971
205.80        218.3078
206.26        157.1913
206.72        163.0922
207.18        315.6363
207.64       -188.1234
208.10       -31.47824
208.55      -0.4456454
209.01        8.607615
209.47         8.20433
209.93        1.886626
210.39       -9.859729
210.85       -27.65152
211.31        -59.1278
211.77       -160.6035
212.23        621.6243
212.69         150.362
213.14        134.5699
213.60         225.729
214.06       -936.1796
214.52       -140.0242
214.98       -90.56396
215.44       -84.61444
215.90       -111.2719
216.36       -649.5365
216.81        196.8411
217.27        276.3778
217.73       -743.8551
218.19       -197.0114
218.65       -158.7921
219.11       -174.7397
219.57       -261.4235
220.02       -566.7452
220.48       -216.4587
220.94        -55.0942
221.40       -21.38268
221.86       -10.97803
222.32       -6.451818
222.77        -3.20218
223.23      -0.1932627
223.69        3.312571
224.15        6.392206
224.61        7.651398
225.06        7.593913
225.52         7.53831
225.98        8.372111
226.44        10.21178
226.90        13.04851
227.36        16.30255
227.81         17.2679
228.27        15.21612
228.73        12.24412
229.19        9.753559
229.65        8.184138
230.10        7.368454
230.56         7.33658
231.02        8.346347
231.48         10.7527
231.93        13.91061
232.39        16.89418
232.85        19.58847
233.31        22.21736
233.77        24.74397
234.22        27.17976
234.68        28.84379
235.14        29.02535
235.60         27.6085
236.05        24.29384
236.51        19.67365
236.97        17.13792
237.43        19.38166
237.88        26.01907
238.34        33.28982
238.80         36.2842
239.26        33.39564
239.71        23.93963
240.17        5.667773
240.63       -17.12364
241.08       -32.61575
241.54       -36.45847
242.00       -31.80263
242.46       -23.80203
242.91       -12.28454
243.37        7.350221
243.83        42.23589
244.28        80.55462
244.74        91.64012
245.20        82.57106
245.66        68.87163
246.11        56.30249
246.57        42.61338
247.03        22.50691
247.48       -9.936448
247.94        -50.0771
248.40       -79.49443
248.85       -91.60831
249.31       -80.53388
249.77        -51.9677
250.22       -20.36641
250.68        7.105937
251.14        26.00124
251.59        34.73217
252.05        35.03241
252.51        25.08713
252.96       -7.467903
253.42       -64.63003
253.88       -76.72552
254.33       -36.32208
254.79        -4.46239
255.25        12.54708
255.70        22.39842
256.16        29.44384
256.62        34.94046
257.07        39.15402
257.53        42.40493
257.99        44.69537
258.44        46.00394
258.90        46.63446
259.35        46.55812
259.81        46.19143
260.27        45.61828
260.72        45.00428
261.18        44.63496
261.63        44.24612
262.09        43.93911
262.55        43.53391
263.00        42.93365
263.46        42.26485
263.91        41.48295
264.37        40.75849
264.83        40.06337
265.28        39.40125
265.74        38.70346
266.19        37.66331
266.65        36.38237
267.11        34.89965
267.56        33.58005
268.02         33.0724
268.47        33.41103
268.93        34.33278
269.38        35.30961
269.84        35.42641
270.30        34.50569
270.75        32.85632
271.21        30.95312
271.66        29.40283
272.12        28.45215
272.57        27.86017
273.03        27.56893
273.48        27.44648
273.94        27.41317
274.39        27.47928
274.85        27.52287
275.31        27.30626
275.76        26.80081
276.22        26.11682
276.67        25.35488
277.13        24.75308
277.58        24.31398
278.04        24.00214
278.49        23.75284
278.95        23.56601
279.40        23.37457
279.86        23.21356
280.31         23.0022
280.77         22.6958
281.22        22.26268
281.68        21.77938
282.13        21.25759
282.59        20.78323
283.04        20.36188
283.50        20.01255
283.95        19.75206
284.41          19.648
284.86        19.68061
285.32         19.8181
285.77        19.99978
286.22        20.16291
286.68        20.29109
287.13        20.39074
287.59        20.43382
288.04        20.34078
288.50        20.14382
288.95         19.8395
289.41        19.58647
289.86        19.55081
290.32         19.7672
290.77        20.17343
291.22        20.61065
291.68        20.82642
292.13        20.77796
292.59        20.57892
293.04        20.38301
293.50        20.47772
293.95        20.90923
294.40        21.58783
294.86        22.38069
295.31        23.09125
295.77        23.64707
296.22        24.10334
296.68        24.49929
297.13        24.88405
297.58        25.29301
298.04        25.72022
298.49        26.16353
298.95        26.66186
299.40        27.19596
299.85        27.74972
300.31         28.3258
300.76        28.92324
301.21        29.53634
301.67        30.17704
302.12        30.74952
302.58        31.13165
303.03        31.29468
303.48        31.30133
303.94        31.33006
304.39        31.58517
304.84        32.11887
305.30        32.84676
305.75         33.6014
306.20        34.13751
306.66        34.39689
307.11        34.43894
307.57        34.37717
308.02        34.32927
308.47        34.35027
308.93        34.40404
309.38        34.44429
309.83        34.45395
310.29        34.43123
310.74        34.39187
311.19        34.34099
311.65        34.26476
312.10        34.15916
312.55         34.0267
313.00        33.90081
313.46        33.83601
313.91        33.83162
314.36        33.86707
314.82        33.88454
315.27        33.80398
315.72        33.60126
316.18        33.30935
316.63        32.96831
317.08        32.64536
317.53        32.36118
317.99         32.1064
318.44        31.85867
318.89        31.59535
319.35        31.31693
319.80        31.03714
320.25        30.78586
320.70        30.60219
321.16        30.48156
321.61        30.40856
322.06        30.33965
322.51        30.21051
322.97        29.99719
323.42        29.73196
323.87        29.42693
324.32        29.11702
324.78        28.81643
325.23        28.52555
325.68        28.26291
326.13        28.06345
326.59        27.91933
327.04        27.83565
327.49        27.74827
327.94        27.55736
328.39        27.23733
328.85        26.80133
329.30        26.33403
329.75        25.95562
330.20        25.70646
330.66        25.55414
331.11         25.4457
331.56        25.25759
332.01        24.96169
332.46        24.60087
332.92        24.23617
333.37        23.99538
333.82        23.90162
334.27        23.91752
334.72         23.9904
335.17        24.03214
335.63        23.99731
336.08        23.91961
336.53        23.81423
336.98         23.7191
337.43        23.64604
337.88        23.58239
338.34        23.49965
338.79        23.37108
339.24        23.18917
339.69        22.96995
340.14        22.76654
340.59        22.65709
341.05        22.64718
341.50        22.71635
341.95        22.79461
342.40         22.7699
342.85        22.61911
343.30        22.38681
343.75        22.13232
344.20         21.9464
344.66        21.85897
345.11        21.83149
345.56        21.85656
346.01        21.91749
346.46        21.99409
346.91        22.08493
347.36        22.14936
347.81        22.12608
348.26        22.00774
348.72        21.82065
349.17        21.58743
349.62        21.38723
350.07        21.23866
350.52        21.11487
350.97        21.00676
351.42        20.89248
351.87        20.77157
352.32        20.67921
352.77        20.57672
353.22        20.40264
353.67        20.15556
354.13        19.84279
354.58        19.57703
355.03        19.56399
355.48        19.82306
355.93        20.29915
356.38        20.75915
356.83        20.81248
357.28        20.39329
357.73        19.64523
358.18        18.87318
358.63        18.52895
359.08        18.69965
359.53        19.23235
359.98        19.89525
360.43        20.28982
360.88        20.29001
361.33        20.03209
361.78        19.63872
362.23        19.28841
362.68        19.04361
363.13        18.83379
363.58        18.66941
364.03        18.58285
364.48        18.56351
364.93        18.61242
365.38        18.65656
365.83        18.56651
366.28        18.32091
366.73        17.96197
367.18        17.56227
367.63         17.2507
368.08        17.07153
368.53        16.98668
368.98        16.97007
369.43        16.97999
369.88        16.98928
370.33        17.00272
370.78         16.9926
371.23         16.9112
371.68        16.74943
372.13        16.52142
372.58        16.25355
373.03        15.98631
373.48        15.73848
373.93        15.51071
374.38        15.32074
374.83        15.19435
375.28        15.13538
375.72        15.13285
376.17        15.16353
376.62         15.1894
377.07        15.19055
377.52        15.16469
377.97        15.10278
378.42        14.99618
378.87        14.84927
379.32        14.67226
379.77        14.47855
380.22        14.28742
380.67        14.11102
381.11        13.95408
381.56        13.83336
382.01        13.77704
382.46        13.78777
382.91        13.85448
383.36        13.94177
383.81        13.99645
384.26        13.99935
384.71        13.95347
385.15        13.87633
385.60        13.81546
386.05        13.77796
386.50        13.76058
386.95        13.73173
387.40        13.64378
387.85        13.49904
388.29        13.30785
388.74        13.16032
389.19        13.13417
389.64        13.23382
390.09        13.41805
390.54        13.60773
390.98        13.67555
391.43        13.59627
391.88        13.42402
392.33        13.21341
392.78        13.04683
393.23        12.94864
393.67        12.87058
394.12        12.83011
394.57        12.86353
395.02        12.94537
395.47        12.98856
395.91        12.98578
396.36        12.98921
396.81        13.00303
397.26        12.98516
397.71        12.94249
398.15        12.92077
398.60        12.93937
399.05        12.92704
399.50        12.89936
399.95        12.97485
400.39        13.11119
400.84        13.07689
401.29        12.87983
401.74        12.74322
402.18        12.68632
402.63        12.57906
403.08        12.45376
403.53        12.41844
403.97        12.47761
404.42        12.59812
404.87        12.72685
405.32        12.77762
405.76        12.72782
406.21        12.61213
406.66        12.47318
407.11        12.38068
407.55        12.35942
408.00        12.38945
408.45        12.44955
408.90        12.48458
409.34        12.48416
409.79        12.48909
410.24        12.50393
410.68        12.50377
411.13        12.49212
411.58        12.48413
412.03        12.46805
412.47        12.42023
412.92        12.34085
413.37        12.24208
413.81        12.15607
414.26        12.14057
414.71        12.19788
415.15        12.31587
415.60        12.44028
416.05        12.49358
416.49        12.45436
416.94        12.34653
417.39        12.21654
417.83           12.14
418.28         12.1374
418.73        12.18267
419.17        12.24761
419.62        12.27884
420.07        12.26731
420.51        12.23358
420.96        12.19874
421.41        12.17261
421.85        12.15729
422.30        12.14845
422.74        12.15907
423.19        12.22272
423.64        12.33618
424.08        12.49659
424.53        12.63917
424.98        12.67221
425.42        12.57825
425.87        12.39294
426.31        12.18614
426.76        12.07885
427.21        12.09607
427.65        12.20106
428.10        12.36086
428.54        12.51551
428.99        12.63802
429.44        12.76284
429.88        12.84939
430.33        12.83939
430.77        12.73713
431.22        12.57636
431.66        12.42125
432.11        12.40468
432.56        12.50214
433.00         12.6127
433.45        12.63967
433.89        12.46857
434.34        12.09216
434.78        12.12711
435.23        12.61477
435.67        12.80545
436.12        12.69349
436.57        12.66679
437.01        12.74549
437.46        12.75729
437.90        12.70088
438.35        12.64134
438.79        12.59236
439.24        12.54499
439.68        12.52649
440.13        12.62408
440.57        12.78225
441.02        12.85189
441.46        12.81603
441.91        12.66747
442.35        12.47554
442.80        12.55336
443.24        12.81067
443.69         12.7362
444.13        12.38775
444.58         12.2871
445.02        12.44335
445.47        12.57949
445.91        12.65647
446.36        12.74443
446.80        12.82878
447.24        12.88736
447.69        12.92378
448.13         12.9484
448.58        12.96442
449.02        12.96633
449.47        12.96014
449.91        12.94528
450.36        12.92742
450.80        12.90796
451.25        12.88404
451.69        12.83951
452.13        12.77663
452.58        12.70554
453.02         12.6396
453.47         12.6089
453.91        12.61673
454.36        12.65568
454.80        12.70735
455.24        12.73878
455.69        12.74281
456.13        12.71903
456.58        12.68977
457.02        12.67189
457.46        12.67386
457.91        12.69013
458.35        12.70008
458.79        12.65236
459.24        12.55196
459.68        12.45082
460.13        12.40385
460.57        12.23852
461.01        12.32006
461.46        12.36024
461.90        12.44718
462.34        12.49375
462.79         12.5551
463.23        12.58075
463.68        12.59227
464.12        12.59449
464.56        12.59274
465.01        12.60275
465.45        12.59848
465.89        12.56017
466.34        12.49267
466.78        12.39861
467.22        12.31217
467.67        12.31309
468.11        12.36106
468.55        12.48213
468.99        12.61897
469.44        12.70745
469.88        12.73329
470.32        12.70828
470.77        12.66056
471.21        12.63382
471.65        12.64149
472.10        12.67148
472.54        12.70042
472.98        12.70067
473.42        12.66927
473.87        12.62709
474.31        12.58573
474.75        12.57493
475.20        12.60354
475.64         12.6499
476.08         12.7041
476.52        12.78345
476.97        12.88764
477.41        12.95372
477.85        12.94231
478.29        13.15749
478.74        13.03279
479.18        13.00855
479.62        12.95508
480.06        13.01502
480.50         13.2006
480.95        13.22269
481.39        13.48925
481.83        13.55957
482.27        13.56323
482.72        13.52821
483.16        13.47318
483.60        13.46084
484.04        13.49972
484.48        13.49064
484.93        13.53403
485.37        13.81438
485.81        14.16454
486.25        14.49274
486.69        13.86832
487.14        13.53379
487.58        14.02436
488.02        14.50389
488.46        14.18579
488.90        14.48984
489.34        14.42634
489.79        14.36583
490.23        14.68895
490.67        14.95008
491.11        15.25757
491.55        15.33029
491.99        15.21404
492.43        15.22557
492.88        15.38049
493.32        15.46591
493.76        15.48814
494.20        15.58199
494.64        15.75905
495.08        15.96619
495.52        16.16674
495.96        16.36215
496.41        16.52326
496.85        16.51748
497.29          16.421
497.73          16.573
498.17        16.94284
498.61        17.12422
499.05        17.10509
499.49        17.19391
499.93        17.39318
500.37        17.51805
500.82        17.57601
501.26        17.66565
501.70         17.7935
502.14        17.93128
502.58        18.05646
503.02        18.13508
503.46        18.16435
503.90        18.16337
504.34        18.16574
504.78        18.22206
505.22        18.34311
505.66        18.50896
506.10        18.69043
506.54        18.83838
506.98        18.93496
507.42        18.99553
507.86        19.02382
508.30        19.02601
508.74        19.01222
509.18         18.9832
509.62        18.96314
510.06        18.99321
510.50        19.08083
510.94        19.21324
511.38        19.36226
511.82        19.48006
512.26        19.54942
512.70        19.57933
513.14        19.57849
513.58        19.56358
514.02         19.5436
514.46        19.51695
514.90        19.48593
515.34        19.45493
515.78        19.42857
516.22        19.41102
516.66        19.41174
517.10        19.44189
517.54        19.50018
517.98        19.57924
518.42        19.66055
518.86        19.71435
519.30        19.73117
519.74        19.71701
520.18        19.68204
520.62        19.64488
521.06        19.61172
521.50        19.57681
521.93        19.54099
522.37        19.50089
522.81        19.45866
523.25        19.41967
523.69        19.38038
524.13        19.33219
524.57         19.2765
525.01        19.21757
525.45        19.16663
525.89        19.14217
526.32          19.145
526.76        19.16236
527.20        19.18314
527.64        19.18945
528.08        19.17465
528.52        19.14739
528.96        19.09961
529.40        19.01908
529.83        18.90782
530.27        18.77611
530.71        18.65571
531.15        18.60181
531.59        18.62168
532.03        18.69502
532.46        18.77632
532.90        18.79442
533.34        18.73415
533.78        18.60725
534.22        18.44745
534.66        18.33772
535.09        18.27602
535.53        18.18157
535.97        18.06852
536.41        18.02531
536.85         18.0543
537.28        18.11352
537.72        18.17349
538.16        18.20372
538.60         18.1946
539.04        18.15524
539.47        18.11275
539.91        18.12177
540.35        18.18847
540.79        18.30355
541.22        18.44309
541.66           18.54
542.10        18.63109
542.54        18.69294
542.97         18.7528
543.41        18.84276
543.85        18.96562
544.29        19.10912
544.72        19.26352
545.16        19.42414
545.60        19.58411
546.04        19.74537
546.47        19.90111
546.91        20.04273
547.35        20.16994
547.79        20.28118
548.22        20.37593
548.66        20.49841
549.10        20.65584
549.53        20.74345
549.97        20.94821
550.41        21.14019
550.84        21.36773
551.28          21.627
551.72        21.88807
552.15        22.08019
552.59        22.20288
553.03        22.30214
553.46        22.39198
553.90        22.50962
554.34        22.66517
554.77        22.81176
555.21        22.91778
555.65        23.18213
556.08        23.16034
556.52        23.22771
556.96         23.2675
557.39        23.32547
557.83        23.41565
558.27        23.49451
558.70         23.5614
559.14        23.73062
559.57         23.7862
560.01        23.93661
560.45        24.07457
560.88        24.11178
561.32        24.09571
561.75        24.05241
562.19        24.04554
562.63        24.27693
563.06        24.64259
563.50        24.62538
563.93         24.2969
564.37        24.24916
564.80        24.49295
565.24        24.70682
565.68        24.84104
566.11        24.97048
566.55        25.09008
566.98        25.16836
567.42        25.24238
567.85        25.35069
568.29           25.51
568.72         25.6953
569.16        25.90671
569.60        26.05188
570.03        26.10075
570.47        26.19064
570.90        26.42113
571.34        26.19149
571.77        26.51782
572.21        26.64581
572.64        26.85765
573.08         26.8864
573.51        27.30224
573.95        27.38169
574.38        27.15877
574.82        27.54208
575.25         27.6015
575.69        27.71946
576.12        27.64639
576.56        27.64806
576.99        28.07722
577.42           27.67
577.86        27.64738
578.29        27.58267
578.73         27.9462
579.16        27.56405
579.60        27.40574
580.03         27.2253
580.47        27.46294
580.90        26.97871
581.33        27.23311
581.77        27.68391
582.20        27.15996
582.64        26.98871
583.07        26.87695
583.51        26.68297
583.94        26.53422
584.37        26.50695
584.81        26.58401
585.24        26.44738
585.68        26.16198
586.11        26.00166
586.54        25.96256
586.98        25.82843
587.41        25.93765
587.85        26.02706
588.28        25.79459
588.71        25.30968
589.15        25.79157
589.58        25.44108
590.01         25.5182
590.45        25.52951
590.88        25.68555
591.31        25.68113
591.75        25.54895
592.18        25.40146
592.61        25.20491
593.05        25.80715
593.48        25.49866
593.91        25.63818
594.35        25.65892
594.78        25.72964
595.21        25.82362
595.65          25.981
596.08        26.17753
596.51        26.34731
596.94         26.4255
597.38        26.63919
597.81        26.98765
598.24        27.07231
598.68        27.58752
599.11        27.67321
599.54        28.23327
599.97        28.28836
600.41        28.45084
600.84        28.97536
601.27        29.18949
601.70        29.78391
602.14        30.26123
602.57        30.63428
603.00         30.8339
603.43          30.975
603.87        31.34527
604.30        31.63682
604.73        31.96997
605.16        32.37107
605.60         32.8154
606.03        33.37674
606.46        33.90973
606.89        34.16998
607.32        34.28877
607.76        34.53974
608.19        34.98761
608.62        35.44615
609.05        35.83445
609.48        36.31147
609.92        36.36906
610.35        36.52641
610.78         37.2916
611.21        37.60904
611.64        37.66385
612.07        38.09099
612.50        38.31768
612.94        38.53569
613.37        38.59645
613.80        38.76052
614.23        38.86134
614.66        39.30239
615.09        39.41167
615.52        39.74405
615.96        40.05579
616.39        40.43219
616.82        40.44669
617.25        40.72146
617.68        41.09263
618.11        41.23474
618.54        41.17192
618.97         41.2202
619.40        41.43299
619.84        41.59786
620.27         41.7063
620.70        42.03651
621.13        42.53998
621.56        42.38587
621.99        42.20536
622.42        42.48373
622.85        42.50085
623.28        42.61707
623.71        42.50566
624.14         42.6437
624.57        42.68845
625.00        42.82749
625.43        42.90165
625.86        42.76462
626.29        42.46718
626.72        42.09726
627.15        42.10201
627.58        41.91802
628.01        41.66353
628.44        41.61047
628.87        41.51204
629.30        41.31462
629.73        40.97166
630.16        40.74728
630.59         40.5053
631.02        40.25828
631.45        39.96286
631.88          39.655
632.31        39.33482
632.74        38.99723
633.17        38.65187
633.60        38.30725
634.03        37.96492
634.46        37.62428
634.89        37.27584
635.32         36.9052
635.75        36.51205
636.18        36.10348
636.61         35.6925
637.04        35.29706
637.47         34.9248
637.89        34.56794
638.32        34.20525
638.75        33.85805
639.18        33.53641
639.61          33.105
640.04        32.83698
640.47        32.56474
640.90        32.36578
641.33        32.21656
641.76        32.08537
642.18        31.96462
642.61        31.84524
643.04        31.66663
643.47        31.42122
643.90         31.5407
644.33        31.35441
644.76        31.35221
645.18        31.35453
645.61        31.51843
646.04        31.78991
646.47        31.91601
646.90        31.91409
647.33        32.02789
647.75        32.26743
648.18        32.47883
648.61        32.67654
649.04        32.93399
649.47        33.25791
649.89        33.70616
650.32        34.20934
650.75        34.52598
651.18        34.69781
651.61        35.05293
652.03        35.63637
652.46        36.19577
652.89        36.67884
653.32        37.16958
653.74        37.72298
654.17        37.88543
654.60        38.45244
655.03        38.72976
655.46        38.97858
655.88        39.71231
656.31        44.37684
656.74        43.34507
657.16         39.8321
657.59        39.72532
658.02        41.69694
658.45        41.94583
658.87        42.26408
659.30        42.26848
659.73        42.56789
660.15        43.68274
660.58        43.89647
661.01        44.00628
661.44        43.70278
661.86        43.88879
662.29        44.56095
662.72        44.95539
663.14        45.07001
663.57        45.36893
664.00        45.81541
664.42        46.07338
664.85        46.13556
665.27          46.114
665.70        46.08587
666.13         46.1496
666.55        46.34417
666.98        46.62952
667.41         46.9614
667.83        47.26604
668.26        47.49681
668.69        47.67581
669.11        47.82125
669.54        47.95182
669.96        48.06367
670.39        48.21415
670.82        48.25747
671.24        48.26206
671.67        48.23027
672.09        48.31988
672.52        48.51715
672.94        48.62913
673.37        48.65361
673.80        48.67867
674.22        48.73025
674.65        48.81889
675.07        48.94083
675.50        48.99314
675.92        49.00241
676.35        49.09304
676.77        49.27375
677.20        49.46725
677.62        49.64852
678.05        49.79409
678.47        49.89086
678.90        49.95242
679.32        49.98504
679.75        50.01715
680.17        50.05526
680.60        50.09566
681.02        50.15426
681.45        50.23885
681.87        50.35703
682.30        50.51592
682.72        50.69687
683.15        50.79177
683.57        50.81647
684.00         50.8915
684.42        51.01156
684.85        51.07909
685.27        51.08182
685.70        51.10166
686.12        51.14407
686.54        51.14521
686.97         51.1233
687.39        51.25712
687.82        51.47874
688.24         51.4586
688.66        51.24492
689.09        51.25021
689.51         51.5013
689.94        51.67381
690.36        51.76529
690.78        51.98293
691.21        52.31246
691.63        52.54364
692.06        52.70477
692.48        53.06225
692.90        53.51931
693.33        53.69872
693.75        53.57202
694.17        53.27318
694.60        52.95713
695.02        52.83879
695.44        52.91883
695.87        53.09032
696.29         53.2779
696.71        53.14176
697.14        52.93697
697.56        53.16729
697.98        53.77692
698.41        54.06232
698.83        53.98123
699.25        53.92881
699.68        53.94495
700.10        53.96643
700.52         54.0074
700.94        54.07138
701.37        54.12561
701.79        54.31733
702.21        54.56976
702.64        54.72631
703.06        54.77258
703.48        54.74788
703.90        54.64101
704.33        54.76926
704.75        54.48481
705.17        54.46728
705.59        54.53175
706.01         54.6609
706.44        54.83501
706.86        54.99104
707.28        55.09081
707.70        55.25617
708.12        55.49439
708.55        55.25109
708.97        55.37564
709.39        55.29065
709.81         55.2621
710.23        55.23838
710.66         55.2356
711.08        55.28754
711.50        55.37683
711.92        55.48975
712.34        55.61673
712.76        55.76244
713.19         55.8875
713.61        55.96515
714.03        55.97196
714.45           55.92
714.87        55.85757
715.29        55.86113
715.71        55.94777
716.13        56.09794
716.56        56.25224
716.98        56.37918
717.40        56.43267
717.82        56.42742
718.24        56.39897
718.66         56.4057
719.08        56.45997
719.50        56.54142
719.92        56.61033
720.34        56.60497
720.76        56.51623
721.19        56.37276
721.61         56.2259
722.03        56.14587
722.45        56.15923
722.87        56.25425
723.29        56.40123
723.71        56.54951
724.13        56.67329
724.55        56.76974
724.97        56.87494
725.39        57.01049
725.81        57.16802
726.23        57.40615
726.65        57.65478
727.07        57.41692
727.49        57.29961
727.91        56.86682
728.33        56.44857
728.75        56.26312
729.17        56.37156
729.59        56.67461
730.01        57.03969
730.43        57.31907
730.85        57.45942
731.27        57.26071
731.69        57.24165
732.10        57.09118
732.52        56.98288
732.94        56.86796
733.36        56.80868
733.78        56.87451
734.20        57.05693
734.62        57.43945
735.04        57.88326
735.46        57.90837
735.88        57.59199
736.30        57.57694
736.72        57.84954
737.13        57.89164
737.55         57.6777
737.97        57.51199
738.39        57.47127
738.81        57.60548
739.23        57.88499
739.65        58.10422
740.06        58.18042
740.48         58.2792
740.90        58.36428
741.32        58.33032
741.74        58.20562
742.16         58.0997
742.57         58.0358
742.99        58.04158
743.41        58.11448
743.83        58.07244
744.25        57.98394
744.67        58.24054
745.08         58.7368
745.50        58.87132
745.92        58.60126
746.34        58.21791
746.75        57.85183
747.17        57.62682
747.59        57.58467
748.01        57.71226
748.42        57.93618
748.84        58.08619
749.26        58.14285
749.68        58.16106
750.09        58.17521
750.51        58.30471
750.93        58.50182
751.35        58.52731
751.76        58.40535
752.18        58.37416
752.60        58.45165
753.01        58.52627
753.43        58.58662
753.85        58.63162
754.27        58.80748
754.68        58.96216
755.10         59.1219
755.52        59.26483
755.93        59.36221
756.35        59.39541
756.77        59.39524
757.18        59.33278
757.60        59.21378
758.02        59.30614
758.43        59.47681
758.85        59.02214
759.26        58.19695
759.68        58.28382
760.10          59.186
760.51        59.70258
760.93        59.47842
761.34        59.35346
761.76        59.34245
762.18        59.05552
762.59        58.70378
763.01        58.94176
763.42        59.69847
763.84        59.98862
764.26        59.76622
764.67        59.32415
765.09        58.91615
765.50         59.0478
765.92        59.61374
766.33        59.54169
766.75        59.07997
767.16        58.94492
767.58        59.25142
768.00        59.43839
768.41        59.56054
768.83        60.00042
769.24        60.65812
769.66         61.1779
770.07        61.41688
770.49        61.24504
770.90        60.76586
771.32        60.42572
771.73        60.30653
772.15        60.11718
772.56        59.90791
772.97        59.92112
773.39        60.10104
773.80        60.31049
774.22        60.44499
774.63        60.43038
775.05        60.29577
775.46        60.31255
775.88        60.48395
776.29           60.68
776.70        60.83643
777.12        60.93776
777.53        60.97422
777.95        60.92338
778.36        60.82008
778.77        60.70014
779.19         60.5952
779.60        60.51659
780.02         60.4252
780.43        60.34621
780.84        60.31543
781.26        60.04599
781.67        59.66681
782.09         60.0999
782.50         61.1304
782.91        60.76747
783.33         60.2219
783.74        60.03157
784.15        60.58747
784.57        61.01396
784.98        61.28934
785.39        61.67101
785.81        62.10633
786.22        62.45681
786.63        62.94821
787.04        62.78548
787.46        62.23653
787.87        62.00404
788.28         62.1548
788.70         62.1657
789.11        62.02418
789.52        62.16807
789.93        62.49043
790.35        62.46172
790.76        62.12807
791.17        61.93844
791.58        61.95094
792.00        61.91568
792.41        61.85195
792.82        61.94996
793.23        62.13518
793.65        62.13958
794.06        61.97231
794.47        61.80238
794.88        61.69643
795.29        61.66283
795.71        61.66273
796.12        61.79187
796.53        61.97274
796.94        62.03942
797.35        61.94565
797.76        61.75846
798.18        61.57008
798.59        61.48743
799.00        61.55111
799.41        61.71522
799.82        61.94636
800.23        62.19258
800.64        62.41982
801.06        62.61858
801.47        62.78282
801.88        62.81936
802.29         62.7192
802.70        62.50281
803.11        62.25089
803.52        62.09976
803.93        62.09413
804.34        62.20161
804.75        62.37338
805.17        62.55355
805.58        62.74977
805.99        62.80239
806.40        62.72792
806.81        62.92499
807.22        63.23174
807.63         62.8034
808.04        61.83649
808.45        61.43562
808.86         61.7115
809.27        62.07946
809.68        62.41361
810.09        62.73921
810.50        62.98223
810.91         63.1471
811.32        63.19489
811.73        63.06458
812.14        62.77334
812.55         62.3395
812.96        61.93887
813.37        61.87655
813.78        62.21218
814.19        62.84712
814.60        63.56031
815.01        64.00773
815.42        64.09628
815.83         63.9115
816.24        63.55699
816.65         63.2465
817.05        63.08155
817.46        62.98487
817.87        62.94724
818.28        62.91657
818.69        62.86988
819.10        62.83222
819.51        62.82408
819.92        62.86185
820.33        62.94142
820.74        63.04672
821.14        63.11235
821.55        63.07345
821.96        62.91516
822.37        62.67485
822.78        62.44714
823.19        62.39816
823.60        62.58181
824.00        62.96891
824.41        63.44249
824.82        63.90016
825.23        64.27334
825.64        64.55431
826.04        64.75378
826.45        64.83252
826.86        64.81191
827.27         64.7056
827.68        64.47022
828.08        64.06098
828.49        63.47517
828.90         62.7695
829.31        62.14609
829.72        61.90558
830.12        62.13786
830.53        62.74074
830.94         63.4613
831.35        63.79197
831.75        63.60495
832.16        62.99756
832.57         62.3209
832.97        62.10884
833.38        62.46321
833.79        63.21049
834.20        64.04765
834.60        64.46236
835.01        64.29189
835.42        63.73792
835.82        63.03867
836.23        62.54652
836.64        62.37814
837.04        62.42991
837.45         62.6141
837.86        62.84702
838.26          63.076
838.67        63.29208
839.08        63.46162
839.48        63.49312
839.89        63.36703
840.29        63.12297
840.70        62.80437
841.11        62.45549
841.51        62.12906
841.92        61.79442
842.33         61.5895
842.73        61.73616
843.14        62.21126
843.54        62.99604
843.95        63.80117
844.35        64.19342
844.76        64.03352
845.17        63.43582
845.57        62.70182
845.98        62.30688
846.38         62.3898
846.79         62.8059
847.19         63.3203
847.60        63.45538
848.00         63.1125
848.41        62.44431
848.81        61.73306
849.22        61.37309
849.62        61.47551
850.03        61.88615
850.43        62.41569
850.84        62.62302
851.24        62.44203
851.65          61.987
852.05        61.49659
852.46        61.32837
852.86        61.54848
853.27        62.00256
853.67        62.51574
854.07        63.01761
854.48        63.41304
854.88        63.83183
855.29        64.04089
855.69        63.84016
856.10        63.13024
856.50        62.08056
856.90        61.04804
857.31        60.55696
857.71        60.70045
858.12        61.28029
858.52        62.10492
858.92        62.60515
859.33        62.56773
859.73        62.21264
860.13        61.59246
860.54         60.8223
860.94        60.00035
861.34        59.07687
861.75         58.3065
862.15        58.17069
862.55        58.73475
862.96         59.8541
863.36        61.12645
863.76        61.79412
864.17        61.66802
864.57        60.96918
864.97        60.05439
865.38        59.53791
865.78        59.62301
866.18        60.09664
866.58        60.74911
866.99        61.20772
867.39        61.35072
867.79        61.30787
868.19        61.12244
868.60        60.80679
869.00        60.40255
869.40         59.9096
869.80        59.47317
870.21        59.37897
870.61        59.73215
871.01        60.38051
871.41        61.11946
871.81        61.63814
872.22         61.8299
872.62        61.77211
873.02        61.48982
873.42        61.03179
873.82        60.47933
874.22        59.87757
874.63        59.33783
875.03        59.03504
875.43        59.01812
875.83        59.23054
876.23        59.67474
876.63        60.33809
877.03        61.14783
877.44        62.04789
877.84        62.81767
878.24         63.0517
878.64        62.68549
879.04        61.86627
879.44        60.89128
879.84        60.22293
880.24        59.98671
880.64        60.05513
881.04        60.33178
881.44        60.63942
881.84        60.90552
882.24        61.20963
882.65        61.45086
883.05        61.53117
883.45        61.40396
883.85        61.08368
884.25        60.77327
884.65        60.79512
885.05        61.20139
885.45        61.90507
885.85        62.67303
886.25        63.09148
886.65        63.03901
887.05        62.63145
887.45        62.09594
887.85        61.79233
888.25        61.81806
888.65        62.06662
889.04        62.36559
889.44        62.41717
889.84         62.1596
890.24         61.6885
890.64        61.18531
891.04         60.8919
891.44        60.87055
891.84        61.08332
892.24         61.3364
892.64        61.31012
893.04           60.95
893.44        60.34771
893.83        59.84006
894.23        59.94836
894.63        60.72956
895.03        62.02254
895.43        63.35226
895.83        63.85634
896.23        63.33331
896.63        62.11559
897.02        60.70566
897.42        59.91298
897.82        59.85443
898.22        60.31393
898.62        61.04469
899.01        61.64273
899.41        61.90547
899.81        61.99069
900.21        62.00041
900.61        62.09499
901.00        62.32075
901.40        62.56736
901.80        62.77467
902.20        62.87864
902.59         62.8712
902.99        62.80299
903.39        62.69691
903.79        62.57389
904.18        62.43784
904.58        62.28738
904.98        62.17959
905.38         62.2147
905.77        62.39443
906.17        62.71962
906.57        63.01065
906.96        62.98704
907.36        62.58862
907.76        61.90636
908.15        61.24492
908.55        61.05524
908.95        61.44608
909.34        62.28329
909.74         63.1922
910.14        63.63239
910.53        63.44889
910.93        62.81072
911.33        62.00187
911.72        61.46432
912.12        61.35112
912.52        61.53022
912.91        61.80448
913.31        61.85457
913.70        61.60664
914.10        61.17895
914.49        60.78704
914.89        60.73067
915.29         61.0712
915.68        61.68904
916.08        62.36415
916.47        62.74822
916.87        62.74748
917.26        62.49055
917.66        62.14414
918.05         61.9627
918.45         62.0125
918.84        62.23263
919.24        62.56377
919.64        62.96125
920.03        63.38284
920.42        63.81839
920.82        64.18453
921.21        64.38789
921.61        64.38051
922.00         64.1712
922.40        63.82064
922.79        63.52124
923.19        63.32446
923.58        63.21117
923.98        63.06868
924.37        62.67311
924.77        62.03202
925.16        61.22475
925.55        60.47723
925.95         60.1461
926.34        60.34897
926.74         60.9415
927.13        61.79444
927.52        62.60468
927.92        63.23845
928.31        63.75743
928.70        64.13468
929.10        64.36939
929.49        64.47775
929.89        64.41726
930.28         64.2208
930.67        63.92891
931.07        63.56311
931.46        63.14056
931.85        62.71622
932.24        62.36393
932.64        62.11035
933.03        62.00333
933.42        61.93814
933.82        61.75488
934.21        61.43405
934.60        60.99837
934.99        60.66673
935.39        60.74871
935.78        61.30989
936.17        62.27219
936.56        63.26847
936.96        63.63247
937.35        63.23576
937.74        62.25595
938.13        61.17749
938.53        60.64768
938.92         60.7635
939.31        61.37418
939.70        62.17206
940.09         62.5867
940.49        62.44936
940.88        61.96561
941.27        61.40889
941.66        61.19119
942.05        61.41087
942.44        61.91518
942.84        62.51275
943.23        62.93213
943.62        63.02615
944.01        62.91535
944.40        62.67242
944.79        62.40229
945.18        62.16822
945.57        61.92868
945.97        61.74699
946.36        61.82992
946.75        62.15768
947.14        62.67725
947.53         63.2152
947.92        63.44766
948.31        63.28081
948.70        62.82098
949.09        62.21074
949.48        61.66534
949.87        61.27176
950.26         60.9917
950.65        60.85141
951.04        60.89655
951.43        61.11089
951.82        61.45534
952.21        61.85929
952.60        62.21925
952.99        62.47818
953.38        62.63086
953.77        62.60867
954.16        62.30902
954.55        61.76748
954.94        61.09387
955.33        60.42251
955.72         59.9541
956.11        59.74203
956.50        59.68772
956.89        59.85828
957.28        60.35524
957.66        61.17849
958.05        62.20796
958.44        63.04318
958.83        62.92392
959.22         61.7457
959.61        59.83252
960.00        57.86356
960.39        56.79005
960.78        56.81314
961.16        57.70017
961.55        59.02439
961.94        60.14961
962.33        60.81802
962.72         61.1924
963.11        61.34855
963.49        61.44512
963.88        61.50106
964.27        61.43702
964.66        61.25442
965.04         61.0063
965.43        60.69131
965.82        60.30832
966.21        59.90929
966.60        59.56083
966.98        59.31078
967.37        59.18968
967.76        59.07021
968.15        58.71268
968.53        58.10384
968.92        57.30536
969.31        56.64844
969.69        56.65114
970.08        57.36868
970.47        58.65588
970.86        60.04425
971.24        60.68477
971.63        60.27695
972.02        59.09849
972.40        57.63934
972.79        56.68291
973.17        56.46053
973.56        56.74105
973.95        57.24517
974.33        57.54338
974.72        57.46758
975.11        57.12247
975.49        56.79948
975.88        57.02611
976.26        57.96093
976.65        59.33081
977.04        60.55457
977.42        60.71133
977.81        59.63282
978.19        57.64352
978.58         55.6974
978.96        54.98092
979.35        55.74073
979.74        57.69995
980.12        60.29805
980.51        61.85492
980.89        61.98952
981.28        61.09002
981.66        59.83231
982.05        59.43943
982.43        60.18163
982.82        61.56502
983.20        63.40876
983.59        65.27223
983.97        66.96091
984.35        68.53822
984.74        69.40656
985.12        68.75397
985.51        66.52512
985.89        62.99864
986.28        59.30924
986.66        57.11436
987.04        56.97084
987.43        58.47262
987.81        60.75111
988.20        62.07178
988.58        61.93054
988.96         60.6639
989.35        59.13143
989.73         58.6901
990.12        59.61728
990.50        61.51692
990.88        63.33522
991.27        63.43172
991.65        61.57568
992.03        58.38394
992.42        55.18825
992.80        53.75322
993.18        54.59198
993.56        57.12181
993.95        60.26296
994.33        62.38561
994.71        62.70781
995.10         61.7239
995.48        59.98235
995.86        58.43184
996.24        57.46965
996.63        56.78392
997.01        56.27147
997.39        55.77752
997.77        55.24018
998.15        54.81695
998.54        54.54722
998.92        54.40725
999.30        54.41906
999.68        54.55066
1000.06        54.80254
1000.45         55.1654
1000.83        55.72726
1001.21        56.42476
1001.59        57.15691
1001.97        57.76899
1002.35        58.19155
1002.73        58.39491
1003.12        58.51776
1003.50        58.75313
1003.88        59.15482
1004.26        59.68158
1004.64        60.05978
1005.02        59.86671
1005.40        59.07276
1005.78        57.83043
1006.16        56.58834
1006.54        56.13438
1006.92        56.66552
1007.30        57.91386
1007.69        59.32418
1008.07        60.20965
1008.45         60.2458
1008.83         59.6619
1009.21        58.68972
1009.59        57.72878
1009.97        56.96362
1010.35        56.28874
1010.73        55.79635
1011.11        55.64206
1011.49        55.91528
1011.86        56.86169
1012.24        58.13679
1012.62         59.4193
1013.00        60.56945
1013.38         61.5075
1013.76         62.6301
1014.14        64.75451
1014.52        67.93442
1014.90        71.80367
1015.28        75.05103
1015.66        75.43055
1016.04         72.7803
1016.41        68.38509
1016.79        63.96186
1017.17         60.9217
1017.55        59.24068
1017.93        58.38198
1018.31        58.09437
1018.69        57.83157
1019.06        57.42324
1019.44         57.2515
1019.82        57.16234
1020.20        56.87453
1020.58        56.37487
1020.95        55.50713
1021.33        54.67801
1021.71        54.67962
1022.09        55.83831
1022.46        57.78025
1022.84        59.86301
1023.22        61.44527
1023.60        62.31949
1023.97        62.77388
1024.35        62.41504
1024.73        60.66634
