SpectraSmart Spectrum 2.9.0.0
--------- Device Information -----------
Spectrum Name :  反射率_0
Saving Time :  2024/05/01 17:20:04
Spectro-Module Model Name : SE2030-DUVN
Spectro-Module Serial Number : OS361AC55029948
Wavelength Start : 200
Wavelength End : 1025
Wavelength Unit : Wavelength(nm)
Spectrum Unit : Reflectance(%)
-----------Spectrum Setting ------------
Integration Time : 20ms
Average : 10
Boxcar : 0
Background removal :  enabled
linearity correction :  enabled
SC :  disabled
Intensity correction :  disabled
DWT denoise :  enabled
savitzky-golay :  disabled
FFT :  disabled
Running average :  disabled
Kalman :  disabled
High pass :  disabled
---------------BEGIN--------------------
Wavelength(nm)             Reflectance(%)
200.29               0
200.75        307.0785
201.21        1166.097
201.67       -448.7103
202.13       -160.6913
202.58       -76.61457
203.04       -30.74923
203.50       -5.286461
203.96        1.501759
204.42       -10.60047
204.88       -71.79608
205.34       -1724.836
205.80        275.8001
206.26        173.9972
206.72        127.2664
207.18        58.83226
207.64        122.6382
208.10        52.63062
208.55        14.72607
209.01       -11.87408
209.47       -22.19231
209.93        -20.8704
210.39       -15.75934
210.85       -11.71312
211.31        -17.8332
211.77       -64.47707
212.23        331.4576
212.69        101.1644
213.14        108.0708
213.60        206.8558
214.06       -961.6765
214.52       -156.4324
214.98       -104.0632
215.44       -93.18328
215.90       -103.3181
216.36       -359.4581
216.81        26.70486
217.27        9.533781
217.73       -125.0704
218.19       -61.86944
218.65         -60.332
219.11       -66.94664
219.57       -89.62625
220.02        -162.429
220.48       -69.79504
220.94       -31.30276
221.40       -22.82269
221.86       -18.88724
222.32       -14.47077
222.77       -7.914558
223.23        1.728393
223.69        14.81663
224.15        23.71953
224.61         23.3886
225.06        18.87316
225.52        14.92316
225.98        13.55811
226.44        14.50535
226.90        16.93779
227.36        20.75133
227.81        24.10375
228.27         25.2409
228.73        25.14245
229.19        24.47675
229.65        23.51298
230.10        22.31517
230.56        20.89889
231.02        19.64741
231.48        19.85971
231.93        21.80134
232.39        24.60891
232.85        27.64544
233.31        30.54224
233.77        33.18618
234.22        35.64465
234.68        37.71886
235.14        39.39093
235.60        40.83178
236.05        42.24969
236.51        43.86092
236.97         45.8336
237.43         47.7743
237.88        49.18891
238.34        49.51025
238.80        48.89195
239.26        47.29096
239.71        44.50097
240.17        39.43544
240.63        31.92418
241.08         24.7949
241.54        20.59511
242.00        20.29341
242.46        23.65304
242.91        31.43115
243.37        46.05346
243.83        70.36179
244.28        89.84757
244.74        85.75835
245.20        70.68201
245.66        57.21897
246.11        48.46465
246.57        42.03911
247.03        35.10716
247.48        23.30939
247.94        2.461791
248.40       -23.23229
248.85       -46.93696
249.31       -55.00699
249.77       -41.44122
250.22       -17.69977
250.68        6.258782
251.14        23.67288
251.59        30.87896
252.05        28.89563
252.51        15.75529
252.96       -19.36503
253.42       -63.01083
253.88       -39.57018
254.33        17.30157
254.79        48.76398
255.25        61.25339
255.70        65.59241
256.16        67.49261
256.62        68.09158
257.07        67.85787
257.53        67.73285
257.99        67.44795
258.44        67.12332
258.90        67.41647
259.35         67.8534
259.81        68.55588
260.27        69.02029
260.72        68.65257
261.18        67.77913
261.63        66.40178
262.09         65.0567
262.55        63.84552
263.00         62.6841
263.46        61.65892
263.91        60.57637
264.37        59.57876
264.83        58.59076
265.28        57.61899
265.74        56.69429
266.19        55.54901
266.65        54.29634
267.11        52.91969
267.56        51.65698
268.02        50.98595
268.47        50.91494
268.93        51.26196
269.38          51.641
269.84        51.37973
270.30        50.35344
270.75        48.76625
271.21        47.00991
271.66        45.54677
272.12          44.569
272.57        43.86489
273.03        43.33597
273.48        42.76178
273.94        42.11581
274.39         41.4617
274.85        40.83494
275.31        40.18699
275.76        39.50408
276.22        38.82414
276.67        38.15633
277.13        37.65725
277.58        37.25969
278.04         36.9609
278.49        36.61286
278.95        36.12735
279.40        35.44236
279.86        34.66784
280.31        33.84414
280.77        33.13464
281.22        32.51892
281.68        32.02405
282.13        31.55536
282.59        31.07762
283.04        30.55168
283.50        30.05062
283.95        29.61525
284.41        29.37148
284.86        29.30807
285.32        29.37577
285.77        29.49893
286.22         29.6206
286.68        29.71759
287.13        29.79533
287.59        29.81196
288.04        29.65667
288.50        29.36771
288.95        28.94828
289.41        28.59005
289.86        28.48335
290.32        28.67655
290.77        29.08459
291.22         29.5445
291.68        29.79111
292.13        29.77301
292.59        29.61962
293.04        29.46871
293.50        29.58865
293.95        30.02706
294.40        30.70239
294.86        31.52633
295.31        32.37033
295.77        33.16959
296.22        33.94379
296.68        34.67332
297.13        35.31032
297.58        35.87037
298.04        36.37598
298.49        36.85963
298.95        37.42249
299.40         38.0633
299.85        38.75428
300.31         39.4874
300.76        40.23619
301.21        40.99189
301.67        41.76614
302.12        42.47778
302.58        43.03238
303.03        43.38825
303.48        43.59893
303.94        43.79464
304.39        44.09006
304.84        44.54632
305.30        45.11393
305.75        45.70872
306.20        46.22615
306.66        46.63693
307.11        46.94387
307.57        47.18093
308.02        47.32521
308.47        47.40654
308.93        47.43475
309.38        47.41292
309.83         47.4118
310.29        47.45626
310.74        47.52774
311.19        47.60468
311.65        47.63344
312.10        47.59216
312.55        47.49719
313.00        47.39912
313.46        47.37627
313.91        47.43081
314.36        47.53223
314.82        47.59356
315.27        47.49327
315.72        47.20109
316.18        46.77287
316.63        46.28475
317.08        45.86778
317.53        45.55584
317.99        45.31969
318.44        45.10621
318.89        44.83577
319.35        44.49333
319.80        44.11346
320.25        43.74994
320.70        43.47993
321.16         43.3099
321.61        43.21548
322.06        43.13891
322.51        42.99754
322.97        42.75416
323.42        42.44361
323.87        42.08632
324.32        41.73291
324.78         41.4007
325.23        41.09718
325.68        40.80284
326.13        40.49447
326.59         40.1581
327.04        39.82076
327.49        39.50521
327.94        39.25895
328.39         39.0885
328.85         38.9636
329.30        38.85407
329.75        38.66087
330.20         38.3605
330.66        37.96796
331.11         37.5582
331.56        37.21258
332.01        36.96401
332.46        36.79672
332.92         36.6643
333.37        36.52734
333.82        36.35781
334.27        36.17666
334.72        36.02087
335.17        35.95594
335.63        35.97764
336.08        36.06247
336.53        36.14883
336.98        36.16344
337.43        36.07967
337.88        35.92435
338.34        35.67886
338.79        35.34296
339.24        34.93091
339.69        34.45714
340.14        34.02501
340.59        33.79208
341.05        33.77779
341.50         33.9469
341.95        34.17016
342.40        34.23098
342.85        34.07783
343.30        33.78172
343.75        33.44454
344.20          33.229
344.66        33.17897
345.11        33.22349
345.56          33.328
346.01        33.43371
346.46        33.50777
346.91        33.57357
347.36        33.58952
347.81         33.4891
348.26        33.27303
348.72        32.96736
349.17         32.6396
349.62        32.44339
350.07        32.40764
350.52        32.48639
350.97        32.59237
351.42        32.57518
351.87        32.40493
352.32        32.15081
352.77        31.86246
353.22         31.6169
353.67        31.43991
354.13        31.29652
354.58        31.20719
355.03        31.24747
355.48        31.41049
355.93        31.68745
356.38        31.92591
356.83        31.86893
357.28        31.48251
357.73        30.85789
358.18        30.23113
358.63        29.95398
359.08         30.0875
359.53        30.51547
359.98        31.03111
360.43        31.28024
360.88        31.15882
361.33        30.78566
361.78        30.29988
362.23        29.90353
362.68        29.65833
363.13        29.49681
363.58        29.38263
364.03        29.26872
364.48        29.13101
364.93        28.98841
365.38        28.84438
365.83        28.69013
366.28         28.5237
366.73        28.34955
367.18        28.14199
367.63        27.86923
368.08        27.54252
368.53         27.1809
368.98        26.86295
369.43        26.70149
369.88        26.70566
370.33          26.834
370.78        26.98609
371.23        26.98514
371.68        26.78117
372.13        26.43265
372.58        26.02103
373.03        25.66734
373.48        25.41047
373.93        25.21766
374.38        25.07577
374.83        24.96614
375.28        24.87525
375.72        24.80594
376.17        24.75086
376.62        24.68463
377.07        24.59747
377.52        24.49038
377.97        24.35167
378.42        24.17007
378.87        23.95288
379.32         23.7104
379.77        23.48111
380.22        23.32053
380.67        23.23991
381.11        23.22952
381.56        23.24779
382.01        23.23087
382.46        23.16104
382.91        23.05194
383.36        22.93507
383.81        22.86292
384.26        22.83898
384.71        22.83472
385.15        22.80667
385.60        22.70975
386.05        22.53162
386.50        22.30772
386.95        22.06236
387.40        21.83079
387.85        21.63573
388.29        21.45417
388.74        21.34662
389.19        21.33273
389.64        21.40337
390.09        21.53504
390.54        21.66809
390.98        21.70373
391.43        21.62702
391.88        21.46988
392.33         21.2724
392.78         21.1027
393.23        20.98121
393.67        20.85658
394.12        20.74967
394.57        20.70986
395.02        20.70138
395.47          20.584
395.91        20.39598
396.36        20.30679
396.81        20.33619
397.26        20.40083
397.71        20.44314
398.15        20.42671
398.60        20.36603
399.05        20.18871
399.50        19.99043
399.95        20.05409
400.39        20.32984
400.84        20.42175
401.29        20.27837
401.74        20.14367
402.18        20.01692
402.63        19.72751
403.08        19.36728
403.53        19.16485
403.97        19.14942
404.42        19.25358
404.87        19.39961
405.32        19.46394
405.76        19.40724
406.21        19.27859
406.66        19.11676
407.11        18.98215
407.55        18.90024
408.00         18.8487
408.45        18.81822
408.90        18.77019
409.34        18.70778
409.79         18.6893
410.24        18.70416
410.68        18.68864
411.13        18.64057
411.58        18.58583
412.03        18.53142
412.47        18.48344
412.92        18.44343
413.37        18.41294
413.81         18.3859
414.26        18.36881
414.71        18.35499
415.15        18.35102
415.60        18.34218
416.05         18.3242
416.49        18.29465
416.94        18.25047
417.39        18.20298
417.83        18.17082
418.28        18.15612
418.73         18.1522
419.17        18.13964
419.62        18.07995
420.07        17.97611
420.51        17.84635
420.96        17.73098
421.41        17.66555
421.85        17.65266
422.30        17.68155
422.74         17.7443
423.19         17.8479
423.64        17.97827
424.08        18.14079
424.53        18.26629
424.98        18.26478
425.42        18.12414
425.87        17.87774
426.31        17.60943
426.76        17.46217
427.21        17.46146
427.65        17.56107
428.10        17.71783
428.54        17.84956
428.99        17.93229
429.44        18.02494
429.88        18.06827
430.33        17.97878
430.77         17.7619
431.22         17.4628
431.66          17.201
432.11         17.1915
432.56        17.40399
433.00        17.73031
433.45        17.96902
433.89        17.72473
434.34        17.02274
434.78        17.00402
435.23        17.72837
435.67        17.96336
436.12         17.7085
436.57        17.62709
437.01         17.7441
437.46         17.7552
437.90        17.65522
438.35        17.55927
438.79        17.48589
439.24        17.41738
439.68         17.3922
440.13        17.52824
440.57        17.75616
441.02        17.88755
441.46        17.89521
441.91        17.75562
442.35        17.54665
442.80        17.68457
443.24        18.03936
443.69        17.89802
444.13        17.35419
444.58        17.15625
445.02        17.32225
445.47        17.46188
445.91        17.52629
446.36        17.61922
446.80        17.72009
447.24        17.79963
447.69        17.85419
448.13        17.88026
448.58        17.88009
449.02        17.85019
449.47         17.8111
449.91        17.78188
450.36        17.77424
450.80        17.78369
451.25        17.79305
451.69        17.76035
452.13        17.68253
452.58        17.57585
453.02        17.47044
453.47        17.42531
453.91        17.44747
454.36        17.52123
454.80        17.60279
455.24         17.6212
455.69        17.56464
456.13        17.44539
456.58        17.31768
457.02         17.2399
457.46        17.23004
457.91        17.26805
458.35        17.31023
458.79        17.26229
459.24        17.12185
459.68        16.97038
460.13        16.88264
460.57        16.62804
461.01        16.70463
461.46        16.72092
461.90        16.80425
462.34         16.8547
462.79        16.94972
463.23        17.01752
463.68        17.07387
464.12        17.10304
464.56        17.10514
465.01        17.10889
465.45        17.08843
465.89         17.0344
466.34        16.95514
466.78        16.84846
467.22        16.75239
467.67        16.76143
468.11        16.81794
468.55        16.96202
468.99        17.12103
469.44        17.21436
469.88        17.22572
470.32        17.17271
470.77        17.09607
471.21        17.06206
471.65        17.08885
472.10        17.15742
472.54        17.23347
472.98        17.27473
473.42        17.27216
473.87        17.25057
474.31        17.22099
474.75        17.21661
475.20        17.24973
475.64        17.29687
476.08        17.34546
476.52        17.42135
476.97        17.52753
477.41        17.57534
477.85        17.52858
478.29        17.82492
478.74        17.69703
479.18         17.7342
479.62        17.72604
480.06        17.80914
480.50        17.99626
480.95        17.92401
481.39        18.18197
481.83          18.229
482.27        18.24791
482.72        18.24879
483.16         18.2551
483.60        18.31211
484.04         18.4103
484.48        18.51805
484.93        18.70414
485.37        18.91436
485.81        19.03904
486.25        19.44558
486.69        18.77971
487.14        18.40035
487.58        19.10399
488.02        19.40435
488.46        19.42897
488.90        19.39779
489.34        19.55233
489.79        19.37714
490.23         19.6832
490.67        19.84444
491.11        20.04262
491.55        20.13877
491.99        20.15266
492.43        20.24605
492.88        20.41673
493.32        20.54659
493.76        20.63682
494.20        20.77635
494.64        20.97317
495.08        21.17465
495.52        21.35945
495.96        21.55721
496.41        21.73539
496.85        21.76656
497.29        21.70351
497.73        21.78992
498.17        22.03196
498.61        22.21957
499.05        22.32735
499.49        22.46783
499.93        22.63436
500.37        22.75578
500.82        22.84228
501.26         22.9412
501.70         23.0589
502.14        23.18253
502.58        23.29542
503.02        23.37348
503.46         23.4156
503.90        23.43336
504.34          23.458
504.78        23.53715
505.22        23.67883
505.66        23.86574
506.10        24.05707
506.54        24.18581
506.98        24.23352
507.42        24.22031
507.86        24.17833
508.30          24.158
508.74        24.17634
509.18        24.22149
509.62        24.28091
510.06        24.33351
510.50        24.37323
510.94        24.40915
511.38        24.45073
511.82        24.51067
512.26        24.58813
512.70        24.67127
513.14        24.74653
513.58        24.79563
514.02        24.81376
514.46        24.80902
514.90        24.78406
515.34        24.74355
515.78        24.69451
516.22        24.63875
516.66        24.59368
517.10        24.58484
517.54        24.61539
517.98        24.67801
518.42        24.74904
518.86        24.78769
519.30        24.78318
519.74        24.74623
520.18        24.69449
520.62        24.65803
521.06        24.64386
521.50        24.63922
521.93        24.63722
522.37        24.62201
522.81        24.59186
523.25        24.55717
523.69        24.51372
524.13        24.45181
524.57        24.37649
525.01        24.29387
525.45        24.22775
525.89        24.21655
526.32         24.2627
526.76        24.34489
527.20        24.43583
527.64         24.4912
528.08        24.49577
528.52          24.466
528.96        24.39803
529.40        24.28746
529.83        24.14123
530.27        23.96916
530.71        23.81288
531.15        23.74434
531.59        23.77368
532.03        23.87785
532.46        23.99604
532.90        24.03235
533.34        23.96643
533.78        23.81423
534.22        23.62573
534.66        23.51793
535.09        23.48944
535.53        23.43193
535.97         23.3514
536.41        23.34353
536.85        23.40643
537.28        23.48843
537.72        23.56354
538.16        23.61165
538.60        23.62376
539.04        23.60519
539.47        23.57546
539.91        23.58147
540.35        23.62794
540.79        23.71216
541.22        23.82129
541.66        23.89817
542.10        23.99632
542.54          24.075
542.97        24.15526
543.41        24.25465
543.85        24.37214
544.29        24.50312
544.72         24.6388
545.16        24.78005
545.60        24.92024
546.04        25.05421
546.47        25.18738
546.91        25.33292
547.35        25.49215
547.79        25.65565
548.22        25.78551
548.66        25.88924
549.10        25.97022
549.53        25.88942
549.97        25.92873
550.41        26.07126
550.84        26.36633
551.28        26.63841
551.72         26.8497
552.15        27.03967
552.59         27.2029
553.03         27.3177
553.46        27.38495
553.90        27.46113
554.34        27.55745
554.77        27.61497
555.21        27.61871
555.65        27.84715
556.08        27.77651
556.52        27.84879
556.96        27.90716
557.39        27.97911
557.83        28.07173
558.27        28.13729
558.70        28.18082
559.14        28.34868
559.57        28.38539
560.01        28.53663
560.45        28.66439
560.88        28.64906
561.32        28.54835
561.75         28.4035
562.19        28.31114
562.63        28.53555
563.06        28.96311
563.50        28.98034
563.93        28.64248
564.37          28.614
564.80        28.88657
565.24        29.04813
565.68        29.07959
566.11        29.17071
566.55        29.32836
566.98         29.4696
567.42        29.59867
567.85         29.7163
568.29        29.83503
568.72        29.92906
569.16        30.02647
569.60        30.13684
570.03        30.24973
570.47         30.3115
570.90        30.54603
571.34        30.48639
571.77        30.62186
572.21        30.66893
572.64         30.8014
573.08        30.75147
573.51        31.15713
573.95        31.28533
574.38        31.27907
574.82         31.2775
575.25        31.55486
575.69        31.56895
576.12        31.39806
576.56        31.54014
576.99        31.67545
577.42        31.45769
577.86        31.56166
578.29        31.65214
578.73        31.72927
579.16        31.54441
579.60        31.17184
580.03        31.09069
580.47        31.37607
580.90        30.84337
581.33        31.18292
581.77        31.41819
582.20        31.22298
582.64        30.91681
583.07         30.8679
583.51        30.63797
583.94        30.50726
584.37        30.52707
584.81        30.68054
585.24         30.5981
585.68        30.30912
586.11        30.33174
586.54        30.20409
586.98        30.12769
587.41        29.91886
587.85        30.18315
588.28        30.13313
588.71        29.56056
589.15        30.12792
589.58        29.68516
590.01        29.81544
590.45         29.7656
590.88        29.83671
591.31        29.84879
591.75        29.79723
592.18        29.65932
592.61        29.41864
593.05        29.76629
593.48        29.71626
593.91        29.68316
594.35        29.78918
594.78        29.88492
595.21        30.07062
595.65        30.19277
596.08        30.22094
596.51        30.45226
596.94         30.2663
597.38        30.41925
597.81        30.79511
598.24        30.57278
598.68        31.14274
599.11        31.20323
599.54        31.78325
599.97        31.73396
600.41        31.90585
600.84        32.36985
601.27         32.4854
601.70        32.98783
602.14        33.34583
602.57        33.56253
603.00        33.65249
603.43        33.74109
603.87        34.08332
604.30        34.56304
604.73        34.57894
605.16        34.81961
605.60         35.0832
606.03        35.51954
606.46        35.97308
606.89        36.15065
607.32        36.17557
607.76        36.29076
608.19        36.52487
608.62        37.05988
609.05        37.37767
609.48        37.43163
609.92        37.23333
610.35        37.44873
610.78        38.29175
611.21        38.66927
611.64        38.64284
612.07        38.77971
612.50         39.1114
612.94        39.23954
613.37        39.18638
613.80         39.4637
614.23         39.4653
614.66        39.86672
615.09        39.85559
615.52        39.99339
615.96        40.09359
616.39        40.40411
616.82        40.59198
617.25         40.8348
617.68        41.00835
618.11         41.1408
618.54         41.2154
618.97        41.17846
619.40        41.11513
619.84        41.14396
620.27        41.28981
620.70        41.66544
621.13        42.17769
621.56        42.02014
621.99        41.72984
622.42        41.83362
622.85        42.05677
623.28        41.92852
623.71        41.99074
624.14        42.05013
624.57        42.25642
625.00        42.36565
625.43        42.35879
625.86        42.26518
626.29        42.08387
626.72        42.02665
627.15        41.83877
627.58        41.67732
628.01        41.48504
628.44        41.42098
628.87        41.46409
629.30        41.27625
629.73         41.1851
630.16        41.03139
630.59        40.90529
631.02        40.72876
631.45        40.50856
631.88        40.28655
632.31        40.06505
632.74        39.83401
633.17        39.59967
633.60        39.37153
634.03        39.14936
634.46        38.93443
634.89          38.709
635.32        38.44367
635.75        38.13681
636.18        37.79703
636.61        37.45132
637.04        37.15044
637.47        36.90805
637.89         36.6711
638.32        36.46034
638.75        36.22672
639.18        35.98889
639.61        35.60862
640.04        35.37843
640.47        35.11656
640.90         34.9114
641.33        34.73902
641.76        34.58753
642.18        34.48563
642.61        34.42942
643.04        34.34212
643.47        34.18258
643.90        34.36773
644.33        34.15234
644.76        34.08282
645.18        33.98992
645.61        34.08687
646.04        34.32997
646.47        34.43698
646.90        34.40532
647.33        34.47176
647.75        34.64104
648.18        34.72609
648.61        34.77208
649.04        34.96829
649.47        35.27414
649.89         35.5921
650.32        35.86953
650.75        35.89416
651.18        35.78362
651.61        36.17992
652.03        37.00295
652.46        37.29293
652.89        37.07304
653.32        37.26857
653.74        37.97108
654.17        38.04625
654.60        38.47268
655.03        38.82719
655.46        38.69705
655.88        39.10894
656.31        43.15479
656.74        41.95993
657.16        39.06723
657.59        38.87692
658.02        40.48986
658.45        40.44415
658.87         40.7384
659.30        40.81336
659.73        41.01336
660.15        41.65229
660.58        41.79777
661.01        41.91383
661.44        41.83445
661.86        41.81142
662.29          41.933
662.72        42.25488
663.14        42.71721
663.57         42.9802
664.00        43.02743
664.42        43.13066
664.85        43.29767
665.27         43.3255
665.70        43.26274
666.13        43.29513
666.55        43.45304
666.98        43.67483
667.41        43.92763
667.83        44.15641
668.26        44.32594
668.69        44.45708
669.11         44.5601
669.54        44.66029
669.96        44.75754
670.39         44.8175
670.82        44.85357
671.24        44.87671
671.67        44.91288
672.09        45.02799
672.52        45.19574
672.94        45.26648
673.37        45.23367
673.80        45.16977
674.22        45.11961
674.65        45.10601
675.07        45.15675
675.50        45.25348
675.92        45.38117
676.35        45.50769
676.77        45.62349
677.20        45.73061
677.62        45.83218
678.05        45.91864
678.47        45.98126
678.90        46.04547
679.32        46.11728
679.75        46.14791
680.17        46.12109
680.60        46.35116
681.02         46.2938
681.45        46.37329
681.87         46.4343
682.30        46.48565
682.72        46.53479
683.15        46.57982
683.57        46.63318
684.00        46.68769
684.42        46.74241
684.85        46.80397
685.27        46.86054
685.70        46.91319
686.12         46.9571
686.54        46.98793
686.97        47.00092
687.39        47.05451
687.82        47.11783
688.24        47.04816
688.66        46.89444
689.09        46.91834
689.51        47.13262
689.94        47.28637
690.36        47.37224
690.78        47.55814
691.21        47.82298
691.63        47.97358
692.06         48.0387
692.48        48.26141
692.90        48.58245
693.33         48.7089
693.75        48.62307
694.17        48.42939
694.60        48.22486
695.02        48.14305
695.44        48.17095
695.87        48.21618
696.29         48.2373
696.71        48.06376
697.14        47.82537
697.56        48.02774
697.98         48.5696
698.41         48.9287
698.83        48.85363
699.25        48.86083
699.68        48.91999
700.10        48.97523
700.52        49.03395
700.94        49.07023
701.37        49.08352
701.79        49.20128
702.21        49.31039
702.64        49.32858
703.06        49.24951
703.48        49.14499
703.90         49.0159
704.33        49.14091
704.75        48.93079
705.17        48.97894
705.59        49.11014
706.01        49.30173
706.44        49.51641
706.86        49.72018
707.28        49.88308
707.70         50.0084
708.12        50.07965
708.55        50.06514
708.97        49.96731
709.39        49.80582
709.81         49.6353
710.23        49.55467
710.66        49.59066
711.08        49.72581
711.50        49.90424
711.92        50.04466
712.34        50.12099
712.76        50.15553
713.19        50.15003
713.61        50.14589
714.03        50.14119
714.45        50.12477
714.87        50.11372
715.29        50.13727
715.71        50.19849
716.13        50.29332
716.56         50.3799
716.98         50.4477
717.40         50.4645
717.82        50.44041
718.24        50.40258
718.66        50.39659
719.08         50.4328
719.50        50.49599
719.92        50.56223
720.34        50.59375
720.76        50.58159
721.19        50.54047
721.61        50.49242
722.03        50.46461
722.45        50.47077
722.87        50.50875
723.29           50.57
723.71        50.64063
724.13        50.71222
724.55        50.77761
724.97        50.85199
725.39        50.96117
725.81        51.10053
726.23         51.2574
726.65        51.37401
727.07        51.35955
727.49        51.20662
727.91        50.95563
728.33        50.69188
728.75        50.55011
729.17        50.56346
729.59         50.6889
730.01        50.87782
730.43        51.03934
730.85        51.13908
731.27        51.21295
731.69        51.24582
732.10         51.2169
732.52        51.13274
732.94        50.98177
733.36        50.84487
733.78        50.85517
734.20        51.03433
734.62        51.39305
735.04        51.77784
735.46        51.90864
735.88        51.61803
736.30        51.50873
736.72        51.56739
737.13        51.65241
737.55        51.70865
737.97        51.62981
738.39        51.46157
738.81        51.54187
739.23        51.81077
739.65        51.77905
740.06        51.47427
740.48         51.3914
740.90        51.53001
741.32        51.66771
741.74        51.75122
742.16        51.80881
742.57        51.82738
742.99        51.77123
743.41        51.71108
743.83        51.79504
744.25        52.01232
744.67        52.22077
745.08        52.36727
745.50        52.40872
745.92        52.33663
746.34        52.13659
746.75        51.86538
747.17        51.66657
747.59        51.56356
748.01        51.52472
748.42        51.54723
748.84        51.60806
749.26        51.70174
749.68         51.8125
750.09        51.91451
750.51        52.02739
750.93        52.11411
751.35        52.06292
751.76         51.9284
752.18        51.90157
752.60        52.00828
753.01        52.17221
753.43        52.32375
753.85        52.41453
754.27        52.42709
754.68        52.38188
755.10        52.33227
755.52        52.35566
755.93        52.45858
756.35        52.60466
756.77        52.75679
757.18        52.81849
757.60        52.77556
758.02        52.76783
758.43        52.75768
758.85         52.5166
759.26        52.15662
759.68        52.14363
760.10        52.46514
760.51         52.6927
760.93         52.7052
761.34        52.65192
761.76        52.57342
762.18         52.3075
762.59        52.04923
763.01        52.36039
763.42        53.12585
763.84        53.47667
764.26        53.32613
764.67        52.93299
765.09        52.53105
765.50        52.55788
765.92        52.94608
766.33        52.92045
766.75        52.42932
767.16         52.3986
767.58        52.57719
768.00        52.66965
768.41        52.65133
768.83        53.04704
769.24        53.70805
769.66        53.92537
770.07        53.70238
770.49        53.50436
770.90        53.42253
771.32        53.42028
771.73        53.46346
772.15        53.40822
772.56        53.26899
772.97        53.14175
773.39        53.02833
773.80        53.21477
774.22        53.15298
774.63        53.31177
775.05        53.48033
775.46         53.6305
775.88        53.71904
776.29        53.77905
776.70        53.81785
777.12         53.8552
777.53         53.9064
777.95        53.93504
778.36        53.94464
778.77        53.90054
779.19        53.80333
779.60        53.75243
780.02        53.71888
780.43        53.51279
780.84        53.23772
781.26        53.17982
781.67        53.34555
782.09        53.66322
782.50        53.96324
782.91        53.77156
783.33        53.22762
783.74        53.10162
784.15        53.45565
784.57        53.80607
784.98        54.10712
785.39        54.45179
785.81        54.79743
786.22        55.00238
786.63        55.31154
787.04         55.2279
787.46        54.93016
787.87        54.70703
788.28        54.66834
788.70        54.67809
789.11        54.73161
789.52        55.06308
789.93         55.5042
790.35        55.47527
790.76        55.02729
791.17         54.7259
791.58        54.66652
792.00        54.55767
792.41        54.43315
792.82        54.54572
793.23        54.79301
793.65        54.80902
794.06        54.59142
794.47        54.36403
794.88        54.22814
795.29        54.21135
795.71        54.28778
796.12         54.5461
796.53        54.86415
796.94        54.98059
797.35        54.82048
797.76        54.47849
798.18        54.11262
798.59        53.93337
799.00        54.00412
799.41        54.25022
799.82        54.58828
800.23           54.88
800.64        55.06565
801.06        55.16665
801.47        55.21004
801.88        55.17119
802.29        55.06173
802.70        54.87696
803.11        54.67575
803.52        54.56152
803.93        54.57095
804.34        54.68954
804.75        54.86539
805.17         55.0513
805.58        55.25366
805.99        55.26228
806.40        55.13108
806.81        55.41707
807.22        55.91958
807.63        55.56943
808.04         54.5345
808.45        54.05468
808.86        54.24354
809.27        54.42647
809.68        54.52405
810.09        54.70326
810.50        54.92279
810.91        55.14582
811.32        55.31462
811.73         55.3334
812.14        55.19259
812.55        54.91634
812.96        54.63765
813.37        54.58778
813.78         54.8177
814.19        55.25557
814.60        55.74239
815.01        56.03151
815.42        56.05779
815.83        55.88298
816.24        55.59763
816.65        55.38214
817.05        55.31102
817.46        55.31224
817.87        55.34425
818.28        55.31075
818.69        55.18589
819.10        55.00861
819.51        54.82797
819.92        54.72536
820.33        54.72581
820.74        54.79404
821.14        54.87695
821.55         54.9213
821.96        54.90266
822.37        54.85627
822.78        54.80304
823.19        54.77665
823.60         54.7988
824.00        54.86988
824.41        54.98497
824.82        55.22165
825.23        55.56767
825.64        55.97873
826.04        56.37561
826.45        56.56898
826.86        56.52885
827.27        56.30996
827.68        55.94933
828.08        55.53166
828.49        55.08696
828.90         54.6237
829.31        54.24803
829.72        54.11433
830.12        54.27555
830.53        54.68027
830.94        55.17632
831.35        55.43762
831.75        55.38712
832.16        55.06535
832.57        54.71455
832.97        54.70763
833.38        55.10346
833.79        55.77153
834.20        56.47285
834.60        56.80492
835.01        56.64013
835.42        56.13618
835.82        55.47922
836.23        54.94334
836.64        54.62893
837.04        54.46946
837.45        54.42295
837.86        54.46678
838.26        54.57818
838.67         54.7432
839.08        54.92072
839.48        55.00941
839.89        54.97479
840.29        54.84072
840.70        54.64768
841.11        54.43576
841.51        54.24913
841.92        54.06395
842.33        53.95529
842.73        54.04893
843.14        54.31554
843.54         54.7504
843.95        55.21846
844.35        55.53563
844.76        55.61884
845.17        55.51213
845.57        55.29601
845.98        55.09433
846.38        54.96628
846.79        54.86732
847.19        54.78217
847.60        54.63576
848.00        54.43434
848.41        54.19587
848.81        53.99235
849.22        53.89794
849.62        53.94221
850.03        54.08316
850.43        54.24871
850.84        54.21664
851.24        53.99028
851.65        53.61019
852.05        53.27195
852.46        53.27205
852.86        53.64151
853.27        54.25809
853.67        54.90709
854.07          55.435
854.48        55.75493
854.88        55.98881
855.29        56.02843
855.69        55.89277
856.10         55.5395
856.50        55.03746
856.90         54.5438
857.31        54.30361
857.71        54.35968
858.12        54.60276
858.52        54.95623
858.92        55.10074
859.33        54.93082
859.73        54.59291
860.13        54.10651
860.54        53.52803
860.94        52.91612
861.34        52.24578
861.75        51.70829
862.15        51.65726
862.55        52.13652
862.96        53.02823
863.36        54.01912
863.76        54.51358
864.17        54.36877
864.57         53.7606
864.97        52.99254
865.38        52.58836
865.78        52.71186
866.18        53.17884
866.58        53.78828
866.99        54.17775
867.39        54.23894
867.79        54.11038
868.19        53.83785
868.60        53.44649
869.00        52.97469
869.40        52.39492
869.80        51.89429
870.21        51.83044
870.61        52.30064
871.01        53.14356
871.41        54.00499
871.81        54.33955
872.22        54.03283
872.62        53.26446
873.02        52.29933
873.42        51.58756
873.82        51.29853
874.22        51.31669
874.63        51.56595
875.03        51.92164
875.43        52.31256
875.83        52.76786
876.23        53.25277
876.63        53.69948
877.03        54.07713
877.44         54.3581
877.84        54.52522
878.24        54.53555
878.64        54.39683
879.04        54.12996
879.44        53.83747
879.84        53.67159
880.24         53.6604
880.64        53.76963
881.04        53.91109
881.44        53.92367
881.84        53.77693
882.24        53.54021
882.65        53.26103
883.05        53.11055
883.45        53.10919
883.85        53.18717
884.25        53.36666
884.65        53.69082
885.05        54.13855
885.45         54.7019
885.85        55.19656
886.25        55.30543
886.65        54.96438
887.05        54.26181
887.45        53.48265
887.85        53.07847
888.25        53.16043
888.65        53.61623
889.04        54.18504
889.44        54.40835
889.84        54.18084
890.24        53.62875
890.64        53.02323
891.04        52.74918
891.44        52.89423
891.84        53.37562
892.24        53.89772
892.64         53.9677
893.04        53.49823
893.44        52.65307
893.83        51.89329
894.23         51.9157
894.63        52.81658
895.03        54.36665
895.43        56.01368
895.83        56.75099
896.23        56.31373
896.63        55.08536
897.02        53.57906
897.42        52.59721
897.82        52.28619
898.22        52.43626
898.62        52.87874
899.01         53.3487
899.41        53.68874
899.81        54.01607
900.21        54.35934
900.61        54.74037
901.00        55.14365
901.40        55.48136
901.80        55.68982
902.20        55.71544
902.59        55.56169
902.99        55.26917
903.39        54.90075
903.79        54.54894
904.18        54.24774
904.58        54.00113
904.98        53.83069
905.38        53.76788
905.77        53.80222
906.17          53.948
906.57        54.09637
906.96         54.0792
907.36        53.85391
907.76        53.47346
908.15        53.11892
908.55        53.04679
908.95        53.32647
909.34        53.88468
909.74         54.4955
910.14        54.85885
910.53        54.87838
910.93        54.64123
911.33        54.29824
911.72        54.08699
912.12        54.09197
912.52        54.22556
912.91        54.36127
913.31        54.29963
913.70        54.00679
914.10        53.57961
914.49        53.15715
914.89        52.92185
915.29        52.92548
915.68        53.08979
916.08        53.35481
916.47        53.62737
916.87        53.85091
917.26        54.05158
917.66        54.17203
918.05        54.12939
918.45         53.9218
918.84        53.60468
919.24        53.28144
919.64        53.19352
920.03        53.41434
920.42        53.84619
920.82        54.37688
921.21        54.88053
921.61        55.26624
922.00        55.55099
922.40        55.67168
922.79        55.56218
923.19        55.22345
923.58        54.72437
923.98        54.11531
924.37        53.43244
924.77        52.73668
925.16        52.02692
925.55        51.48576
925.95        51.38959
926.34        51.79245
926.74         52.5795
927.13        53.54605
927.52        54.26737
927.92        54.60728
928.31        54.67008
928.70         54.5608
929.10        54.50385
929.49         54.5861
929.89        54.72313
930.28        54.88018
930.67        54.97954
931.07        54.98449
931.46        54.91872
931.85        54.82698
932.24        54.76736
932.64        54.75092
933.03        54.81199
933.42        54.81536
933.82        54.57182
934.21         54.0773
934.60        53.37652
934.99        52.77558
935.39        52.71519
935.78        53.28572
936.17        54.38697
936.56        55.56332
936.96        55.96935
937.35        55.42142
937.74        54.16198
938.13        52.77708
938.53        52.05166
938.92        52.11133
939.31        52.75444
939.70        53.61003
940.09        53.99942
940.49        53.72328
940.88        53.03362
941.27        52.26388
941.66        51.90205
942.05        52.06646
942.44         52.5835
942.84        53.24134
943.23        53.70301
943.62         53.8106
944.01         53.6993
944.40        53.46215
944.79        53.23863
945.18        53.09051
945.57        52.94568
945.97        52.84525
946.36        52.96424
946.75        53.27926
947.14        53.77262
947.53        54.25827
947.92        54.38832
948.31        54.08945
948.70        53.48042
949.09        52.81576
949.48        52.48298
949.87        52.58275
950.26        53.01237
950.65         53.6129
951.04        54.09772
951.43        54.34416
951.82        54.40025
952.21        54.35186
952.60        54.34286
952.99        54.39043
953.38        54.42505
953.77        54.32673
954.16        53.90231
954.55        53.17054
954.94        52.30885
955.33        51.48749
955.72        50.93858
956.11        50.72938
956.50        50.74075
956.89        51.04128
957.28        51.74739
957.66         52.8396
958.05        54.18139
958.44        55.32433
958.83        55.42295
959.22        54.34001
959.61        52.43064
960.00        50.37282
960.39        49.12282
960.78        48.90225
961.16        49.46991
961.55        50.50859
961.94        51.56139
962.33        52.40398
962.72        53.16178
963.11        53.72211
963.49        53.89006
963.88         53.6108
964.27        52.93911
964.66        52.11231
965.04        51.49524
965.43        51.15921
965.82        51.03401
966.21        51.05812
966.60        51.08827
966.98        51.06843
967.37        51.04965
967.76        51.00562
968.15        50.87404
968.53        50.65538
968.92        50.34128
969.31        50.01339
969.69        49.81623
970.08         49.7584
970.47        49.81627
970.86        49.90892
971.24        49.90068
971.63        49.71831
972.02        49.40667
972.40        49.05013
972.79        48.79602
973.17        48.70245
973.56        48.72025
973.95        48.74631
974.33        48.60867
974.72        48.23101
975.11        47.62223
975.49        47.04743
975.88        47.04509
976.26        47.78597
976.65         49.0857
977.04        50.37353
977.42        50.71022
977.81        49.89843
978.19        48.20605
978.58        46.60779
978.96         46.3606
979.35         47.7087
979.74        50.36098
980.12        53.52594
980.51        55.11034
980.89        54.59151
981.28        52.46383
981.66        49.81815
982.05        48.54393
982.43        49.08211
982.82        50.84221
983.20        53.23398
983.59        55.09802
983.97        56.07617
984.35        56.48683
984.74        56.25763
985.12        55.39719
985.51        54.02187
985.89        52.11192
986.28        50.27413
986.66        49.34166
987.04        49.61616
987.43        50.88658
987.81        52.63274
988.20        53.74763
988.58        53.90847
988.96        53.26124
989.35        52.31937
989.73        51.90763
990.12        52.19454
990.50        52.98624
990.88        53.63839
991.27        53.15018
991.65        51.45192
992.03        48.96249
992.42         46.6001
992.80        45.50568
993.18        46.03112
993.56        47.75981
993.95        49.97987
994.33        51.68979
994.71        52.32878
995.10        52.23172
995.48        51.54331
995.86        50.56598
996.24        49.52677
996.63        48.29642
997.01        47.22324
997.39        46.80248
997.77        47.10233
998.15        48.11098
998.54        49.36916
998.92        49.93354
999.30        49.54658
999.68        48.38651
1000.06        47.10757
1000.45        46.85309
1000.83        48.02462
1001.21        50.25812
1001.59        52.71102
1001.97        53.92826
1002.35        53.48919
1002.73        51.81448
1003.12        49.76673
1003.50        48.71865
1003.88        49.05242
1004.26        50.28291
1004.64        51.71774
1005.02        52.34512
1005.40        51.94532
1005.78        50.90799
1006.16        49.64714
1006.54        48.86194
1006.92        48.79361
1007.30        49.14137
1007.69        49.70332
1008.07        50.40295
1008.45        51.03419
1008.83        51.68921
1009.21        52.10462
1009.59        51.81495
1009.97        50.76665
1010.35        49.05595
1010.73        47.22416
1011.11        46.25775
1011.49        46.48577
1011.86        47.87318
1012.24          49.706
1012.62        50.90937
1013.00        51.07491
1013.38        50.44653
1013.76        49.64551
1014.14        49.84673
1014.52        51.38075
1014.90        53.79408
1015.28        56.33215
1015.66        57.63666
1016.04        57.33962
1016.41        56.06864
1016.79        54.45739
1017.17        53.06416
1017.55        51.88665
1017.93        50.61282
1018.31        49.20922
1018.69        48.06274
1019.06        47.62071
1019.44        47.89057
1019.82        48.39764
1020.20        48.62883
1020.58        48.57736
1020.95        48.23522
1021.33        48.05386
1021.71        48.63723
1022.09        50.16187
1022.46        52.23096
1022.84        54.22301
1023.22        55.60421
1023.60        56.23114
1023.97        56.35584
1024.35        55.75396
1024.73        54.11424
