SpectraSmart Spectrum 2.9.0.0
--------- Device Information -----------
Spectrum Name :  反射率_0
Saving Time :  2024/05/01 17:23:54
Spectro-Module Model Name : SE2030-DUVN
Spectro-Module Serial Number : OS361AC55029948
Wavelength Start : 200
Wavelength End : 1025
Wavelength Unit : Wavelength(nm)
Spectrum Unit : Reflectance(%)
-----------Spectrum Setting ------------
Integration Time : 20ms
Average : 10
Boxcar : 0
Background removal :  enabled
linearity correction :  enabled
SC :  disabled
Intensity correction :  disabled
DWT denoise :  enabled
savitzky-golay :  disabled
FFT :  disabled
Running average :  disabled
Kalman :  disabled
High pass :  disabled
---------------BEGIN--------------------
Wavelength(nm)             Reflectance(%)
200.29               0
200.75        140.0087
201.21        736.3503
201.67       -349.9093
202.13       -141.7797
202.58       -73.30733
203.04       -33.26563
203.50       -8.429913
203.96        3.807474
204.42        7.316364
204.88       0.8246939
205.34       -258.3737
205.80        57.00088
206.26           40.03
206.72        33.84642
207.18        23.99916
207.64        55.19101
208.10        47.38699
208.55        48.13436
209.01        47.88705
209.47        45.32173
209.93        40.39587
210.39        32.91766
210.85        23.99994
211.31        13.57789
211.77       -11.00325
212.23        156.9248
212.69        57.98876
213.14        65.65953
213.60        128.7342
214.06       -592.9767
214.52       -94.28931
214.98       -61.60362
215.44       -54.61217
215.90       -61.29143
216.36       -228.5254
216.81        21.80279
217.27        7.266732
217.73       -53.39713
218.19       -28.86358
218.65       -33.37198
219.11       -47.16874
219.57       -90.14306
220.02       -249.6968
220.48       -109.4721
220.94       -25.45205
221.40       -5.292718
221.86        2.698453
222.32        8.492563
222.77        15.30062
223.23        25.02772
223.69        37.10515
224.15        42.55392
224.61        38.10458
225.06        30.22446
225.52        24.99105
225.98        24.86315
226.44        29.39203
226.90        38.22579
227.36        50.05882
227.81        56.77849
228.27        54.41353
228.73        47.97671
229.19        42.08599
229.65        39.09628
230.10        38.60529
230.56        39.90546
231.02        42.21346
231.48        43.56264
231.93        43.06849
232.39        41.80687
232.85        41.08813
233.31        42.15776
233.77        44.71715
234.22        47.99634
234.68        50.98801
235.14        52.65955
235.60        52.86711
236.05        51.78301
236.51        49.64176
236.97        48.27668
237.43        49.06866
237.88        51.73758
238.34        54.24833
238.80        54.11789
239.26         50.2256
239.71        41.85968
240.17        27.62467
240.63        11.90979
241.08         3.81751
241.54        5.504031
242.00        12.27082
242.46        18.85505
242.91        25.40987
243.37        33.87651
243.83        48.47245
244.28        68.25171
244.74        78.27136
245.20        77.87403
245.66        72.71183
246.11        64.93232
246.57        53.47176
247.03        34.64267
247.48        3.426609
247.94       -33.96378
248.40       -59.13882
248.85       -67.81304
249.31       -56.49801
249.77        -31.9136
250.22       -5.952175
250.68        16.66584
251.14        32.05754
251.59        38.49765
252.05        37.12341
252.51        25.03125
252.96        -9.36692
253.42        -58.8292
253.88       -50.68077
254.33       -0.854405
254.79        28.51364
255.25        37.87728
255.70         38.7018
256.16        37.35238
256.62        36.60663
257.07        38.14164
257.53        41.22811
257.99        44.36333
258.44        46.48782
258.90        47.08381
259.35        46.20425
259.81        44.69131
260.27        43.06567
260.72        42.06618
261.18        41.97158
261.63        42.17698
262.09        42.47477
262.55        42.39931
263.00        41.84976
263.46        41.10691
263.91        40.21922
264.37         39.4475
264.83        38.79735
265.28         38.2338
265.74        37.70648
266.19        36.95187
266.65        36.05879
267.11        35.04481
267.56        34.21493
268.02        34.12008
268.47        34.76627
268.93        35.91325
269.38        37.05238
269.84         37.3075
270.30        36.51702
270.75        34.97338
271.21        33.16594
271.66        31.72764
272.12        30.90398
272.57        30.44012
273.03        30.25429
273.48        30.16802
273.94        30.09946
274.39        30.08676
274.85        30.01782
275.31        29.65918
275.76        29.00116
276.22        28.16533
276.67        27.29523
277.13        26.69865
277.58        26.36616
278.04        26.21983
278.49        26.13079
278.95        26.00521
279.40        25.75454
279.86        25.46586
280.31         25.0682
280.77        24.53625
281.22        23.86398
281.68        23.13552
282.13        22.42943
282.59        21.93292
283.04        21.64443
283.50        21.53284
283.95        21.51711
284.41        21.51263
284.86        21.46561
285.32        21.40579
285.77        21.32247
286.22        21.22645
286.68        21.12721
287.13        21.00461
287.59        20.86249
288.04         20.6764
288.50        20.47827
288.95         20.2465
289.41        20.06049
289.86        19.96684
290.32        19.98137
290.77        20.07559
291.22        20.16269
291.68        20.10467
292.13        19.88447
292.59        19.57867
293.04        19.28334
293.50        19.19534
293.95        19.34285
294.40        19.67341
294.86        20.10604
295.31        20.52393
295.77        20.87476
296.22        21.18506
296.68        21.45855
297.13        21.69325
297.58        21.90642
298.04        22.10999
298.49        22.31221
298.95        22.56604
299.40        22.86591
299.85        23.19359
300.31        23.55714
300.76        23.96966
301.21        24.42009
301.67        24.91038
302.12        25.34438
302.58        25.59527
303.03        25.63509
303.48          25.531
303.94        25.43507
304.39        25.52122
304.84        25.84031
305.30        26.32432
305.75        26.85931
306.20         27.2801
306.66        27.53921
307.11        27.66683
307.57        27.72274
308.02        27.75489
308.47        27.79431
308.93        27.82673
309.38        27.82085
309.83        27.77834
310.29        27.70806
310.74         27.6207
311.19        27.53646
311.65        27.46875
312.10        27.41797
312.55        27.37897
313.00        27.35878
313.46        27.36795
313.91        27.39457
314.36        27.42878
314.82        27.43406
315.27        27.36459
315.72        27.20854
316.18        26.98977
316.63        26.73407
317.08        26.48314
317.53        26.25254
317.99        26.03778
318.44        25.83935
318.89        25.67347
319.35        25.54092
319.80        25.43591
320.25        25.34197
320.70        25.22444
321.16        25.06999
321.61        24.89652
322.06        24.70835
322.51        24.51913
322.97        24.33378
323.42        24.15709
323.87        24.00288
324.32        23.90334
324.78        23.85382
325.23        23.84832
325.68        23.84494
326.13        23.78181
326.59        23.63514
327.04         23.4333
327.49         23.1871
327.94        22.92828
328.39        22.67455
328.85        22.41357
329.30        22.17732
329.75        21.99507
330.20        21.87375
330.66        21.80609
331.11        21.76719
331.56        21.68488
332.01        21.54311
332.46        21.36145
332.92        21.16744
333.37        21.03679
333.82        20.98317
334.27        20.99088
334.72        21.04342
335.17        21.11301
335.63        21.17153
336.08        21.22686
336.53        21.27478
336.98        21.32125
337.43        21.36399
337.88        21.40428
338.34        21.39462
338.79        21.27336
339.24        21.03663
339.69        20.71384
340.14        20.41577
340.59        20.31459
341.05        20.43337
341.50        20.72024
341.95         21.0483
342.40        21.20844
342.85        21.14848
343.30        20.94421
343.75        20.67749
344.20        20.47694
344.66        20.39017
345.11        20.36336
345.56         20.4088
346.01        20.54321
346.46        20.74662
346.91        21.01012
347.36         21.2465
347.81        21.32107
348.26        21.21347
348.72        20.96949
349.17        20.66369
349.62        20.45915
350.07        20.39655
350.52        20.42797
350.97        20.49106
351.42        20.47886
351.87        20.36672
352.32        20.20845
352.77        20.02794
353.22        19.85732
353.67        19.71375
354.13        19.58308
354.58        19.49158
355.03        19.51325
355.48        19.64965
355.93          19.886
356.38        20.11853
356.83        20.16993
357.28         20.0094
357.73        19.69676
358.18        19.37172
358.63        19.24579
359.08        19.35676
359.53        19.62946
359.98        19.95094
360.43        20.12822
360.88        20.10088
361.33        19.93707
361.78        19.69367
362.23        19.45137
362.68        19.24327
363.13        19.04194
363.58        18.86695
364.03         18.7574
364.48        18.71246
364.93        18.72139
365.38        18.73839
365.83        18.68395
366.28        18.54058
366.73        18.33587
367.18        18.09435
367.63        17.86191
368.08        17.66495
368.53        17.49418
368.98         17.3694
369.43        17.31954
369.88        17.33663
370.33        17.40326
370.78        17.47497
371.23        17.47136
371.68        17.36895
372.13        17.19692
372.58        16.97456
373.03        16.73055
373.48        16.48603
373.93        16.23932
374.38        16.03776
374.83        15.95891
375.28        16.01195
375.72        16.16704
376.17        16.35225
376.62        16.45379
377.07        16.43914
377.52        16.33414
377.97        16.17482
378.42        16.02281
378.87        15.90185
379.32        15.79933
379.77        15.70439
380.22        15.60066
380.67        15.48582
381.11        15.37172
381.56        15.27868
382.01        15.23955
382.46        15.25776
382.91        15.31954
383.36        15.37941
383.81        15.37157
384.26        15.27972
384.71        15.11604
385.15        14.92751
385.60        14.80581
386.05        14.76646
386.50        14.79353
386.95        14.82295
387.40        14.75585
387.85         14.5835
388.29        14.33191
388.74        14.11932
389.19        14.06188
389.64        14.17165
390.09        14.39386
390.54        14.62892
390.98        14.71723
391.43        14.62785
391.88        14.42782
392.33        14.18953
392.78         14.0203
393.23        13.94723
393.67        13.90733
394.12        13.90671
394.57        13.96763
395.02        14.05755
395.47        14.08828
395.91        14.05448
396.36        14.01796
396.81        13.98823
397.26        13.92144
397.71        13.83466
398.15        13.79097
398.60        13.81199
399.05        13.81572
399.50        13.80789
399.95        13.90025
400.39        14.04163
400.84        13.98422
401.29        13.73829
401.74        13.54728
402.18        13.43461
402.63        13.26391
403.08        13.06849
403.53        12.95861
403.97         12.9417
404.42         12.9884
404.87        13.05755
405.32        13.07992
405.76        13.03376
406.21        12.94555
406.66        12.84096
407.11         12.7631
407.55        12.72902
408.00        12.72542
408.45        12.73936
408.90        12.73206
409.34        12.70148
409.79        12.68534
410.24        12.68876
410.68        12.68689
411.13        12.68189
411.58        12.68965
412.03         12.6936
412.47        12.66051
412.92        12.58593
413.37        12.48153
413.81        12.38307
414.26        12.35451
414.71        12.40067
415.15        12.51105
415.60        12.62541
416.05        12.65696
416.49        12.58409
416.94        12.43259
417.39        12.26908
417.83        12.19949
418.28        12.24813
418.73        12.38054
419.17        12.53137
419.62        12.58906
420.07        12.53286
420.51        12.39846
420.96        12.25363
421.41        12.18075
421.85        12.19382
422.30        12.26386
422.74         12.3517
423.19        12.41272
423.64        12.42785
424.08        12.41871
424.53        12.37121
424.98        12.28282
425.42        12.16684
425.87        12.03798
426.31        11.91795
426.76         11.8517
427.21        11.84289
427.65         11.8728
428.10        11.95358
428.54        12.09856
428.99        12.29052
429.44        12.53205
429.88        12.72106
430.33         12.7148
430.77         12.5074
431.22         12.1662
431.66         11.8173
432.11        11.68067
432.56        11.76183
433.00        11.97211
433.45        12.17025
433.89        12.07073
434.34        11.66976
434.78          11.749
435.23        12.34562
435.67        12.58408
436.12        12.45047
436.57        12.40964
437.01        12.48064
437.46        12.45557
437.90        12.33691
438.35        12.20741
438.79        12.09197
439.24        11.99525
439.68        11.94864
440.13        12.03231
440.57        12.18999
441.02        12.27423
441.46         12.2624
441.91        12.14214
442.35        11.97798
442.80        12.06962
443.24        12.33079
443.69        12.27291
444.13        11.93919
444.58         11.8164
445.02         11.9131
445.47        11.96607
445.91        11.97348
446.36         12.0553
446.80        12.20391
447.24        12.38191
447.69        12.53868
448.13        12.59835
448.58        12.54876
449.02        12.41421
449.47        12.25898
449.91        12.17499
450.36        12.18883
450.80         12.2698
451.25        12.37073
451.69        12.40667
452.13        12.35933
452.58        12.26165
453.02        12.14726
453.47        12.07687
453.91        12.06501
454.36        12.09266
454.80        12.13858
455.24        12.16725
455.69        12.17033
456.13        12.15292
456.58        12.13493
457.02        12.12757
457.46        12.13821
457.91        12.16038
458.35        12.17751
458.79        12.14735
459.24        12.07248
459.68        11.99583
460.13        11.96421
460.57        11.80092
461.01        11.85864
461.46        11.86967
461.90        11.91773
462.34        11.91671
462.79        11.92404
463.23        11.89095
463.68        11.86873
464.12        11.91001
464.56        12.01872
465.01        12.18615
465.45        12.33002
465.89        12.35337
466.34         12.2508
466.78         12.0495
467.22        11.83046
467.67        11.75601
468.11        11.81461
468.55        12.00588
468.99        12.23918
469.44         12.3962
469.88        12.44544
470.32        12.41554
470.77        12.34943
471.21        12.31332
471.65        12.32791
472.10        12.37102
472.54        12.41023
472.98        12.40687
473.42        12.35648
473.87        12.28684
474.31        12.21997
474.75        12.19899
475.20        12.23591
475.64        12.30521
476.08        12.38786
476.52        12.48666
476.97         12.5969
477.41        12.65909
477.85        12.64234
478.29        12.85632
478.74        12.74917
479.18        12.74627
479.62         12.7089
480.06        12.75853
480.50         12.9063
480.95        12.87943
481.39        13.09032
481.83        13.13185
482.27        13.13284
482.72        13.10868
483.16         13.0766
483.60        13.08878
484.04        13.13462
484.48         13.1701
484.93        13.28048
485.37         13.4946
485.81        13.61852
486.25        14.15868
486.69        13.15551
487.14        12.90506
487.58        13.67456
488.02        13.90925
488.46        13.78483
488.90        14.11033
489.34        13.97126
489.79         13.9613
490.23        14.34496
490.67         14.5712
491.11        14.75059
491.55        14.77365
491.99         14.6904
492.43        14.69615
492.88        14.80613
493.32        14.87834
493.76        14.91762
494.20        15.02366
494.64        15.20309
495.08        15.40701
495.52        15.60272
495.96          15.794
496.41        15.95076
496.85        15.95339
497.29        15.85854
497.73        15.94265
498.17        16.18504
498.61        16.26653
499.05        16.19416
499.49        16.22942
499.93          16.379
500.37        16.49879
500.82        16.58117
501.26         16.6752
501.70        16.77979
502.14        16.88015
502.58        16.97154
503.02        17.04854
503.46        17.11237
503.90        17.16803
504.34        17.22835
504.78        17.31209
505.22         17.4216
505.66        17.54873
506.10        17.67662
506.54        17.77732
506.98        17.84126
507.42        17.87581
507.86        17.88873
508.30        17.89225
508.74        17.89447
509.18        17.89685
509.62        17.90425
510.06        17.92395
510.50        17.95914
510.94        18.00897
511.38        18.07523
511.82        18.15926
512.26        18.25441
512.70        18.35162
513.14        18.43507
513.58        18.48252
514.02        18.48866
514.46        18.46182
514.90        18.40767
515.34        18.33702
515.78        18.26039
516.22        18.18096
516.66        18.11757
517.10        18.09641
517.54        18.12156
517.98        18.18682
518.42        18.26931
518.86        18.32887
519.30        18.35279
519.74        18.34802
520.18        18.32899
520.62        18.32209
521.06        18.33183
521.50        18.34529
521.93        18.35189
522.37        18.33088
522.81        18.28197
523.25        18.22051
523.69        18.15084
524.13        18.07663
524.57        18.00558
525.01        17.93772
525.45        17.89543
525.89        17.91387
526.32        17.99247
526.76         18.1123
527.20        18.23254
527.64        18.28668
528.08        18.25811
528.52        18.16952
528.96        18.04628
529.40           17.93
529.83        17.83539
530.27        17.75573
530.71          17.698
531.15        17.67736
531.59        17.69117
532.03        17.73485
532.46        17.77812
532.90        17.77301
533.34        17.71158
533.78        17.59601
534.22        17.45748
534.66        17.37416
535.09         17.3433
535.53          17.293
535.97        17.22615
536.41        17.20919
536.85        17.24308
537.28        17.29089
537.72        17.34723
538.16        17.42085
538.60        17.50464
539.04        17.58919
539.47        17.66525
539.91        17.73254
540.35        17.78603
540.79        17.83603
541.22        17.88334
541.66        17.90234
542.10        17.94304
542.54        17.97124
542.97        18.01292
543.41        18.09743
543.85        18.22392
544.29        18.38481
544.72        18.55503
545.16        18.70336
545.60        18.81916
546.04         18.9088
546.47        18.99035
546.91        19.09831
547.35        19.23941
547.79        19.39668
548.22        19.53833
548.66         19.6594
549.10        19.75741
549.53        19.74903
549.97        19.83781
550.41        19.94092
550.84        20.11715
551.28        20.34995
551.72        20.59842
552.15        20.77573
552.59        20.87381
553.03        20.94318
553.46         20.9989
553.90        21.07729
554.34        21.18921
554.77        21.28932
555.21        21.35045
555.65        21.56279
556.08        21.51548
556.52        21.55873
556.96        21.58358
557.39        21.63079
557.83        21.71181
558.27        21.78442
558.70        21.84904
559.14        22.01362
559.57        22.07584
560.01        22.22692
560.45        22.35796
560.88        22.37391
561.32        22.31804
561.75        22.22014
562.19        22.15277
562.63        22.32151
563.06        22.63596
563.50        22.61998
563.93        22.32807
564.37        22.28261
564.80        22.49138
565.24        22.67064
565.68        22.78715
566.11         22.9232
566.55        23.07459
566.98        23.20489
567.42        23.32821
567.85         23.4516
568.29        23.58689
568.72        23.71273
569.16        23.83483
569.60        23.92737
570.03        23.98041
570.47         23.9801
570.90        24.13365
571.34        24.04378
571.77        24.22741
572.21        24.32823
572.64        24.47831
573.08          24.495
573.51        24.90642
573.95        24.86627
574.38        24.78797
574.82        25.02595
575.25        24.91572
575.69        24.99662
576.12        25.04188
576.56         25.2645
576.99        25.64004
577.42        25.32027
577.86        25.21041
578.29        25.15093
578.73        25.22955
579.16        25.06296
579.60        24.77978
580.03        24.71373
580.47        24.99663
580.90        24.63151
581.33        24.98789
581.77        25.03438
582.20        24.82522
582.64        24.64342
583.07        24.39948
583.51        24.26617
583.94        24.32582
584.37        24.35852
584.81        24.30745
585.24        24.21671
585.68        24.14973
586.11        23.84639
586.54        23.86937
586.98        23.81125
587.41        23.78683
587.85        23.89457
588.28        23.67403
588.71        23.32924
589.15        23.67044
589.58         23.3359
590.01        23.39486
590.45        23.40827
590.88         23.5725
591.31        23.61874
591.75        23.55495
592.18        23.44884
592.61        23.26825
593.05         23.6774
593.48        23.43192
593.91        23.47965
594.35        23.55527
594.78        23.65503
595.21        23.79159
595.65         23.8779
596.08        23.92083
596.51        24.16398
596.94        24.24598
597.38        24.45591
597.81         24.7028
598.24         24.6007
598.68        25.10215
599.11        25.07774
599.54        25.45791
599.97        25.67832
600.41        25.87124
600.84        26.32178
601.27        26.50408
601.70        26.97155
602.14        27.34172
602.57        27.55238
603.00          27.587
603.43         27.6904
603.87        28.09999
604.30        28.38009
604.73        28.61968
605.16        28.96437
605.60        29.39131
606.03        29.81486
606.46        30.10837
606.89        30.41549
607.32        30.42567
607.76        30.59818
608.19        30.84155
608.62        31.26663
609.05        31.64046
609.48        31.79117
609.92        31.74122
610.35        32.04184
610.78          32.663
611.21        33.03255
611.64        33.11633
612.07         33.4954
612.50        33.68718
612.94        33.89759
613.37        34.01677
613.80        34.16842
614.23        34.32165
614.66        34.68278
615.09        34.69624
615.52        34.84485
615.96        34.99836
616.39        35.25725
616.82        35.59156
617.25         35.8927
617.68        36.11071
618.11        36.18843
618.54        36.15981
618.97        36.17537
619.40        36.29666
619.84        36.40395
620.27        36.50286
620.70        36.85011
621.13        37.40231
621.56        37.19423
621.99          37.211
622.42        37.21458
622.85        37.34078
623.28        37.10526
623.71        37.19023
624.14         37.5267
624.57        37.62215
625.00        37.74461
625.43        37.67428
625.86        37.56562
626.29        37.44156
626.72        37.11723
627.15        37.05272
627.58        36.80237
628.01        36.54517
628.44        36.55018
628.87        36.72999
629.30        36.59866
629.73        36.18227
630.16         35.9627
630.59        35.89157
631.02        35.75462
631.45        35.51541
631.88        35.27127
632.31        35.02216
632.74        34.74375
633.17        34.45301
633.60         34.1761
634.03        33.92087
634.46        33.67448
634.89        33.41479
635.32        33.14055
635.75        32.85496
636.18        32.41895
636.61        32.11598
637.04        31.76761
637.47        31.46123
637.89        31.17643
638.32        30.88968
638.75        30.60444
639.18        30.32299
639.61        29.94538
640.04          29.693
640.47        29.42549
640.90        29.20955
641.33        29.02684
641.76        28.86805
642.18        28.75914
642.61         28.6956
643.04        28.60853
643.47        28.46371
643.90        28.60784
644.33        28.42149
644.76        28.36552
645.18         28.2878
645.61        28.34896
646.04        28.50946
646.47        28.53473
646.90        28.46106
647.33         28.5369
647.75        28.77174
648.18         29.0211
648.61        29.25054
649.04        29.44687
649.47        29.59507
649.89        29.77466
650.32        29.98251
650.75        30.05683
651.18        30.07424
651.61        30.43441
652.03        31.09618
652.46        31.46069
652.89        31.51247
653.32        31.81668
653.74        32.44927
654.17        32.47341
654.60        32.92018
655.03        33.26218
655.46        33.18931
655.88        33.59535
656.31        37.07681
656.74        36.06293
657.16        33.53991
657.59        33.68304
658.02        35.06926
658.45        35.26651
658.87        35.90538
659.30         35.3553
659.73        35.68762
660.15        36.35148
660.58        36.40085
661.01        36.63195
661.44        36.68526
661.86        36.85097
662.29        37.14537
662.72        37.44943
663.14        37.75792
663.57        38.06096
664.00        38.31581
664.42        38.46651
664.85         38.5143
665.27        38.45544
665.70        38.37314
666.13        38.41084
666.55        38.60588
666.98        38.91226
667.41         39.2654
667.83        39.55399
668.26        39.73067
668.69        39.82754
669.11        39.88384
669.54        39.98017
669.96        40.13039
670.39        40.26838
670.82        40.38071
671.24         40.4776
671.67        40.55411
672.09        40.59801
672.52        40.63273
672.94        40.67189
673.37        40.72778
673.80        40.78955
674.22        40.86303
674.65        40.95023
675.07        41.05223
675.50        41.12868
675.92        41.19665
676.35        41.30608
676.77        41.46178
677.20        41.63019
677.62        41.79195
678.05        41.91613
678.47        41.99397
678.90        42.04002
679.32        42.06898
679.75        42.11969
680.17        42.19926
680.60        42.29892
681.02        42.41419
681.45        42.52873
681.87        42.64347
682.30        42.75439
682.72        42.86469
683.15        42.95568
683.57        43.03125
684.00        43.09387
684.42        43.14808
684.85        43.21032
685.27        43.27545
685.70        43.34253
686.12        43.40652
686.54        43.47445
686.97        43.54308
687.39        43.64253
687.82        43.73219
688.24        43.79083
688.66        43.62991
689.09        43.72995
689.51         44.0164
689.94        44.19958
690.36        44.26683
690.78        44.40339
691.21        44.62056
691.63        44.78112
692.06        44.91624
692.48        45.21907
692.90        45.60977
693.33        45.79496
693.75        45.74689
694.17        45.55992
694.60         45.3541
695.02        45.30545
695.44        45.41053
695.87        45.57617
696.29         45.7319
696.71        45.63117
697.14        45.39219
697.56        45.59021
697.98        46.15294
698.41        46.44546
698.83        46.42836
699.25        46.49947
699.68        46.60745
700.10        46.71377
700.52         46.8012
700.94        46.86506
701.37        46.91842
701.79        47.07626
702.21        47.28962
702.64        47.41621
703.06        47.45307
703.48        47.44935
703.90         47.3973
704.33        47.57274
704.75        47.39323
705.17        47.41419
705.59        47.46896
706.01        47.54867
706.44        47.65631
706.86        47.80875
707.28        47.98994
707.70        48.22686
708.12        48.46845
708.55        48.53388
708.97        48.45323
709.39        48.47235
709.81        48.59792
710.23        48.64776
710.66        48.62225
711.08        48.64972
711.50        48.72781
711.92        48.80219
712.34        48.87156
712.76         48.9562
713.19        49.03513
713.61        49.10569
714.03         49.1512
714.45        49.17186
714.87        49.19764
715.29        49.27823
715.71        49.42105
716.13        49.61175
716.56        49.79137
716.98        49.92274
717.40        49.96535
717.82         49.9356
718.24        49.88231
718.66        49.88514
719.08        49.96371
719.50        50.09644
719.92        50.23591
720.34         50.3046
720.76        50.28634
721.19        50.20992
721.61        50.13119
722.03        50.12983
722.45        50.23133
722.87        50.41741
723.29        50.64222
723.71        50.82927
724.13        50.94823
724.55        51.01121
724.97        51.08327
725.39        51.19402
725.81        51.33771
726.23         51.6365
726.65        52.03254
727.07        51.66555
727.49        51.73923
727.91        51.33592
728.33        50.95238
728.75        50.76668
729.17        50.83664
729.59        51.08462
730.01        51.40305
730.43        51.63696
730.85        51.72832
731.27        51.73647
731.69        51.68745
732.10         51.6223
732.52        51.56451
732.94        51.48478
733.36        51.43859
733.78        51.50708
734.20        51.69486
734.62        52.04251
735.04        52.42945
735.46        52.51284
735.88        52.33693
736.30         52.2798
736.72        52.36946
737.13        52.46347
737.55        52.50452
737.97        52.37926
738.39        52.17022
738.81        52.27558
739.23        52.65403
739.65        52.81664
740.06        52.72067
740.48        52.75758
740.90        52.90703
741.32        52.97518
741.74        52.94957
742.16        52.90893
742.57        52.86228
742.99        52.82212
743.41        52.82996
743.83        52.84278
744.25        52.90771
744.67        53.22816
745.08        53.69905
745.50         53.8744
745.92        53.71092
746.34        53.41137
746.75        53.07782
747.17        52.83551
747.59        52.72618
748.01        52.72391
748.42        52.81443
748.84        52.95087
749.26        53.11646
749.68        53.30376
750.09        53.48623
750.51        53.66755
750.93         53.8177
751.35         53.8597
751.76        53.82772
752.18        53.84929
752.60        53.94314
753.01        54.06365
753.43        54.17491
753.85        54.26287
754.27        54.31994
754.68        54.39806
755.10        54.43492
755.52        54.48576
755.93        54.51829
756.35        54.51851
756.77         54.5145
757.18         54.4926
757.60        54.46258
758.02        54.60713
758.43        54.79586
758.85        54.53489
759.26        53.98099
759.68        53.93006
760.10        54.56335
760.51        54.96824
760.93        55.02161
761.34         54.8716
761.76        54.61111
762.18        54.26847
762.59         54.0404
763.01        54.31561
763.42        54.99385
763.84        55.29892
764.26        55.15635
764.67        54.92289
765.09        54.74797
765.50        54.69294
765.92        54.78526
766.33        54.83711
766.75         54.7323
767.16        54.93208
767.58        54.68871
768.00        54.86775
768.41        55.25261
768.83        55.81959
769.24        56.38509
769.66        56.47404
770.07        56.14877
770.49        55.93383
770.90        55.90762
771.32        55.87206
771.73        55.80925
772.15        55.71627
772.56        55.60737
772.97        55.54573
773.39        55.53915
773.80        55.59775
774.22        55.69506
774.63        55.86615
775.05         56.0495
775.46        56.19788
775.88        56.26855
776.29        56.28939
776.70        56.28362
777.12        56.31047
777.53        56.39737
777.95        56.50909
778.36        56.60771
778.77        56.60307
779.19        56.48187
779.60        56.30674
780.02        56.13192
780.43        55.98568
780.84        55.93334
781.26        56.05862
781.67        56.29596
782.09        56.48179
782.50        56.52943
782.91         56.3079
783.33        55.95659
783.74         55.9017
784.15        56.19115
784.57        56.60829
784.98        57.11162
785.39        57.41516
785.81        57.85106
786.22        58.01111
786.63        58.28527
787.04         58.1182
787.46        57.73692
787.87        57.52903
788.28        57.56846
788.70        57.61467
789.11        57.65775
789.52         57.9136
789.93        58.27014
790.35        58.40136
790.76        58.28481
791.17        58.03822
791.58        57.76968
792.00        57.61879
792.41        57.64269
792.82        57.75019
793.23        57.86734
793.65        58.02341
794.06        58.12044
794.47        57.83341
794.88        57.33803
795.29        57.16331
795.71        57.29659
796.12        57.56797
796.53        57.83611
796.94          57.946
797.35        57.82502
797.76        57.53506
798.18        57.24205
798.59        57.16972
799.00         57.3744
799.41        57.77038
799.82        58.23756
800.23         58.5743
800.64        58.70765
801.06        58.68403
801.47        58.56143
801.88        58.36646
802.29        58.13693
802.70        57.85479
803.11        57.60595
803.52        57.53251
803.93        57.67319
804.34         58.0075
804.75        58.40424
805.17        58.70401
805.58         58.8888
805.99        58.68822
806.40        58.26609
806.81        58.57622
807.22        59.36144
807.63        59.02069
808.04        57.73925
808.45        57.22168
808.86        57.59689
809.27        57.91241
809.68         58.0606
810.09        58.30112
810.50        58.58257
810.91        58.83142
811.32        58.99148
811.73        58.97606
812.14         58.7819
812.55        58.44452
812.96        58.09954
813.37        57.97755
813.78        58.13832
814.19        58.51682
814.60        58.98071
815.01        59.31949
815.42        59.47285
815.83        59.49599
816.24        59.43085
816.65        59.36074
817.05        59.32576
817.46        59.27134
817.87        59.21914
818.28        59.17371
818.69        59.13188
819.10        59.10259
819.51        59.08102
819.92        59.04816
820.33        58.99892
820.74        58.93787
821.14         58.8616
821.55        58.78733
821.96        58.71358
822.37        58.65821
822.78        58.63067
823.19        58.64473
823.60        58.71028
824.00        58.83241
824.41        59.00444
824.82        59.30527
825.23        59.71737
825.64        60.18887
826.04        60.62084
826.45        60.79008
826.86        60.66853
827.27        60.33025
827.68        59.84739
828.08        59.36268
828.49        58.92111
828.90        58.51007
829.31        58.22649
829.72        58.20803
830.12        58.49379
830.53        59.03289
830.94        59.62649
831.35        59.86671
831.75        59.66341
832.16        59.07864
832.57        58.44144
832.97        58.25798
833.38        58.61699
833.79        59.35865
834.20        60.17547
834.60        60.53922
835.01        60.29249
835.42        59.64715
835.82        58.85225
836.23         58.2775
836.64        58.04781
837.04        58.05364
837.45        58.23069
837.86        58.52571
838.26        58.88632
838.67        59.29705
839.08        59.66384
839.48        59.80071
839.89        59.66257
840.29        59.30032
840.70        58.83402
841.11        58.43325
841.51        58.17817
841.92        58.01445
842.33        57.97486
842.73        58.10632
843.14        58.35598
843.54        58.75689
843.95         59.1825
844.35        59.46838
844.76        59.53748
845.17        59.41069
845.57        59.20027
845.98        59.08585
846.38        59.13126
846.79        59.28609
847.19        59.44238
847.60        59.35313
848.00        58.99945
848.41        58.45555
848.81        57.94751
849.22        57.79161
849.62        58.05995
850.03        58.62233
850.43        59.26641
850.84        59.50749
851.24        59.26879
851.65        58.67989
852.05        57.99372
852.46        57.61329
852.86        57.64157
853.27        57.92636
853.67        58.34309
854.07        58.87001
854.48        59.41772
854.88        60.10749
855.29        60.63951
855.69        60.63932
856.10        59.94611
856.50        58.76319
856.90        57.55278
857.31         56.9988
857.71        57.23462
858.12        58.02677
858.52        59.10435
858.92         59.7564
859.33         59.7179
859.73        59.24532
860.13        58.48435
860.54        57.68972
860.94        56.98977
861.34        56.29645
861.75        55.75423
862.15        55.65694
862.55        56.03427
862.96        56.80974
863.36        57.72773
863.76        58.26561
864.17        58.28705
864.57        57.92797
864.97        57.41282
865.38        57.14576
865.78        57.25586
866.18        57.58442
866.58        57.97579
866.99        58.15941
867.39        58.07496
867.79        57.84809
868.19        57.51139
868.60         57.0613
869.00        56.52776
869.40        55.89811
869.80        55.38614
870.21        55.38473
870.61        55.99891
871.01        57.04953
871.41        58.12207
871.81         58.5924
872.22        58.32462
872.62         57.4994
873.02        56.46013
873.42        55.78659
873.82        55.67467
874.22        55.98813
874.63         56.5069
875.03        56.87655
875.43        56.99588
875.83        56.96532
876.23        56.98447
876.63        57.35548
877.03        58.11361
877.44        59.10905
877.84        60.04164
878.24        60.38927
878.64        60.04309
879.04         59.1927
879.44        58.19708
879.84        57.59317
880.24         57.5139
880.64        57.80408
881.04        58.25328
881.44        58.51079
881.84        58.47614
882.24        58.27763
882.65         57.9991
883.05        57.87006
883.45        57.92543
883.85         58.0657
884.25        58.27527
884.65        58.55414
885.05         58.8879
885.45        59.30148
885.85        59.68146
886.25        59.82609
886.65        59.68829
887.05         59.2943
887.45        58.85911
887.85        58.72863
888.25        58.96962
888.65        59.49929
889.04        60.02121
889.44        60.02625
889.84        59.43884
890.24        58.42935
890.64         57.3961
891.04        56.90957
891.44        57.08456
891.84        57.77173
892.24        58.58601
892.64        58.87015
893.04        58.46924
893.44        57.59557
893.83        56.70396
894.23        56.48167
894.63        57.04987
895.03        58.19405
895.43        59.46633
895.83        60.05936
896.23        59.75397
896.63        58.85056
897.02        57.76606
897.42        57.18121
897.82        57.19515
898.22         57.6329
898.62         58.2679
899.01        58.73903
899.41        58.87896
899.81        58.83157
900.21        58.76894
900.61        58.96865
901.00        59.48203
901.40        60.15104
901.80        60.77877
902.20        61.08704
902.59        61.01543
902.99        60.67603
903.39        60.17915
903.79        59.69908
904.18        59.30232
904.58        58.95225
904.98        58.70155
905.38        58.63666
905.77        58.75064
906.17        59.06562
906.57        59.38187
906.96        59.37191
907.36        58.96895
907.76        58.27095
908.15        57.61267
908.55        57.50344
908.95        58.05787
909.34        59.10891
909.74        60.24663
910.14        60.87492
910.53        60.81337
910.93        60.24099
911.33        59.43319
911.72        58.82363
912.12        58.57031
912.52        58.54186
912.91        58.58174
913.31         58.4397
913.70        58.06691
914.10        57.58576
914.49        57.16495
914.89        57.01966
915.29        57.19844
915.68        57.60243
916.08        58.09753
916.47        58.47756
916.87        58.66436
917.26        58.72066
917.66        58.68526
918.05        58.62445
918.45        58.56649
918.84        58.51732
919.24        58.50368
919.64        58.63396
920.03        58.93123
920.42        59.34064
920.82         59.7788
921.21        60.15451
921.61        60.40315
922.00        60.54004
922.40        60.53535
922.79        60.40166
923.19        60.14418
923.58        59.78457
923.98        59.34274
924.37         58.7985
924.77        58.19798
925.16         57.5733
925.55        57.03377
925.95        56.73185
926.34        56.72806
926.74        56.94269
927.13        57.39217
927.52        58.00191
927.92        58.69138
928.31        59.45658
928.70         60.1158
929.10        60.41213
929.49          60.306
929.89         59.8505
930.28        59.24832
930.67        58.81697
931.07        58.65428
931.46        58.68174
931.85        58.82263
932.24        58.93537
932.64        58.96284
933.03        59.00301
933.42        58.99202
933.82        58.83881
934.21        58.54662
934.60        58.10334
934.99        57.71852
935.39        57.69448
935.78        58.10126
936.17        58.89233
936.56         59.7131
936.96        59.91592
937.35        59.38874
937.74         58.2994
938.13        57.17255
938.53        56.70997
938.92        57.00219
939.31        57.88255
939.70        58.91638
940.09        59.30703
940.49        58.84034
940.88         57.7991
941.27         56.6629
941.66        56.13802
942.05         56.3996
942.44        57.25274
942.84           58.34
943.23        59.05318
943.62        59.13319
944.01        58.75528
944.40        58.22861
944.79         58.0437
945.18        58.30848
945.57        58.82587
945.97        59.30137
946.36        59.38951
946.75        58.97135
947.14        58.20272
947.53        57.28899
947.92        56.57758
948.31        56.21737
948.70        56.13291
949.09        56.24625
949.48        56.42367
949.87        56.61764
950.26        56.88304
950.65        57.22455
951.04        57.63082
951.43        58.06824
951.82        58.46233
952.21         58.7878
952.60        59.06118
952.99        59.24753
953.38        59.29771
953.77        59.15313
954.16        58.71054
954.55        58.01486
954.94        57.24421
955.33        56.42527
955.72        55.57018
956.11        54.73916
956.50        53.89331
956.89        53.41617
957.28        53.92279
957.66        55.50692
958.05        57.91105
958.44        60.28627
958.83        61.03747
959.22        59.80241
959.61         57.1542
960.00        54.20866
960.39        52.56384
960.78        52.58319
961.16        53.83544
961.55        55.68875
961.94        57.16509
962.33        57.87991
962.72        58.10843
963.11        58.02533
963.49        57.94735
963.88        57.95501
964.27        57.90451
964.66        57.71341
965.04        57.32462
965.43        56.72868
965.82        55.98872
966.21        55.26661
966.60        54.82577
966.98        54.76538
967.37        55.02852
967.76        55.40586
968.15        55.52163
968.53        55.29317
968.92        54.82467
969.31        54.34489
969.69        54.22711
970.08        54.51781
970.47         55.0694
970.86        55.68696
971.24        56.03616
971.63        55.94951
972.02        55.57312
972.40        54.95139
972.79        54.17127
973.17         53.3551
973.56        52.50988
973.95        51.81502
974.33        51.52877
974.72        51.65332
975.11         52.1069
975.49         52.8269
975.88        53.66013
976.26          54.509
976.65        55.31482
977.04         55.8313
977.42        55.66725
977.81        54.79451
978.19        53.34278
978.58        52.04337
978.96        51.79279
979.35         52.7511
979.74        54.71618
980.12        57.21681
980.51        58.75127
980.89        58.96389
981.28        58.14557
981.66        56.82382
982.05        55.99865
982.43        55.92787
982.82        56.30253
983.20        57.09093
983.59        58.09328
983.97        59.25862
984.35        60.58994
984.74        61.66709
985.12        61.95356
985.51        61.31584
985.89        59.83739
986.28        58.12283
986.66        56.99351
987.04        56.79042
987.43          57.329
987.81        58.09539
988.20        58.03333
988.58        56.94506
988.96          55.046
989.35        53.21957
989.73        52.82051
990.12        54.05523
990.50        56.52777
990.88        59.01384
991.27         59.5309
991.65        57.75353
992.03        54.40366
992.42        50.82752
992.80        48.84703
993.18        49.04811
993.56        50.82075
993.95        53.41288
994.33        55.75627
994.71        57.17708
995.10        58.01174
995.48        58.22063
995.86        57.75137
996.24        56.75716
996.63         55.2337
997.01        53.60324
997.39        52.51375
997.77        52.10851
998.15        52.28979
998.54         52.8803
998.92        53.44783
999.30         53.8292
999.68        54.13601
1000.06         54.3468
1000.45        54.40518
1000.83        54.41082
1001.21        54.24722
1001.59        54.01277
1001.97        53.92866
1002.35        54.05629
1002.73        54.37725
1003.12         54.7597
1003.50        54.90598
1003.88        54.79308
1004.26        54.52045
1004.64        54.25707
1005.02        54.24156
1005.40        54.52102
1005.78        55.01332
1006.16        55.57803
1006.54        55.95712
1006.92        56.03012
1007.30        55.82558
1007.69        55.38841
1008.07         55.0304
1008.45        54.75183
1008.83        54.53996
1009.21        54.28068
1009.59        53.76694
1009.97        53.00454
1010.35        52.11283
1010.73        51.41458
1011.11        51.44721
1011.49         52.3835
1011.86        54.22176
1012.24        56.44029
1012.62        58.41748
1013.00        59.83899
1013.38        60.73835
1013.76        61.30523
1014.14        62.01723
1014.52        62.98199
1014.90         63.9692
1015.28        64.61002
1015.66        64.31799
1016.04        63.14809
1016.41        61.62263
1016.79         60.1289
1017.17        58.89562
1017.55        57.81675
1017.93        56.55368
1018.31        55.29668
1018.69        54.86434
1019.06        55.52105
1019.44         56.8841
1019.82        57.78714
1020.20        57.09341
1020.58        54.74987
1020.95        50.69067
1021.33        45.89155
1021.71         43.1707
1022.09        44.22659
1022.46        48.40255
1022.84        53.73318
1023.22         57.4651
1023.60        58.84528
1023.97        58.64537
1024.35        57.39825
1024.73        56.10796
