SpectraSmart Spectrum 2.9.0.0
--------- Device Information -----------
Spectrum Name :  反射率_0
Saving Time :  2024/05/01 17:17:29
Spectro-Module Model Name : SE2030-DUVN
Spectro-Module Serial Number : OS361AC55029948
Wavelength Start : 200
Wavelength End : 1025
Wavelength Unit : Wavelength(nm)
Spectrum Unit : Reflectance(%)
-----------Spectrum Setting ------------
Integration Time : 20ms
Average : 10
Boxcar : 0
Background removal :  enabled
linearity correction :  enabled
SC :  disabled
Intensity correction :  disabled
DWT denoise :  enabled
savitzky-golay :  disabled
FFT :  disabled
Running average :  disabled
Kalman :  disabled
High pass :  disabled
---------------BEGIN--------------------
Wavelength(nm)             Reflectance(%)
200.29               0
200.75        286.1812
201.21        1036.744
201.67       -382.8835
202.13       -128.0289
202.58       -52.38171
203.04       -10.98133
203.50        12.60718
203.96        20.72843
204.42        14.56485
204.88        -23.9657
205.34       -1116.047
205.80        217.2226
206.26        163.2465
206.72        167.1169
207.18        300.3305
207.64       -156.6846
208.10       -21.48198
208.55        1.961608
209.01        7.238178
209.47        6.916009
209.93        3.465313
210.39       -3.747719
210.85       -16.80226
211.31       -45.34393
211.77       -147.6545
212.23        660.1045
212.69        175.2373
213.14        159.5004
213.60        253.9505
214.06       -944.4133
214.52       -122.4757
214.98       -70.00407
215.44       -60.48046
215.90       -77.73283
216.36       -455.0229
216.81        120.7274
217.27        126.8813
217.73       -263.0121
218.19       -64.95049
218.65       -61.03143
219.11       -89.65348
219.57       -193.8281
220.02        -615.942
220.48       -307.6717
220.94       -84.12138
221.40       -27.04837
221.86       -6.714861
222.32        1.749808
222.77        6.409491
223.23        10.05472
223.69        14.43184
224.15        19.97339
224.61        24.33301
225.06        26.31144
225.52        27.48537
225.98        29.20044
226.44        31.95695
226.90        36.08435
227.36        40.79574
227.81        42.24994
228.27         39.4261
228.73        35.11151
229.19        31.78671
229.65         30.6683
230.10        31.46199
230.56        33.98833
231.02        37.56413
231.48        39.90425
231.93        39.83214
232.39        38.48779
232.85        37.17444
233.31        37.18888
233.77        38.43102
234.22         40.2486
234.68        42.07156
235.14        43.43507
235.60        44.31848
236.05        45.04061
236.51        45.66525
236.97        46.27886
237.43        46.69408
237.88        46.53349
238.34         45.6164
238.80        44.28214
239.26        42.34184
239.71        39.68332
240.17        34.90959
240.63        26.25677
241.08        16.02179
241.54        8.247273
242.00        5.200411
242.46        7.103222
242.91        14.38906
243.37        28.94696
243.83        55.76395
244.28        84.37447
244.74        90.86564
245.20        82.79895
245.66        71.72138
246.11        61.25515
246.57         49.3451
247.03        31.05715
247.48        1.314445
247.94       -34.34987
248.40       -58.89193
248.85       -67.15166
249.31       -56.99467
249.77       -36.32119
250.22        -15.1658
250.68        2.895163
251.14        15.24624
251.59        20.87945
252.05        21.02955
252.51        14.36519
252.96       -6.413367
253.42       -35.84333
253.88       -29.14449
254.33        2.930231
254.79        23.03859
255.25        32.23433
255.70        36.73094
256.16        39.71795
256.62        42.17192
257.07        44.47372
257.53        46.75686
257.99        48.61703
258.44        49.88794
258.90        50.81411
259.35        51.22132
259.81        51.47318
260.27        51.40871
260.72         50.8638
261.18        50.17222
261.63        49.24038
262.09        48.42043
262.55        47.75744
263.00        47.15577
263.46        46.65399
263.91        46.10061
264.37         45.5744
264.83         45.0139
265.28        44.44474
265.74        43.84979
266.19        42.96039
266.65        41.89264
267.11        40.67276
267.56        39.59613
268.02        39.21684
268.47        39.55694
268.93        40.38008
269.38        41.28279
269.84        41.55165
270.30        41.02925
270.75        39.94002
271.21         38.5756
271.66        37.26377
272.12        36.20807
272.57        35.26299
273.03        34.53641
273.48        34.14125
273.94        34.06522
274.39         34.2205
274.85        34.40451
275.31        34.24992
275.76        33.68909
276.22        32.89459
276.67        31.97611
277.13        31.19884
277.58        30.57023
278.04         30.0571
278.49        29.60871
278.95        29.26839
279.40        28.97308
279.86        28.75737
280.31        28.51948
280.77        28.20082
281.22        27.74964
281.68        27.24961
282.13        26.69846
282.59        26.18215
283.04        25.69695
283.50        25.26648
283.95        24.90335
284.41        24.68205
284.86        24.58685
285.32        24.59823
285.77        24.65629
286.22        24.70767
286.68        24.73266
287.13        24.72537
287.59        24.66464
288.04        24.48118
288.50        24.20763
288.95        23.83507
289.41        23.49095
289.86        23.28402
290.32        23.25231
290.77        23.35397
291.22        23.48866
291.68        23.49119
292.13        23.33471
292.59        23.10478
293.04        22.90356
293.50        22.93999
293.95        23.23574
294.40        23.72054
294.86        24.29199
295.31        24.80369
295.77        25.19517
296.22        25.50126
296.68        25.73387
297.13        25.89911
297.58        26.02727
298.04        26.13607
298.49        26.25185
298.95        26.45779
299.40        26.75093
299.85         27.1013
300.31        27.50172
300.76        27.93629
301.21         28.3833
301.67         28.8487
302.12        29.22596
302.58        29.37862
303.03        29.28276
303.48        29.01648
303.94        28.75688
304.39        28.70547
304.84        28.91989
305.30        29.32225
305.75        29.78855
306.20        30.13938
306.66        30.32355
307.11        30.37705
307.57        30.35436
308.02        30.28943
308.47        30.21564
308.93        30.12239
309.38        29.99824
309.83        29.88016
310.29        29.78016
310.74        29.69185
311.19        29.61021
311.65        29.50868
312.10        29.37691
312.55         29.2259
313.00        29.07235
313.46        28.94131
313.91        28.83208
314.36        28.73419
314.82        28.62976
315.27        28.50367
315.72        28.34709
316.18        28.17236
316.63        27.97844
317.08        27.76567
317.53        27.53693
317.99        27.29685
318.44        27.05176
318.89        26.83065
319.35        26.64136
319.80        26.47318
320.25         26.3187
320.70        26.15887
321.16        25.98184
321.61        25.80295
322.06        25.61062
322.51         25.3907
322.97        25.14001
323.42        24.86944
323.87        24.60852
324.32         24.4165
324.78        24.29966
325.23        24.25109
325.68        24.21434
326.13        24.10243
326.59        23.88762
327.04        23.60517
327.49        23.29596
327.94        23.04152
328.39        22.86692
328.85        22.74113
329.30        22.64644
329.75        22.52764
330.20        22.36822
330.66        22.18497
331.11        21.99781
331.56        21.81219
332.01        21.63824
332.46        21.47277
332.92        21.32419
333.37        21.23563
333.82        21.20468
334.27        21.22598
334.72        21.27699
335.17        21.31631
335.63        21.31763
336.08        21.29551
336.53        21.25806
336.98        21.23429
337.43        21.22998
337.88        21.23825
338.34         21.2244
338.79        21.14469
339.24         20.9912
339.69        20.78704
340.14        20.59472
340.59        20.50992
341.05        20.54388
341.50         20.6676
341.95        20.81782
342.40        20.89201
342.85        20.86217
343.30         20.7686
343.75         20.6387
344.20         20.5139
344.66         20.4189
345.11        20.33212
345.56        20.28957
346.01        20.34702
346.46        20.50122
346.91        20.72556
347.36        20.94429
347.81        21.04259
348.26         20.9972
348.72        20.85154
349.17        20.63964
349.62        20.45672
350.07        20.33166
350.52        20.23514
350.97        20.15965
351.42        20.08988
351.87        20.02193
352.32        19.98018
352.77        19.93493
353.22        19.83529
353.67        19.67941
354.13        19.48183
354.58        19.30729
355.03        19.28753
355.48        19.43895
355.93         19.7257
356.38        20.02135
356.83        20.11263
357.28        19.95698
357.73        19.62806
358.18        19.27696
358.63        19.13022
359.08         19.2303
359.53          19.495
359.98        19.80936
360.43        19.97902
360.88        19.94248
361.33        19.77054
361.78        19.51797
362.23        19.26039
362.68        19.03142
363.13        18.80674
363.58        18.61132
364.03        18.49312
364.48        18.45396
364.93         18.4797
365.38        18.52167
365.83        18.49695
366.28        18.38342
366.73        18.20485
367.18        17.98165
367.63         17.7534
368.08         17.5456
368.53        17.35463
368.98         17.1971
369.43        17.09618
369.88        17.04699
370.33        17.03495
370.78        17.04031
371.23        17.02558
371.68        16.97437
372.13        16.89923
372.58         16.7808
373.03        16.58961
373.48        16.33172
373.93        16.02026
374.38         15.7262
374.83        15.56873
375.28        15.57339
375.72        15.70199
376.17        15.87231
376.62        15.95417
377.07        15.91187
377.52        15.77888
377.97        15.60304
378.42        15.46246
378.87        15.37951
379.32        15.32881
379.77         15.2811
380.22        15.19375
380.67        15.05923
381.11        14.90132
381.56        14.74876
382.01        14.64862
382.46        14.61482
382.91        14.63248
383.36        14.67124
383.81        14.68702
384.26        14.66333
384.71        14.60329
385.15        14.52577
385.60         14.4779
386.05        14.46196
386.50        14.47044
386.95        14.45893
387.40        14.36128
387.85        14.17843
388.29        13.93002
388.74        13.71897
389.19        13.63925
389.64        13.70207
390.09        13.86377
390.54        14.04881
390.98        14.13447
391.43        14.09234
391.88        13.97006
392.33        13.81212
392.78        13.68754
393.23        13.61627
393.67        13.55123
394.12        13.50901
394.57        13.52663
395.02        13.57929
395.47        13.57627
395.91        13.52165
396.36        13.48925
396.81        13.48753
397.26        13.46871
397.71        13.42889
398.15        13.39719
398.60        13.39029
399.05        13.34186
399.50         13.2759
399.95        13.32351
400.39        13.44321
400.84        13.39483
401.29        13.18391
401.74        13.03564
402.18        12.96714
402.63        12.84317
403.08        12.70108
403.53        12.65756
403.97        12.71586
404.42        12.84031
404.87        12.96129
405.32        12.96636
405.76        12.83296
406.21        12.60975
406.66        12.36556
407.11         12.2114
407.55        12.18118
408.00        12.23861
408.45        12.34973
408.90        12.43514
409.34        12.47003
409.79        12.50207
410.24        12.51953
410.68        12.47292
411.13        12.36719
411.58        12.22421
412.03        12.07091
412.47        11.95601
412.92        11.89752
413.37         11.8832
413.81        11.90286
414.26        11.94892
414.71        12.00601
415.15        12.08187
415.60        12.13657
416.05        12.11811
416.49        12.01901
416.94        11.85611
417.39        11.68454
417.83        11.59464
418.28        11.60781
418.73        11.69573
419.17        11.81501
419.62        11.88507
420.07        11.88778
420.51        11.84739
420.96        11.79249
421.41        11.74714
421.85         11.7174
422.30        11.69445
422.74        11.68552
423.19        11.71497
423.64        11.77867
424.08        11.87802
424.53        11.95887
424.98        11.94685
425.42         11.8307
425.87        11.64292
426.31        11.44196
426.76        11.33056
427.21        11.32751
427.65        11.39869
428.10        11.52226
428.54        11.65645
428.99        11.77857
429.44        11.91927
429.88        12.02035
430.33        11.99803
430.77        11.85282
431.22        11.62317
431.66        11.40315
432.11        11.36398
432.56         11.4931
433.00        11.71433
433.45        11.88242
433.89        11.71359
434.34        11.22045
434.78        11.16491
435.23        11.59701
435.67          11.731
436.12        11.57167
436.57        11.54366
437.01        11.64411
437.46        11.64149
437.90        11.52576
438.35        11.38484
438.79        11.25353
439.24        11.15466
439.68        11.12133
440.13        11.21849
440.57        11.38671
441.02         11.4784
441.46        11.46858
441.91        11.34927
442.35         11.1836
442.80        11.25458
443.24        11.48134
443.69        11.40713
444.13        11.07411
444.58        10.93537
445.02        11.00022
445.47        11.03022
445.91        11.02253
446.36        11.08418
446.80        11.20891
447.24        11.36106
447.69        11.50698
448.13          11.598
448.58        11.62084
449.02        11.58629
449.47        11.52341
449.91        11.47034
450.36        11.44381
450.80        11.43307
451.25        11.42271
451.69        11.37945
452.13        11.30021
452.58        11.20181
453.02        11.10777
453.47        11.06084
453.91        11.06796
454.36        11.11877
454.80        11.18283
455.24          11.208
455.69         11.1855
456.13        11.12372
456.58        11.06425
457.02        11.05502
457.46        11.10711
457.91        11.20008
458.35        11.29097
458.79        11.29585
459.24        11.20845
459.68         11.0867
460.13        10.99336
460.57        10.79468
461.01        10.82274
461.46        10.82101
461.90        10.86663
462.34         10.8815
462.79        10.91423
463.23        10.92164
463.68        10.93328
464.12        10.96723
464.56        11.02513
465.01        11.11113
465.45        11.17543
465.89        11.16423
466.34         11.0785
466.78        10.93072
467.22        10.78006
467.67        10.74859
468.11        10.81423
468.55        10.98332
468.99        11.17676
469.44        11.29234
469.88        11.30583
470.32        11.24332
470.77        11.14617
471.21        11.07854
471.65        11.06322
472.10        11.08091
472.54        11.10951
472.98        11.12379
473.42        11.11724
473.87         11.1077
474.31         11.0982
474.75        11.10254
475.20        11.12638
475.64         11.1552
476.08        11.18298
476.52        11.23045
476.97        11.30043
477.41        11.33577
477.85        11.31097
478.29         11.5056
478.74        11.42435
479.18        11.44734
479.62        11.44253
480.06        11.50505
480.50        11.64228
480.95        11.61282
481.39        11.79331
481.83        11.82249
482.27        11.81761
482.72         11.7909
483.16         11.7607
483.60        11.76873
484.04        11.80379
484.48        11.85355
484.93        11.97761
485.37        12.11288
485.81         12.1288
486.25        12.58617
486.69        11.85048
487.14        11.59532
487.58        12.10251
488.02        12.21697
488.46        12.18893
488.90        12.41578
489.34        12.08026
489.79        12.06888
490.23        12.57791
490.67         12.8781
491.11        13.03274
491.55        12.99552
491.99        12.84192
492.43        12.81962
492.88        12.95505
493.32        13.06649
493.76        13.13687
494.20        13.24802
494.64        13.39998
495.08         13.5554
495.52        13.69184
495.96        13.82606
496.41        13.94034
496.85          13.919
497.29        13.82636
497.73        13.94968
498.17        14.26188
498.61        14.41844
499.05        14.41144
499.49        14.50332
499.93        14.69407
500.37        14.82664
500.82        14.89025
501.26        14.94033
501.70        14.98155
502.14        15.00191
502.58        15.01239
503.02        15.03123
503.46        15.06598
503.90        15.11714
504.34        15.18988
504.78        15.28757
505.22        15.40584
505.66           15.54
506.10        15.66986
506.54        15.76239
506.98        15.80888
507.42        15.81824
507.86        15.80587
508.30        15.79744
508.74        15.80396
509.18        15.82198
509.62        15.85301
510.06        15.89798
510.50        15.95527
510.94        16.02439
511.38        16.10017
511.82        16.17301
512.26         16.2365
512.70        16.28725
513.14        16.32043
513.58        16.33172
514.02        16.32122
514.46        16.29168
514.90        16.24752
515.34        16.19621
515.78        16.14401
516.22        16.09446
516.66        16.05444
517.10        16.03161
517.54        16.02773
517.98        16.04147
518.42        16.06777
518.86        16.09701
519.30         16.1243
519.74        16.14874
520.18        16.16883
520.62        16.18463
521.06        16.19479
521.50        16.19618
521.93         16.1892
522.37        16.17126
522.81        16.14551
523.25        16.11647
523.69        16.08353
524.13        16.04415
524.57        16.00151
525.01        15.95848
525.45        15.92701
525.89        15.92568
526.32        15.95425
526.76        16.00005
527.20        16.04585
527.64        16.06359
528.08        16.04514
528.52        16.00201
528.96        15.93606
529.40        15.85082
529.83        15.75204
530.27        15.64492
530.71        15.55215
531.15        15.51344
531.59        15.53287
532.03        15.59607
532.46        15.66653
532.90        15.68594
533.34        15.64257
533.78        15.54554
534.22        15.42296
534.66        15.34434
535.09        15.30863
535.53        15.24947
535.97        15.17876
536.41          15.171
536.85        15.22774
537.28        15.31179
537.72        15.39798
538.16        15.46156
538.60        15.49162
539.04        15.49243
539.47        15.48138
539.91        15.49677
540.35        15.54409
540.79        15.62206
541.22        15.71349
541.66        15.76662
542.10        15.81617
542.54        15.83861
542.97        15.86951
543.41        15.95488
543.85        16.09675
544.29        16.28017
544.72        16.46551
545.16        16.59932
545.60        16.66907
546.04        16.69109
546.47        16.70341
546.91        16.77199
547.35        16.91118
547.79        17.09398
548.22        17.27398
548.66        17.41915
549.10        17.51968
549.53        17.50971
549.97        17.57795
550.41        17.66347
550.84        17.82308
551.28        18.03828
551.72        18.27015
552.15        18.43792
552.59        18.53443
553.03        18.60828
553.46         18.6764
553.90        18.77561
554.34        18.91562
554.77         19.0517
555.21        19.15588
555.65        19.39408
556.08        19.39248
556.52        19.46433
556.96        19.50707
557.39        19.55193
557.83        19.60963
558.27        19.64567
558.70        19.66723
559.14        19.78191
559.57        19.81389
560.01        19.93645
560.45        20.05223
560.88        20.07522
561.32        20.04254
561.75        19.97828
562.19         19.9483
562.63        20.13932
563.06        20.46851
563.50        20.50378
563.93        20.27888
564.37        20.24864
564.80        20.41856
565.24        20.53629
565.68        20.59537
566.11        20.70676
566.55        20.87439
566.98        21.05752
567.42        21.24192
567.85        21.39175
568.29        21.51106
568.72        21.59453
569.16        21.67639
569.60        21.78575
570.03        21.92058
570.47        22.03097
570.90        22.27219
571.34         22.3107
571.77        22.46726
572.21        22.56944
572.64         22.7218
573.08        22.72403
573.51        23.08457
573.95        23.20189
574.38        23.28795
574.82        23.50612
575.25        23.39801
575.69        23.39983
576.12        23.38999
576.56        23.47694
576.99        23.65483
577.42        23.59799
577.86        23.42915
578.29        23.54725
578.73        23.79846
579.16        23.43139
579.60        23.21744
580.03        23.04239
580.47        23.28485
580.90        22.92575
581.33        23.24146
581.77        23.35536
582.20        23.28658
582.64        22.97738
583.07        22.85208
583.51        22.61617
583.94        22.51533
584.37        22.51952
584.81        22.58603
585.24        22.47348
585.68        22.24224
586.11        22.08595
586.54        22.02191
586.98        21.97488
587.41        21.94991
587.85        21.86582
588.28        21.75763
588.71        21.58436
589.15        21.86135
589.58        21.51308
590.01        21.79744
590.45        21.68701
590.88        21.54381
591.31        21.55268
591.75        21.71366
592.18        21.64534
592.61        21.32582
593.05        21.82069
593.48        21.70886
593.91        21.90615
594.35        21.93157
594.78        21.99403
595.21        22.06092
595.65        22.14877
596.08        22.27995
596.51         22.3336
596.94        22.43947
597.38        22.64224
597.81        23.03306
598.24        22.92899
598.68        23.32329
599.11        23.69219
599.54        24.10512
599.97        24.01068
600.41        24.29778
600.84        24.49563
601.27        24.85668
601.70        25.39716
602.14        25.87546
602.57        26.18976
603.00          26.311
603.43        26.49935
603.87        26.95916
604.30        27.32956
604.73        27.55155
605.16          27.877
605.60        28.26017
606.03        28.75784
606.46        29.23969
606.89        29.50532
607.32        29.68253
607.76        29.92869
608.19        30.26168
608.62        30.86965
609.05        31.33668
609.48        31.55843
609.92        31.50404
610.35        32.03018
610.78         32.7384
611.21        33.15176
611.64        33.18974
612.07        33.42519
612.50        33.86805
612.94        34.12812
613.37        34.24195
613.80        34.43987
614.23        34.69435
614.66        35.16036
615.09        35.26462
615.52        35.49579
615.96        35.72164
616.39        36.11396
616.82        36.50296
617.25        36.94223
617.68        37.31503
618.11        37.39064
618.54        37.25905
618.97         37.3817
619.40        37.79153
619.84        38.04945
620.27        38.13746
620.70        38.50099
621.13         39.0715
621.56        38.97845
621.99        38.70458
622.42        38.86443
622.85        39.17776
623.28        39.26557
623.71        39.13299
624.14        39.49225
624.57        39.51932
625.00        39.68819
625.43        39.75045
625.86        39.47763
626.29        39.56638
626.72         39.2207
627.15        39.11679
627.58        38.84008
628.01        38.56492
628.44        38.38618
628.87        38.27196
629.30        38.07674
629.73        37.80235
630.16         37.5654
630.59        37.35681
631.02        37.10678
631.45        36.80466
631.88        36.46693
632.31        36.09447
632.74        35.68311
633.17         35.2602
633.60        34.86836
634.03        34.51679
634.46        34.19824
634.89        33.88099
635.32        33.51284
635.75        33.08372
636.18         32.6098
636.61        32.12959
637.04        31.70116
637.47        31.33991
637.89        31.02663
638.32        30.70988
638.75         30.3566
639.18        29.96553
639.61        29.43408
640.04        29.04602
640.47        28.71485
640.90         28.5229
641.33         28.4292
641.76        28.36733
642.18        28.26738
642.61        28.10428
643.04          27.845
643.47        27.51422
643.90        27.53893
644.33        27.34719
644.76        27.35065
645.18        27.37514
645.61        27.53087
646.04         27.7638
646.47        27.86587
646.90        27.85734
647.33        27.96466
647.75         28.1998
648.18        28.39367
648.61        28.56437
649.04        28.84061
649.47        29.18309
649.89        29.53141
650.32        29.85273
650.75        29.96735
651.18         29.9866
651.61          30.483
652.03        31.38637
652.46        31.85357
652.89        31.89815
653.32        32.29665
653.74        33.10759
654.17        33.47453
654.60        33.83075
655.03        34.35308
655.46        34.43247
655.88        35.30847
656.31        39.57537
656.74        39.03752
657.16        36.43082
657.59        36.21272
658.02        37.13864
658.45        37.70677
658.87         38.1255
659.30        37.97007
659.73        38.72148
660.15        39.19103
660.58        39.33659
661.01        39.65373
661.44        40.04611
661.86        40.39565
662.29        40.72461
662.72        41.15673
663.14        41.67159
663.57        42.09154
664.00        42.38879
664.42        42.63652
664.85        42.84594
665.27        42.96118
665.70        43.04148
666.13        43.20679
666.55        43.48663
666.98        43.84594
667.41        44.24258
667.83        44.59744
668.26        44.87239
668.69        45.09374
669.11        45.28135
669.54        45.48541
669.96        45.71248
670.39        45.90049
670.82         46.0624
671.24        46.25307
671.67        46.47393
672.09        46.69336
672.52        46.90103
672.94        47.05813
673.37        47.16706
673.80        47.23462
674.22        47.30174
674.65        47.42011
675.07        47.61734
675.50        47.82941
675.92        48.09617
676.35        48.32311
676.77        48.52333
677.20        48.66624
677.62        48.77716
678.05        48.97667
678.47          49.224
678.90        49.30477
679.32        49.25983
679.75        49.33725
680.17        49.54321
680.60        49.80294
681.02        50.07196
681.45        50.16668
681.87        50.14179
682.30         50.3647
682.72        50.79011
683.15         50.9177
683.57          50.784
684.00        50.84534
684.42        51.10686
684.85        51.26736
685.27        51.30775
685.70        51.41624
686.12        51.57101
686.54        51.60972
686.97        51.55319
687.39        51.63812
687.82        51.82376
688.24        51.80954
688.66        51.65793
689.09        51.74836
689.51        52.09811
689.94        52.42875
690.36        52.68932
690.78        52.93196
691.21        53.16584
691.63        53.36587
692.06        53.58105
692.48        53.97783
692.90         54.4699
693.33        54.74139
693.75        54.75923
694.17        54.63349
694.60        54.48919
695.02        54.48629
695.44        54.60996
695.87         54.8007
696.29         54.9841
696.71        54.78766
697.14        54.40224
697.56        54.72208
697.98        55.61409
698.41        56.03983
698.83        55.95784
699.25        56.03159
699.68        56.27995
700.10        56.43141
700.52         56.4847
700.94        56.51007
701.37        56.53649
701.79        56.68887
702.21          56.915
702.64        57.05008
703.06        57.09056
703.48        57.09158
703.90        57.04413
704.33        57.28331
704.75        57.10629
705.17        57.18272
705.59        57.30826
706.01        57.45865
706.44        57.64077
706.86         57.8882
707.28        58.16838
707.70         58.5079
708.12        58.83033
708.55        58.85399
708.97        58.65005
709.39        58.66669
709.81        58.90406
710.23        58.98856
710.66        58.91357
711.08          58.931
711.50        59.04446
711.92        59.15146
712.34        59.24987
712.76        59.37195
713.19        59.49112
713.61        59.60198
714.03        59.68182
714.45        59.72864
714.87        59.77272
715.29        59.86695
715.71        60.02065
716.13        60.22008
716.56        60.40503
716.98        60.54939
717.40        60.61082
717.82        60.60568
718.24        60.58542
718.66        60.63361
719.08        60.76877
719.50        60.96566
719.92         61.1689
720.34        61.28898
720.76        61.30459
721.19         61.2453
721.61        61.17042
722.03          61.165
722.45          61.259
722.87        61.43694
723.29        61.65122
723.71        61.82407
724.13        61.92759
724.55        61.96592
724.97        62.00386
725.39        62.14513
725.81        62.40219
726.23        62.74829
726.65        63.04867
727.07        63.08265
727.49        62.82508
727.91        62.36953
728.33        61.91399
728.75         61.7528
729.17         61.9538
729.59        62.44001
730.01        63.02959
730.43        63.37262
730.85        63.41319
731.27        63.27414
731.69        63.23032
732.10        63.09053
732.52        62.96123
732.94        62.85702
733.36        62.84631
733.78         62.9854
734.20         63.2723
734.62        63.77846
735.04        64.33025
735.46        64.47272
735.88          64.241
736.30        64.09199
736.72        64.13567
737.13         64.2732
737.55        64.39101
737.97        64.68484
738.39        64.39216
738.81        64.52486
739.23        64.84474
739.65        65.08245
740.06        65.13557
740.48        65.15273
740.90        65.11379
741.32        64.97015
741.74        64.79118
742.16        64.72228
742.57        64.79655
742.99        64.97339
743.41        65.21781
743.83        65.42532
744.25          65.586
744.67        65.80907
745.08        66.03922
745.50        66.04025
745.92        65.80882
746.34           65.43
746.75        65.04498
747.17        64.84933
747.59        64.87378
748.01        65.19115
748.42        65.65261
748.84        65.71328
749.26        65.44817
749.68        65.47847
750.09        65.81248
750.51        66.09438
750.93        66.25001
751.35        66.27795
751.76        66.21829
752.18        66.24537
752.60        66.37806
753.01        66.49503
753.43        66.55672
753.85        66.62243
754.27        66.69379
754.68        66.75266
755.10        66.82021
755.52        66.93015
755.93        67.06966
756.35        67.21173
756.77        67.33744
757.18        67.37618
757.60        67.36124
758.02        67.39046
758.43        67.35745
758.85        67.16482
759.26        67.07782
759.68        66.38997
760.10        67.51435
760.51        67.97833
760.93        68.28321
761.34        67.94793
761.76        67.62125
762.18        67.18375
762.59        66.98313
763.01        67.21717
763.42        67.78374
763.84        68.08603
764.26        68.08777
764.67        67.82827
765.09        67.50695
765.50        67.90331
765.92        68.89487
766.33        68.57206
766.75        67.74826
767.16        68.07042
767.58        68.04135
768.00        68.14492
768.41        67.99551
768.83        68.58239
769.24         69.6405
769.66        70.25352
770.07        70.28489
770.49         69.6586
770.90        68.75066
771.32        68.87851
771.73        69.87019
772.15        70.04699
772.56        69.38943
772.97        68.99303
773.39        69.15215
773.80        69.19658
774.22        69.16224
774.63         69.3061
775.05        69.53481
775.46        69.68793
775.88        69.70677
776.29        69.65454
776.70        69.58439
777.12        69.62181
777.53         69.7978
777.95        70.02473
778.36         70.2545
778.77        70.34641
779.19        70.26955
779.60        70.22491
780.02        70.18815
780.43        69.82571
780.84        69.34158
781.26        69.35048
781.67        69.81716
782.09        70.35359
782.50        70.71291
782.91        70.42658
783.33        69.70842
783.74        69.59116
784.15        70.08764
784.57        70.63213
784.98        71.10793
785.39        71.58321
785.81        71.99245
786.22        72.15689
786.63        72.44888
787.04        72.32497
787.46        72.01624
787.87         71.8035
788.28        71.80631
788.70        71.85779
789.11        71.93852
789.52        72.36648
789.93        72.92314
790.35        72.79903
790.76        72.10493
791.17        71.73742
791.58        71.80405
792.00        71.76346
792.41        71.65081
792.82         71.8647
793.23        72.27593
793.65        72.42168
794.06        72.26552
794.47        71.97443
794.88        71.70715
795.29        71.64154
795.71        71.75206
796.12         72.0989
796.53        72.52099
796.94        72.66445
797.35        72.45372
797.76        72.11195
798.18        71.81069
798.59        71.67737
799.00        71.77815
799.41        72.07949
799.82        72.50181
800.23        72.88473
800.64        73.16173
801.06        73.36063
801.47         73.4744
801.88        73.39086
802.29        73.11491
802.70        72.66871
803.11        72.21429
803.52        72.01722
803.93        72.14368
804.34        72.54648
804.75        73.07175
805.17        73.43743
805.58         73.5912
805.99         73.5741
806.40        73.14697
806.81        73.32307
807.22        73.81845
807.63        73.45382
808.04        72.39784
808.45        71.97295
808.86        72.29088
809.27        72.63517
809.68        72.88408
810.09        73.14539
810.50        73.35922
810.91        73.49975
811.32        73.55997
811.73        73.53582
812.14         73.4447
812.55        73.28777
812.96        73.16329
813.37        73.23565
813.78        73.53143
814.19        74.00459
814.60         74.5127
815.01        74.81943
815.42        74.87534
815.83        74.76563
816.24         74.5649
816.65         74.3907
817.05        74.30489
817.46        74.26511
817.87         74.2528
818.28         74.1812
818.69        74.03913
819.10        73.86752
819.51        73.71584
819.92        73.70197
820.33        73.85181
820.74        73.99767
821.14        74.09741
821.55        74.38974
821.96        74.72408
822.37        74.53255
822.78        73.90795
823.19        73.59546
823.60        73.70353
824.00        73.84724
824.41        73.97587
824.82        74.30392
825.23         74.7993
825.64        75.37383
826.04        75.93111
826.45         76.2222
826.86        76.21339
827.27        75.98801
827.68         75.5738
828.08        75.04869
828.49        74.44846
828.90        73.77709
829.31        73.24421
829.72        73.16716
830.12        73.62788
830.53        74.52904
830.94        75.51627
831.35        75.88437
831.75         75.4765
832.16         74.4518
832.57        73.34946
832.97        72.99604
833.38        73.55075
833.79        74.74284
834.20        76.12057
834.60        76.90812
835.01        76.83973
835.42        76.20174
835.82        75.28041
836.23         74.5057
836.64        74.04012
837.04         73.7597
837.45        73.63899
837.86        73.71603
838.26         73.9724
838.67        74.38642
839.08        74.83633
839.48        75.06615
839.89        75.00011
840.29        74.69778
840.70        74.28902
841.11        73.96171
841.51        73.79657
841.92        73.72206
842.33        73.74802
842.73        73.89293
843.14         74.0961
843.54        74.41801
843.95        74.75892
844.35        75.02084
844.76        75.14043
845.17         75.1265
845.57        75.06999
845.98        75.11771
846.38        75.31635
846.79        75.59989
847.19        75.86053
847.60        75.82774
848.00        75.48133
848.41        74.90691
848.81        74.30912
849.22        73.97361
849.62        73.98941
850.03        74.24572
850.43        74.63566
850.84        74.81887
851.24        74.77135
851.65        74.55869
852.05        74.34595
852.46        74.35062
852.86        74.59715
853.27        74.98286
853.67         75.3876
854.07        75.85619
854.48        76.29929
854.88        76.82036
855.29        77.12464
855.69        76.95654
856.10        76.16798
856.50        74.98059
856.90        73.76179
857.31        73.03933
857.71        72.92364
858.12        73.21825
858.52        73.81174
858.92        74.25668
859.33        74.36423
859.73        74.29628
860.13        74.02647
860.54        73.55421
860.94        72.93194
861.34        72.14169
861.75        71.37542
862.15        71.03667
862.55        71.20029
862.96        71.75496
863.36        72.48315
863.76        72.92065
864.17        72.93999
864.57        72.68994
864.97        72.33019
865.38        72.13763
865.78        72.22675
866.18        72.46867
866.58        72.78954
866.99        73.06961
867.39        73.28249
867.79        73.46606
868.19        73.56329
868.60        73.45265
869.00        73.12589
869.40        72.60493
869.80        72.09342
870.21        71.97004
870.61        72.37287
871.01         73.1315
871.41        73.89978
871.81        74.15012
872.22        73.77162
872.62        72.93595
873.02        71.95313
873.42        71.33659
873.82        71.25109
874.22        71.56041
874.63        72.05994
875.03        72.41959
875.43        72.54176
875.83        72.52335
876.23        72.50898
876.63        72.72004
877.03        73.18774
877.44        73.78664
877.84        74.35572
878.24        74.58596
878.64        74.41312
879.04         73.9669
879.44        73.42223
879.84        73.03808
880.24         72.8862
880.64        72.87606
881.04        72.98284
881.44        73.15782
881.84        73.36869
882.24        73.66053
882.65        73.88042
883.05        73.86803
883.45        73.55767
883.85         73.0043
884.25        72.48517
884.65        72.41362
885.05         72.8578
885.45        73.70728
885.85        74.64156
886.25        75.10382
886.65        74.93114
887.05        74.26575
887.45        73.45792
887.85        73.05752
888.25        73.20763
888.65        73.77052
889.04        74.40028
889.44        74.51982
889.84        74.02338
890.24        73.09098
890.64        72.17214
891.04        71.90626
891.44        72.40789
891.84        73.50481
892.24        74.66787
892.64         75.0032
893.04        74.32025
893.44        72.91243
893.83        71.46522
894.23        71.02042
894.63        71.75675
895.03        73.35699
895.43        75.16227
895.83        75.96799
896.23        75.46039
896.63        74.12024
897.02        72.52826
897.42        71.60967
897.82        71.51606
898.22        71.97504
898.62        72.79424
899.01         73.6848
899.41        74.43386
899.81        75.16908
900.21        75.83073
900.61        76.29978
901.00        76.53881
901.40        76.48486
901.80        76.23575
902.20        75.98989
902.59        75.81469
902.99        75.70465
903.39         75.5733
903.79        75.25565
904.18        74.73528
904.58        74.11777
904.98        73.59741
905.38        73.47132
905.77        73.77566
906.17        74.42094
906.57         75.1366
906.96        75.49752
907.36        75.38019
907.76        74.92589
908.15        74.40473
908.55        74.21258
908.95        74.47423
909.34        75.06094
909.74        75.74728
910.14        76.25313
910.53        76.46163
910.93        76.45675
911.33        76.31048
911.72        76.12257
912.12        75.96426
912.52        75.81049
912.91        75.62509
913.31        75.35498
913.70        75.02055
914.10        74.65868
914.49        74.41676
914.89        74.49149
915.29        74.89919
915.68        75.55515
916.08        76.23631
916.47        76.58967
916.87        76.51916
917.26        76.14607
917.66        75.63655
918.05        75.24059
918.45        75.03573
918.84         74.9877
919.24        75.07249
919.64        75.32746
920.03        75.73235
920.42        76.23823
920.82        76.74586
921.21        77.12438
921.61        77.30355
922.00        77.31876
922.40         77.1469
922.79        76.86219
923.19        76.50249
923.58        76.08215
923.98        75.66455
924.37        75.25777
924.77        74.91157
925.16        74.63728
925.55        74.47662
925.95        74.44415
926.34        74.56243
926.74        74.76719
927.13         75.1181
927.52         75.6134
927.92        76.19951
928.31        76.85833
928.70        77.41809
929.10        77.63352
929.49        77.48259
929.89        77.03664
930.28        76.47442
930.67        76.05492
931.07        75.85204
931.46         75.7728
931.85        75.81921
932.24        75.98682
932.64        76.23232
933.03        76.62012
933.42        76.87712
933.82        76.59154
934.21        75.73105
934.60        74.40424
934.99        73.15437
935.39         72.7876
935.78        73.49763
936.17        75.11387
936.56        76.94424
936.96        77.68846
937.35        77.02887
937.74        75.31715
938.13        73.43757
938.53        72.58511
938.92        72.94203
939.31        74.19961
939.70        75.69505
940.09        76.22517
940.49        75.48187
940.88        73.93375
941.27        72.29018
941.66        71.58483
942.05        72.06953
942.44        73.41359
942.84         75.1582
943.23        76.54301
943.62        77.17876
944.01        77.30016
944.40        77.08497
944.79        76.82758
945.18        76.65481
945.57        76.42918
945.97        76.19495
946.36        76.15295
946.75        76.29456
947.14        76.62924
947.53        76.98499
947.92        77.01716
948.31        76.64558
948.70        75.97576
949.09        75.25405
949.48        74.84476
949.87        74.85495
950.26        75.23116
950.65        75.77757
951.04        76.14844
951.43        76.23604
951.82        76.08671
952.21        75.98362
952.60        76.38309
952.99        77.31295
953.38        78.58076
953.77        79.68279
954.16         79.7455
954.55        78.61871
954.94        76.72363
955.33         74.6091
955.72        73.09998
956.11        72.44757
956.50        72.35854
956.89        72.82444
957.28        73.82517
957.66        75.26846
958.05        77.06618
958.44        78.61543
958.83        78.75259
959.22        77.28924
959.61        74.66692
960.00        71.84499
960.39        70.20602
960.78        70.05317
961.16        71.02921
961.55        72.61482
961.94        74.01878
962.33        74.89353
962.72        75.44601
963.11        75.66854
963.49        75.56154
963.88        75.15059
964.27        74.46856
964.66        73.65582
965.04        72.94833
965.43         72.3945
965.82        71.92074
966.21        71.66374
966.60        71.82068
966.98        72.40834
967.37        73.37959
967.76        74.26212
968.15        74.25201
968.53        73.22309
968.92        71.39446
969.31        69.50375
969.69        68.71689
970.08        69.25881
970.47        70.83486
970.86        72.74203
971.24        73.67564
971.63        73.17201
972.02        71.69737
972.40        69.90009
972.79        68.79646
973.17        68.66908
973.56         69.1709
973.95        69.97056
974.33        70.60665
974.72        70.86822
975.11        70.87684
975.49        70.85485
975.88        71.13346
976.26        71.85245
976.65        72.79662
977.04        73.50809
977.42        73.26155
977.81        71.96136
978.19        69.86752
978.58        67.95792
978.96        67.43923
979.35        68.52444
979.74        70.94289
980.12        73.97948
980.51        75.58616
980.89        75.30363
981.28        73.58904
981.66        71.40933
982.05        70.42113
982.43        71.05038
982.82        72.74877
983.20        75.16663
983.59        77.52282
983.97        79.51485
984.35        81.24339
984.74        82.33405
985.12        82.33934
985.51        81.21313
985.89        79.05438
986.28        76.54819
986.66        74.66109
987.04        73.82552
987.43        73.88335
987.81        74.46085
988.20        74.66135
988.58        74.27319
988.96        73.37257
989.35        72.59016
989.73        72.88751
990.12        74.34634
990.50        76.70582
990.88        78.74456
991.27        78.52829
991.65        75.86151
992.03        71.48811
992.42        67.11464
992.80        65.11346
993.18          66.125
993.56        69.35017
993.95        73.53448
994.33        76.70715
994.71        77.87623
995.10        77.66576
995.48        76.31949
995.86        74.28356
996.24        72.00252
996.63        69.36827
997.01        67.05799
997.39        66.11022
997.77        66.64429
998.15        68.45814
998.54        70.82179
998.92        72.28086
999.30        72.31721
999.68        71.27931
1000.06        69.62116
1000.45         68.1739
1000.83        67.42641
1001.21        67.08571
1001.59        67.14558
1001.97        67.60017
1002.35        68.36605
1002.73        69.46302
1003.12        70.71749
1003.50         71.7243
1003.88        72.35455
1004.26        72.65144
1004.64        72.59737
1005.02        72.20282
1005.40        71.54661
1005.78        70.67142
1006.16        69.81533
1006.54        69.41108
1006.92        69.55662
1007.30        70.08759
1007.69        70.77283
1008.07        71.42855
1008.45        71.85364
1008.83         72.1907
1009.21        72.22359
1009.59        71.59488
1009.97        70.33445
1010.35         68.5376
1010.73        66.93697
1011.11        66.83004
1011.49        68.59209
1011.86         72.1281
1012.24         76.3082
1012.62        79.36301
1013.00        80.53381
1013.38        80.04461
1013.76         78.7306
1014.14        78.29952
1014.52        79.31082
1014.90        81.26634
1015.28        83.18136
1015.66        83.35829
1016.04        81.56154
1016.41        78.70702
1016.79        75.96246
1017.17        74.17902
1017.55        73.32771
1017.93        73.07072
1018.31         72.9782
1018.69        72.15861
1019.06        70.54082
1019.44        68.86852
1019.82        67.62498
1020.20        66.98183
1020.58        66.83105
1020.95        66.98363
1021.33        67.48074
1021.71        68.04006
1022.09        68.45954
1022.46         68.7655
1022.84        68.94711
1023.22         69.3084
1023.60        69.88947
1023.97        70.61462
1024.35        71.20894
1024.73        71.18996
