SpectraSmart Spectrum 2.9.0.0
--------- Device Information -----------
Spectrum Name :  反射率_0
Saving Time :  2024/05/01 17:00:12
Spectro-Module Model Name : SE2030-DUVN
Spectro-Module Serial Number : OS361AC55029948
Wavelength Start : 200
Wavelength End : 1025
Wavelength Unit : Wavelength(nm)
Spectrum Unit : Reflectance(%)
-----------Spectrum Setting ------------
Integration Time : 20ms
Average : 10
Boxcar : 0
Background removal :  enabled
linearity correction :  enabled
SC :  disabled
Intensity correction :  disabled
DWT denoise :  enabled
savitzky-golay :  disabled
FFT :  disabled
Running average :  disabled
Kalman :  disabled
High pass :  disabled
---------------BEGIN--------------------
Wavelength(nm)             Reflectance(%)
200.29               0
200.75        301.0345
201.21        1159.478
201.67       -456.4366
202.13       -160.9545
202.58       -70.23298
203.04       -19.20022
203.50        10.16915
203.96        19.73608
204.42        10.21428
204.88       -44.45815
205.34       -1566.723
205.80        286.5457
206.26        205.3906
206.72        194.4193
207.18        300.5067
207.64       -127.8799
208.10       -20.81594
208.55       -11.93387
209.01       -14.08024
209.47       -11.24935
209.93       -3.277277
210.39        5.673335
210.85         12.4726
211.31        11.04897
211.77       -19.10611
212.23        253.9485
212.69         98.7524
213.14        109.7116
213.60        200.4393
214.06       -850.3978
214.52       -126.1704
214.98        -81.0759
215.44       -76.35863
215.90       -102.3981
216.36       -591.7266
216.81        152.0764
217.27        157.2373
217.73        -322.411
218.19       -77.46192
218.65       -68.10515
219.11       -92.41041
219.57       -187.7936
220.02       -570.6326
220.48        -273.999
220.94       -71.32675
221.40       -20.55043
221.86       -2.801311
222.32        4.219976
222.77        7.646184
223.23        9.809314
223.69        12.24754
224.15        16.21516
224.61         20.2276
225.06        22.64255
225.52         24.3954
225.98        26.58271
226.44        29.76474
226.90        34.42916
227.36        39.86313
227.81        42.00657
228.27        39.58968
228.73        35.46479
229.19        32.25031
229.65        31.35262
230.10        32.52589
230.56        35.49953
231.02        39.69938
231.48        42.87382
231.93        43.58497
232.39        42.92789
232.85        41.79902
233.31        41.10347
233.77        40.99147
234.22        41.12271
234.68        41.47395
235.14        42.24114
235.60        43.51628
236.05        45.58635
236.51        48.46679
236.97        51.18149
237.43         52.4003
237.88        51.70747
238.34         49.3941
238.80        46.76461
239.26        43.88291
239.71        40.14454
240.17        34.37618
240.63        26.24207
241.08        18.67457
241.54        14.74251
242.00        14.81179
242.46        17.85259
242.91        24.42247
243.37        36.39427
243.83        57.29365
244.28        78.13488
244.74        80.88811
245.20        72.47302
245.66        63.16047
246.11        56.35929
246.57        50.66161
247.03        43.46503
247.48        30.58577
247.94        8.888947
248.40       -16.33944
248.85        -38.5732
249.31       -45.64445
249.77       -33.08438
250.22       -11.56284
250.68        10.14104
251.14        25.73338
251.59        31.59328
252.05        28.19197
252.51        12.28628
252.96       -30.34257
253.42       -91.24307
253.88       -80.75172
254.33       -19.29845
254.79        18.30624
255.25        33.34305
255.70        38.54372
256.16        40.75888
256.62        42.04604
257.07        43.42393
257.53        45.12746
257.99        46.49281
258.44        47.42147
258.90        48.23983
259.35        48.70798
259.81        49.11108
260.27        49.15543
260.72        48.48351
261.18        47.44967
261.63        46.11415
262.09        44.91072
262.55        43.97945
263.00        43.24806
263.46        42.70151
263.91        42.22021
264.37        41.89909
264.83        41.65926
265.28        41.50011
265.74        41.31908
266.19        40.75226
266.65        39.88788
267.11        38.75967
267.56        37.72844
268.02         37.4509
268.47        37.96497
268.93        39.01239
269.38        40.07391
269.84        40.25167
270.30         39.3799
270.75        37.77117
271.21        35.92228
271.66        34.46146
272.12        33.64049
272.57        33.20821
273.03        33.07805
273.48        33.06433
273.94         33.0793
274.39        33.13721
274.85        33.15086
275.31        32.91991
275.76        32.41862
276.22        31.75376
276.67         30.9934
277.13        30.34989
277.58        29.81886
278.04        29.39137
278.49        29.02794
278.95        28.77888
279.40        28.57875
279.86         28.4475
280.31        28.27641
280.77        28.00028
281.22         27.5697
281.68        27.07849
282.13        26.52413
282.59        25.99061
283.04        25.47803
283.50        25.00833
283.95        24.61688
284.41        24.41297
284.86         24.3791
285.32        24.47873
285.77        24.60898
286.22        24.65465
286.68        24.58932
287.13        24.43265
287.59        24.20679
288.04        23.91316
288.50        23.60907
288.95        23.26901
289.41        22.99558
289.86        22.86384
290.32        22.89685
290.77        23.05372
291.22        23.24418
291.68        23.31867
292.13        23.24644
292.59        23.10342
293.04        22.95449
293.50         22.9529
293.95        23.11955
294.40        23.41285
294.86        23.79203
295.31        24.20729
295.77        24.62071
296.22        25.03437
296.68        25.41784
297.13        25.71124
297.58        25.92104
298.04        26.08386
298.49        26.22556
298.95        26.42816
299.40         26.6975
299.85        27.00621
300.31        27.37099
300.76        27.81483
301.21        28.32379
301.67        28.89305
302.12        29.40135
302.58        29.68347
303.03        29.70191
303.48        29.54036
303.94        29.37008
304.39        29.38596
304.84        29.64868
305.30        30.07976
305.75        30.57059
306.20        30.96893
306.66        31.22495
307.11         31.3624
307.57        31.41604
308.02        31.38746
308.47        31.30692
308.93        31.18177
309.38        31.01276
309.83        30.85548
310.29        30.73326
310.74        30.63596
311.19        30.57409
311.65        30.54403
312.10        30.53402
312.55        30.54532
313.00        30.56207
313.46        30.55824
313.91        30.51881
314.36        30.44263
314.82        30.33514
315.27        30.22307
315.72        30.10836
316.18        29.99147
316.63         29.8522
317.08        29.66355
317.53        29.42583
317.99         29.1592
318.44        28.89164
318.89         28.6832
319.35        28.55176
319.80        28.47795
320.25        28.44133
320.70          28.403
321.16        28.34228
321.61        28.27679
322.06        28.19886
322.51        28.10124
322.97        27.98084
323.42        27.84659
323.87        27.71287
324.32        27.61723
324.78        27.56116
325.23        27.54177
325.68        27.53017
326.13        27.48536
326.59        27.38749
327.04        27.26157
327.49        27.10679
327.94        26.93357
328.39        26.75048
328.85        26.54728
329.30         26.3577
329.75        26.20892
330.20        26.11007
330.66        26.05282
331.11        26.02203
331.56        25.95829
332.01        25.84916
332.46        25.70959
332.92        25.56473
333.37        25.48902
333.82        25.49183
334.27        25.56029
334.72        25.66342
335.17        25.74849
335.63        25.78397
336.08         25.7881
336.53        25.78671
336.98        25.83664
337.43         25.9487
337.88        26.11271
338.34        26.24966
338.79        26.24578
339.24        26.07871
339.69        25.79066
340.14        25.51731
340.59        25.47247
341.05        25.68789
341.50        26.09466
341.95        26.53998
342.40        26.77617
342.85        26.73968
343.30        26.51853
343.75        26.21679
344.20        25.99499
344.66        25.91251
345.11        25.91372
345.56        25.99288
346.01         26.1371
346.46        26.32118
346.91        26.54317
347.36        26.75319
347.81        26.87208
348.26        26.88399
348.72        26.81526
349.17        26.67693
349.62         26.5334
350.07        26.40602
350.52        26.27775
350.97        26.16051
351.42        26.06892
351.87        26.00844
352.32        25.99488
352.77        25.98591
353.22        25.91141
353.67         25.7638
354.13        25.56446
354.58        25.38425
355.03        25.36914
355.48        25.53849
355.93        25.85301
356.38         26.1741
356.83        26.26889
357.28          26.092
357.73        25.72414
358.18        25.33533
358.63        25.18073
359.08        25.30528
359.53        25.61359
359.98         25.9703
360.43        26.14674
360.88        26.07317
361.33        25.83683
361.78        25.50129
362.23        25.15368
362.68        24.83478
363.13        24.51516
363.58        24.23983
364.03        24.09031
364.48        24.07061
364.93        24.15577
365.38        24.25652
365.83        24.22487
366.28        24.02648
366.73        23.70569
367.18        23.32354
367.63        22.98933
368.08        22.74858
368.53        22.57535
368.98        22.45954
369.43        22.38313
369.88         22.3277
370.33        22.29204
370.78        22.26199
371.23        22.20922
371.68        22.12362
372.13        22.01324
372.58        21.86231
373.03        21.64911
373.48        21.37884
373.93        21.06067
374.38        20.76071
374.83        20.58937
375.28        20.56807
375.72        20.66014
376.17        20.78045
376.62        20.79083
377.07        20.65859
377.52        20.42379
377.97        20.15092
378.42        19.94321
378.87        19.82972
379.32        19.77893
379.77        19.74944
380.22        19.67906
380.67        19.55287
381.11        19.39687
381.56        19.24343
382.01        19.14738
382.46        19.12257
382.91        19.14861
383.36        19.18484
383.81        19.17368
384.26        19.09699
384.71        18.96399
385.15        18.80799
385.60        18.69942
386.05        18.64759
386.50        18.64241
386.95         18.6268
387.40        18.51468
387.85        18.30244
388.29        18.01128
388.74         17.7654
389.19        17.68085
389.64        17.77003
390.09        17.98039
390.54        18.20638
390.98        18.27842
391.43        18.16504
391.88        17.92972
392.33        17.65817
392.78        17.47753
393.23        17.41698
393.67        17.40715
394.12        17.42744
394.57        17.46416
395.02        17.47504
395.47        17.36002
395.91        17.17995
396.36        17.12083
396.81         17.2078
397.26        17.34859
397.71         17.4685
398.15        17.50082
398.60        17.45005
399.05        17.27013
399.50        17.05547
399.95        17.06122
400.39         17.2517
400.84        17.29041
401.29        17.14078
401.74        17.02054
402.18        16.93006
402.63        16.71896
403.08        16.46285
403.53        16.35172
403.97        16.40401
404.42         16.5611
404.87        16.73267
405.32        16.77649
405.76        16.65811
406.21        16.43534
406.66        16.18423
407.11        16.02524
407.55        15.99609
408.00        16.05758
408.45        16.16654
408.90        16.22432
409.34        16.20914
409.79        16.18926
410.24        16.17194
410.68        16.12618
411.13        16.06163
411.58        15.99523
412.03        15.93607
412.47        15.89747
412.92         15.8816
413.37        15.88507
413.81        15.90486
414.26        15.94881
414.71        16.00756
415.15        16.08687
415.60        16.14649
416.05        16.13811
416.49        16.05433
416.94        15.90895
417.39        15.76106
417.83        15.70515
418.28        15.76056
418.73         15.8977
419.17        16.05365
419.62        16.11842
420.07        16.07271
420.51        15.95343
420.96        15.82374
421.41        15.75697
421.85         15.7664
422.30        15.82646
422.74        15.91562
423.19        16.02062
423.64        16.12468
424.08        16.24233
424.53        16.32301
424.98        16.30341
425.42        16.18052
425.87        15.98366
426.31        15.77788
426.76        15.67672
427.21        15.70074
427.65        15.81132
428.10        15.98452
428.54        16.17352
428.99        16.34872
429.44        16.53728
429.88        16.66455
430.33        16.62918
430.77        16.43941
431.22        16.15547
431.66        15.87615
432.11        15.82308
432.56        15.98485
433.00        16.12572
433.45        16.13652
433.89        16.13063
434.34        15.95876
434.78        15.92597
435.23        16.17088
435.67        16.27962
436.12        16.29494
436.57        16.39042
437.01        16.55208
437.46        16.62202
437.90        16.57894
438.35        16.49456
438.79        16.39383
439.24        16.27198
439.68        16.17544
440.13        16.22591
440.57        16.36815
441.02        16.43916
441.46        16.42238
441.91        16.29481
442.35        16.13627
442.80        16.34115
443.24        16.78848
443.69        16.80743
444.13        16.43732
444.58        16.32253
445.02        16.47305
445.47        16.53642
445.91        16.50646
446.36        16.54688
446.80        16.65539
447.24        16.78371
447.69        16.90823
448.13        16.99274
448.58        17.02753
449.02        17.02276
449.47        16.99578
449.91        16.95945
450.36        16.92801
450.80        16.89673
451.25        16.86724
451.69        16.83037
452.13        16.78744
452.58        16.74443
453.02        16.70743
453.47        16.69555
453.91        16.70762
454.36        16.74249
454.80        16.77487
455.24        16.76356
455.69        16.70543
456.13        16.60197
456.58        16.50361
457.02        16.46363
457.46        16.49678
457.91         16.5882
458.35        16.68102
458.79        16.66057
459.24        16.52046
459.68        16.34078
460.13        16.22288
460.57        15.99008
461.01        16.12737
461.46        16.24724
461.90        16.42607
462.34        16.49025
462.79        16.50168
463.23        16.41411
463.68        16.30935
464.12        16.28098
464.56        16.34999
465.01        16.50254
465.45        16.64393
465.89        16.66946
466.34        16.56921
466.78         16.3714
467.22        16.15703
467.67        16.09397
468.11        16.15097
468.55         16.3411
468.99        16.56127
469.44        16.68297
469.88         16.6771
470.32        16.58063
470.77        16.45361
471.21        16.39104
471.65        16.41998
472.10        16.50802
472.54        16.61207
472.98        16.67828
473.42        16.69172
473.87        16.68094
474.31        16.65309
474.75        16.63397
475.20        16.63599
475.64        16.63834
476.08        16.63967
476.52        16.67717
476.97        16.75588
477.41        16.79788
477.85        16.76297
478.29        17.00553
478.74        16.87557
479.18        16.87528
479.62        16.83382
480.06        16.88895
480.50        17.05226
480.95        16.96564
481.39        17.19526
481.83        17.24279
482.27        17.28614
482.72        17.34044
483.16        17.38161
483.60        17.41494
484.04        17.44134
484.48        17.31714
484.93        17.20893
485.37        17.51812
485.81        18.07974
486.25        18.29075
486.69         17.7765
487.14        17.29793
487.58         17.7399
488.02         18.3054
488.46        17.92001
488.90        18.14181
489.34         18.0903
489.79        17.91686
490.23        18.23147
490.67        18.34482
491.11         18.4752
491.55        18.57495
491.99        18.65627
492.43        18.75754
492.88        18.86624
493.32        18.92848
493.76        18.95907
494.20        19.03698
494.64        19.17806
495.08         19.3406
495.52        19.49194
495.96        19.65323
496.41        19.79739
496.85        19.76063
497.29        19.62529
497.73        19.78864
498.17        20.20852
498.61        20.37974
499.05        20.29753
499.49        20.38862
499.93        20.63519
500.37         20.7107
500.82         20.6338
501.26        20.63407
501.70        20.72975
502.14        20.82838
502.58        20.90926
503.02        20.96872
503.46        21.00209
503.90        21.01727
504.34        21.04231
504.78        21.11683
505.22        21.24751
505.66        21.42126
506.10        21.59845
506.54        21.71396
506.98        21.75174
507.42        21.73107
507.86        21.69085
508.30        21.69229
508.74        21.75164
509.18        21.85142
509.62        21.96375
510.06        22.04213
510.50        22.07355
510.94        22.07443
511.38        22.06577
511.82        22.07999
512.26        22.12405
512.70         22.1823
513.14        22.24032
513.58        22.27754
514.02        22.28794
514.46        22.28208
514.90        22.26073
515.34        22.22421
515.78        22.17785
516.22        22.12277
516.66        22.07769
517.10        22.07137
517.54        22.10764
517.98         22.1787
518.42        22.25805
518.86        22.30043
519.30        22.29464
519.74        22.25292
520.18        22.19863
520.62        22.17083
521.06        22.17744
521.50         22.2019
521.93        22.22965
522.37        22.23227
522.81        22.20527
523.25        22.16446
523.69        22.11032
524.13        22.04099
524.57        21.96407
525.01        21.88134
525.45        21.82016
525.89        21.82472
526.32        21.89652
526.76        22.01349
527.20        22.13453
527.64        22.19198
528.08        22.16864
528.52        22.09062
528.96        21.97599
529.40        21.85433
529.83        21.74008
530.27        21.63061
530.71        21.55079
531.15        21.54563
531.59        21.61532
532.03        21.74269
532.46        21.87081
532.90           21.91
533.34        21.84261
533.78        21.68332
534.22        21.48211
534.66        21.35318
535.09        21.29906
535.53        21.22299
535.97        21.13304
536.41        21.11771
536.85        21.17636
537.28        21.26339
537.72        21.35294
538.16        21.42285
538.60        21.46192
539.04        21.47181
539.47        21.47123
539.91        21.50591
540.35        21.57869
540.79        21.68509
541.22        21.80343
541.66        21.86622
542.10        21.92176
542.54        21.93955
542.97        21.95541
543.41        22.01125
543.85        22.11156
544.29        22.24417
544.72        22.38847
545.16        22.52377
545.60        22.63922
546.04        22.73951
546.47        22.83401
546.91        22.94167
547.35        23.06685
547.79        23.19785
548.22        23.30833
548.66        23.40956
549.10         23.5026
549.53        23.48252
549.97        23.58637
550.41        23.70902
550.84        23.91691
551.28        24.19184
551.72        24.48406
552.15          24.688
552.59        24.79424
553.03        24.86348
553.46        24.91512
553.90        24.99501
554.34        25.11751
554.77        25.22935
555.21         25.3017
555.65        25.55944
556.08         25.5064
556.52        25.58323
556.96        25.66368
557.39        25.71302
557.83        25.72555
558.27        26.00965
558.70        25.94967
559.14        26.16737
559.57         26.2405
560.01        26.41239
560.45        26.55439
560.88        26.56292
561.32          26.496
561.75        26.39029
562.19        26.32878
562.63        26.52824
563.06        26.88865
563.50        26.89147
563.93        26.59027
564.37        26.54936
564.80        26.77445
565.24        26.95692
565.68        27.06287
566.11        27.18575
566.55        27.32648
566.98        27.44851
567.42        27.56991
567.85         27.6983
568.29        27.84526
568.72         27.9887
569.16        28.14628
569.60        28.28769
570.03        28.39463
570.47        28.53776
570.90        28.71511
571.34        28.69366
571.77        28.81046
572.21        28.84795
572.64        28.96732
573.08        28.94956
573.51         29.3679
573.95        29.61388
574.38        29.47203
574.82        29.52138
575.25        29.74356
575.69        29.83847
576.12        29.75513
576.56        29.71345
576.99        29.96365
577.42        29.69824
577.86        29.95157
578.29        29.88105
578.73        30.08939
579.16        29.77176
579.60        29.48673
580.03        29.34389
580.47        29.63224
580.90        29.17176
581.33        29.54604
581.77         29.7877
582.20        29.55911
582.64        29.12488
583.07        29.14731
583.51        28.97526
583.94         28.9411
584.37        28.92455
584.81        28.93424
585.24        28.82538
585.68        28.59352
586.11        28.70602
586.54        28.44915
586.98        28.33268
587.41        28.10001
587.85        28.42003
588.28         28.1632
588.71        27.71658
589.15        28.26018
589.58        27.74427
590.01        28.05321
590.45        27.96121
590.88        27.92369
591.31        27.93826
591.75        28.02801
592.18        27.94598
592.61         27.6373
593.05        28.13829
593.48        28.23484
593.91        27.91183
594.35        28.05725
594.78        28.13329
595.21        28.44398
595.65        28.64525
596.08        28.61083
596.51        28.74239
596.94        28.65431
597.38        28.85567
597.81        29.31847
598.24        29.16339
598.68        29.66247
599.11        30.02215
599.54        30.44654
599.97        30.21261
600.41        30.65869
600.84         31.0065
601.27        31.18115
601.70        31.71028
602.14        32.17929
602.57        32.39257
603.00        32.34502
603.43        32.51974
603.87        33.14038
604.30        33.47857
604.73        33.63235
605.16        33.84794
605.60        34.14696
606.03         34.5709
606.46        35.04347
606.89          35.274
607.32        35.38356
607.76        35.59712
608.19        35.96404
608.62        36.34491
609.05         36.7034
609.48        37.02007
609.92        37.05677
610.35        37.31834
610.78        38.08317
611.21        38.49047
611.64          38.629
612.07        38.83771
612.50        39.13522
612.94        39.25852
613.37        39.21728
613.80        39.63778
614.23        39.66613
614.66        40.05613
615.09        39.96101
615.52        40.24611
615.96        40.67643
616.39        40.97018
616.82        41.12814
617.25        41.32916
617.68         41.5853
618.11         41.8441
618.54        42.06345
618.97        42.13265
619.40        42.12348
619.84        42.20321
620.27        42.39533
620.70        42.75798
621.13        43.24617
621.56        43.01473
621.99        43.05236
622.42        43.05191
622.85        43.37117
623.28        43.20967
623.71        43.01798
624.14        43.69851
624.57         43.5797
625.00        43.63264
625.43        43.70077
625.86        43.58466
626.29        43.39702
626.72        43.27205
627.15        43.08212
627.58        42.89554
628.01        42.69002
628.44         42.5947
628.87         42.5672
629.30        42.42327
629.73        42.17069
630.16        41.95712
630.59        41.77854
631.02         41.5416
631.45        41.25851
631.88        40.98259
632.31        40.71721
632.74        40.47102
633.17         40.2432
633.60         39.8964
634.03        39.63879
634.46        39.30614
634.89        38.96402
635.32        38.61045
635.75        38.25291
636.18        37.89147
636.61        37.53057
637.04        37.18186
637.47        36.84891
637.89        36.52354
638.32        36.18953
638.75        35.87835
639.18        35.60121
639.61        35.21271
640.04        34.98538
640.47        34.71383
640.90        34.47873
641.33        34.26414
641.76        34.06951
642.18        33.94145
642.61        33.88015
643.04        33.80119
643.47        33.65609
643.90        33.84301
644.33         33.6253
644.76        33.54927
645.18        33.44699
645.61        33.52529
646.04        33.74198
646.47        33.81836
646.90        33.77202
647.33        33.85846
647.75        34.08273
648.18        34.28188
648.61        34.46326
649.04        34.68484
649.47         34.9424
649.89        35.31285
650.32         35.7239
650.75        35.87228
651.18        35.83955
651.61        36.10619
652.03        36.68097
652.46        37.11648
652.89        37.35295
653.32        37.62893
653.74        38.09935
654.17        38.22947
654.60        38.75218
655.03        39.46586
655.46         39.3048
655.88        39.62248
656.31        44.73402
656.74        44.07797
657.16        40.82668
657.59        40.48146
658.02        41.56721
658.45        41.79127
658.87         42.1034
659.30        41.57156
659.73        42.27504
660.15        42.72467
660.58        42.96926
661.01        43.04153
661.44        42.94286
661.86         43.0678
662.29        43.45149
662.72        43.93087
663.14         44.4286
663.57        44.78169
664.00        44.97388
664.42        45.17149
664.85        45.38252
665.27        45.45063
665.70        45.42569
666.13        45.48051
666.55        45.65012
666.98        45.87933
667.41        46.14751
667.83          46.418
668.26        46.65916
668.69         46.8871
669.11        47.09968
669.54        47.29756
669.96        47.47266
670.39        47.59896
670.82        47.70392
671.24        47.76892
671.67        47.93116
672.09        48.11369
672.52         48.3264
672.94         48.4544
673.37        48.49337
673.80        48.49448
674.22        48.49966
674.65        48.53726
675.07        48.63622
675.50        48.77776
675.92        48.95187
676.35        49.13568
676.77        49.32097
677.20        49.50193
677.62        49.67968
678.05        49.84936
678.47        50.00509
678.90        50.14222
679.32        50.25175
679.75         50.3504
680.17        50.44006
680.60         50.5177
681.02        50.61162
681.45        50.75753
681.87        50.96966
682.30        51.22772
682.72        51.49824
683.15        51.69822
683.57         51.8102
684.00        51.84843
684.42        51.85541
684.85        51.89281
685.27        51.96399
685.70        52.10995
686.12        52.26926
686.54        52.24158
686.97        52.07253
687.39        52.10332
687.82        52.29581
688.24        52.41067
688.66        52.17717
689.09        52.35409
689.51        52.81102
689.94        53.07161
690.36        53.10654
690.78        53.18113
691.21        53.34985
691.63        53.50805
692.06        53.71113
692.48        54.17465
692.90        54.77297
693.33        55.09032
693.75        55.07008
694.17         54.8646
694.60        54.61885
695.02        54.50447
695.44        54.51873
695.87        54.70544
696.29        54.71822
696.71        54.62626
697.14        54.46651
697.56        54.78645
697.98        55.48589
698.41        55.90759
698.83        56.00171
699.25         56.1279
699.68        56.29616
700.10        56.41333
700.52         56.4828
700.94        56.48821
701.37        56.46991
701.79        56.60308
702.21        56.84043
702.64         57.0107
703.06        57.08501
703.48        57.07527
703.90        56.96562
704.33        57.10356
704.75        56.83003
705.17        56.87742
705.59        57.05651
706.01        57.32905
706.44        57.64804
706.86        57.95479
707.28          58.202
707.70        58.44444
708.12        58.65702
708.55        58.67304
708.97        58.52033
709.39        58.57096
709.81        58.55308
710.23        58.59644
710.66        58.62025
711.08        58.73478
711.50        58.90329
711.92        59.03205
712.34         59.1104
712.76         59.1649
713.19        59.19716
713.61        59.25257
714.03        59.32188
714.45        59.38763
714.87        59.46346
715.29         59.5732
715.71        59.71878
716.13        59.90499
716.56        60.07079
716.98         60.1799
717.40        60.20079
717.82        60.15811
718.24        60.11775
718.66        60.20211
719.08         60.4109
719.50        60.63829
719.92        60.82126
720.34        60.92438
720.76        60.92517
721.19        60.81777
721.61        60.65997
722.03        60.55806
722.45        60.54882
722.87        60.61142
723.29        60.72993
723.71        60.87637
724.13        61.03137
724.55        61.19247
724.97        61.37682
725.39        61.57938
725.81        61.78502
726.23        62.04148
726.65        62.29374
727.07        62.15424
727.49        62.10143
727.91        61.79162
728.33        61.48822
728.75        61.36807
729.17        61.47613
729.59        61.74912
730.01        62.08785
730.43        62.32648
730.85        62.41177
731.27        62.40974
731.69        62.34788
732.10        62.26908
732.52        62.19822
732.94        62.10575
733.36        62.06592
733.78         62.1637
734.20        62.40115
734.62        62.88619
735.04        63.45086
735.46        63.50628
735.88        63.15027
736.30        63.16634
736.72        63.55937
737.13        63.71511
737.55        63.56955
737.97        63.49856
738.39        63.53135
738.81        63.47846
739.23        63.40074
739.65        63.59011
740.06          63.935
740.48        64.12482
740.90        64.10894
741.32        64.07169
741.74        64.02967
742.16        63.93294
742.57        63.80095
742.99        63.66753
743.41         63.5931
743.83        63.59393
744.25        63.70709
744.67        64.05148
745.08        64.51484
745.50        64.70704
745.92        64.57501
746.34        64.26092
746.75        63.89707
747.17         63.6533
747.59        63.57238
748.01        63.72718
748.42        64.01184
748.84        63.99372
749.26        63.76482
749.68        63.84709
750.09         64.2396
750.51        64.67978
750.93        65.03867
751.35        65.12366
751.76        64.98981
752.18         64.9758
752.60        65.10789
753.01        65.20643
753.43        65.23544
753.85        65.10215
754.27        65.14653
754.68        65.08829
755.10         65.0788
755.52        65.19057
755.93        65.41272
756.35        65.69205
756.77        65.96696
757.18        66.09627
757.60        66.06454
758.02        66.09064
758.43        66.07819
758.85        65.79383
759.26        65.09949
759.68        65.13225
760.10         65.7311
760.51        66.56248
760.93        66.84256
761.34        66.53354
761.76        65.86892
762.18        65.27978
762.59        65.08918
763.01        65.42343
763.42        66.14794
763.84        66.51833
764.26        66.45153
764.67        66.21393
765.09        65.99876
765.50        66.14556
765.92        66.62707
766.33        66.63399
766.75        66.24548
767.16        66.53441
767.58        66.26644
768.00        66.27583
768.41          66.308
768.83          66.934
769.24        67.91878
769.66        68.37762
770.07        68.25034
770.49        67.95755
770.90        67.66484
771.32        67.59226
771.73        67.71787
772.15        67.65027
772.56        67.41251
772.97        67.26919
773.39        67.26149
773.80         67.4901
774.22        67.83411
774.63        67.94919
775.05        67.81659
775.46        67.85181
775.88         68.0477
776.29        68.18202
776.70        68.22259
777.12        68.27235
777.53        68.33842
777.95        68.35023
778.36        68.35575
778.77        68.36704
779.19        68.38874
779.60        68.56703
780.02        68.76855
780.43        68.53856
780.84        68.06652
781.26        67.82713
781.67        67.86033
782.09        68.40441
782.50        69.24712
782.91        68.25245
783.33         67.8214
783.74        67.55764
784.15        68.20011
784.57         68.9229
784.98        69.55663
785.39          69.994
785.81        70.17653
786.22        70.15376
786.63        70.35793
787.04        70.29254
787.46        70.14159
787.87         69.9884
788.28        69.91281
788.70        69.94101
789.11        70.05405
789.52        70.26844
789.93        70.49982
790.35        70.59372
790.76        70.54104
791.17        70.37173
791.58        70.14125
792.00        69.97456
792.41        69.93146
792.82        69.83486
793.23         69.7092
793.65        69.98546
794.06        70.49126
794.47        70.31329
794.88        69.66913
795.29        69.57778
795.71        70.01505
796.12         70.5719
796.53        71.02599
796.94        71.13887
797.35        70.84234
797.76         70.4005
798.18        70.00362
798.59        69.73492
799.00        69.67337
799.41        69.84292
799.82         70.1839
800.23         70.5326
800.64        70.82586
801.06        71.09386
801.47        71.30474
801.88        71.31016
802.29        71.09782
802.70        70.67137
803.11        70.19649
803.52        70.00358
803.93        70.15372
804.34        70.47344
804.75        70.83634
805.17        71.19229
805.58        71.52554
805.99        71.50347
806.40        71.24276
806.81        71.64053
807.22        72.42493
807.63        72.01542
808.04        70.63964
808.45        70.06074
808.86        70.42897
809.27        70.79283
809.68        70.99631
810.09         71.2053
810.50        71.35431
810.91        71.40765
811.32        71.39206
811.73        71.35308
812.14        71.31705
812.55        71.27286
812.96        71.27174
813.37        71.39676
813.78        71.65568
814.19        72.02354
814.60        72.40843
815.01        72.66787
815.42        72.76516
815.83        72.72501
816.24        72.60226
816.65        72.50876
817.05        72.48922
817.46        72.49554
817.87         72.4995
818.28        72.41156
818.69        72.21524
819.10        71.93925
819.51        71.67222
819.92        71.57088
820.33        71.67273
820.74        71.92154
821.14        72.18689
821.55        72.30066
821.96        72.21495
822.37        72.00246
822.78        71.75784
823.19        71.64893
823.60         71.7431
824.00        72.00626
824.41        72.37114
824.82        72.83749
825.23        73.35364
825.64        73.88702
826.04        74.36763
826.45         74.5996
826.86        74.56622
827.27        74.32421
827.68        73.89428
828.08        73.34798
828.49        72.71371
828.90        72.00384
829.31        71.40633
829.72        71.19744
830.12        71.45948
830.53        72.11666
830.94        72.86853
831.35        73.11047
831.75        72.71517
832.16        71.80724
832.57        70.88725
832.97        70.72137
833.38        71.44106
833.79        72.78989
834.20        74.27984
834.60        75.07549
835.01        74.90845
835.42        74.08026
835.82        72.95737
836.23         72.0993
836.64        71.69647
837.04        71.59144
837.45        71.68796
837.86        71.89341
838.26        72.15179
838.67        72.48613
839.08        72.82256
839.48         72.9849
839.89        72.92571
840.29        72.67259
840.70        72.34666
841.11        72.12788
841.51         72.0822
841.92        72.13716
842.33        72.27262
842.73        72.45457
843.14        72.61131
843.54         72.8154
843.95        72.99201
844.35        73.09185
844.76        73.07372
845.17        72.93591
845.57         72.7792
845.98        72.75785
846.38        72.91826
846.79        73.20943
847.19        73.49138
847.60        73.43464
848.00        73.01525
848.41        72.33849
848.81        71.67692
849.22        71.42635
849.62        71.68626
850.03        72.29295
850.43        73.05778
850.84        73.50243
851.24        73.54368
851.65        73.28687
852.05        72.89725
852.46        72.60901
852.86        72.50082
853.27        72.50179
853.67        72.59029
854.07        72.92265
854.48        73.43094
854.88        74.20288
855.29        74.89177
855.69        75.08744
856.10        74.55536
856.50        73.51343
856.90         72.3738
857.31        71.75674
857.71        71.79384
858.12         72.2601
858.52        72.95705
858.92        73.29333
859.33        73.06196
859.73        72.49701
860.13        71.73697
860.54        71.01661
860.94         70.4406
861.34         69.9295
861.75        69.53972
862.15        69.43158
862.55        69.60291
862.96        70.00722
863.36        70.51698
863.76        70.82151
864.17        70.83454
864.57        70.64032
864.97        70.34518
865.38        70.14868
865.78        70.13882
866.18         70.2272
866.58        70.35582
866.99        70.42715
867.39        70.44508
867.79        70.45712
868.19        70.44218
868.60        70.32927
869.00        70.11404
869.40         69.8008
869.80        69.55604
870.21         69.6806
870.61        70.26559
871.01        71.14154
871.41        71.95836
871.81        72.19687
872.22        71.75436
872.62        70.79953
873.02        69.66158
873.42        68.88774
873.82        68.66681
874.22        68.88131
874.63        69.32906
875.03        69.67144
875.43        69.81392
875.83        69.85514
876.23        69.96381
876.63        70.40063
877.03        71.18549
877.44        72.15382
877.84        73.06776
878.24        73.50031
878.64        73.34737
879.04        72.76897
879.44        71.98458
879.84         71.3226
880.24        70.89509
880.64        70.62138
881.04        70.49482
881.44        70.48572
881.84        70.57829
882.24         70.8295
882.65        71.12086
883.05        71.32909
883.45        71.36851
883.85        71.23929
884.25         71.1327
884.65        71.35909
885.05        71.95932
885.45        72.84351
885.85        73.70625
886.25        74.02557
886.65        73.67171
887.05        72.79858
887.45        71.79591
887.85        71.27089
888.25        71.37754
888.65        71.95956
889.04        72.66345
889.44        72.88634
889.84        72.50119
890.24         71.6967
890.64        70.85545
891.04        70.52067
891.44        70.80267
891.84        71.55038
892.24        72.36595
892.64         72.5874
893.04        72.06773
893.44        71.02023
893.83         69.9576
894.23        69.65933
894.63        70.24966
895.03        71.49453
895.43        72.85288
895.83        73.34887
896.23        72.74432
896.63        71.42503
897.02        69.92428
897.42        69.09606
897.82        69.06488
898.22        69.60979
898.62        70.45977
899.01        71.17986
899.41        71.55257
899.81        71.73837
900.21        71.89973
900.61        72.30169
901.00        72.98017
901.40        73.74442
901.80        74.39246
902.20        74.65204
902.59        74.47192
902.99        73.98382
903.39        73.29952
903.79        72.59102
904.18        71.94426
904.58        71.34586
904.98           70.91
905.38        70.80989
905.77        71.04832
906.17         71.6217
906.57        72.24232
906.96        72.43928
907.36        72.09923
907.76        71.34649
908.15        70.59255
908.55        70.47675
908.95        71.14363
909.34        72.38289
909.74        73.69939
910.14        74.36531
910.53        74.18001
910.93           73.39
911.33        72.35639
911.72        71.64054
912.12        71.43819
912.52        71.57077
912.91        71.86372
913.31        72.02749
913.70        71.97846
914.10        71.83926
914.49        71.71207
914.89        71.71225
915.29        71.87833
915.68        72.14378
916.08        72.45514
916.47         72.7625
916.87        73.02595
917.26        73.25311
917.66        73.43585
918.05        73.55923
918.45        73.61583
918.84        73.64297
919.24        73.62572
919.64        73.62527
920.03        73.67414
920.42        73.73781
920.82        73.82101
921.21        73.95004
921.61        74.08112
922.00        74.20744
922.40         74.2533
922.79         74.1629
923.19        73.91708
923.58        73.57366
923.98         73.1459
924.37        72.57986
924.77        71.92964
925.16        71.20126
925.55          70.596
925.95        70.42445
926.34        70.77237
926.74        71.50581
927.13        72.42738
927.52        73.11337
927.92        73.42217
928.31        73.46406
928.70           73.34
929.10        73.26104
929.49        73.32042
929.89        73.43915
930.28        73.57249
930.67        73.61273
931.07        73.52155
931.46         73.3326
931.85         73.1492
932.24        73.13337
932.64        73.30363
933.03        73.64159
933.42        73.90823
933.82        73.75492
934.21        73.14214
934.60        72.18852
934.99        71.28321
935.39        70.97893
935.78        71.42763
936.17        72.50774
936.56        73.77895
936.96        74.42275
937.35        74.23073
937.74          73.376
938.13         72.3903
938.53        71.99605
938.92        72.29159
939.31        73.11318
939.70        74.01357
940.09        74.19209
940.49        73.47526
940.88        72.18802
941.27        70.89052
941.66        70.40208
942.05        70.90707
942.44        72.15611
942.84        73.71269
943.23        74.84606
943.62        75.20536
944.01        75.00729
944.40        74.48741
944.79        74.04127
945.18        73.80383
945.57        73.60961
945.97        73.42749
946.36        73.32494
946.75        73.26263
947.14        73.30315
947.53        73.31641
947.92        73.03653
948.31         72.4425
948.70        71.63625
949.09          70.908
949.48        70.69094
949.87        71.07754
950.26        71.95792
950.65        73.05375
951.04        73.86505
951.43        74.20346
951.82        74.14491
952.21        73.93044
952.60        73.96186
952.99        74.30154
953.38        74.80055
953.77         75.1524
954.16        74.83299
954.55        73.79288
954.94        72.35736
955.33        70.89843
955.72         69.9481
956.11        69.65768
956.50        69.80128
956.89        70.39025
957.28        71.45055
957.66        72.91209
958.05        74.64674
958.44        76.09464
958.83        76.19221
959.22        74.77695
959.61        72.28345
960.00        69.59307
960.39        67.96326
960.78        67.67197
961.16        68.38754
961.55        69.68813
961.94        70.93999
962.33        71.85075
962.72        72.62125
963.11        73.10362
963.49        73.04585
963.88        72.41815
964.27        71.31178
964.66        70.14439
965.04         69.5393
965.43        69.59761
965.82         70.1637
966.21        70.98164
966.60        71.52264
966.98        71.59446
967.37        71.32884
967.76          70.833
968.15        70.27155
968.53        69.74301
968.92        69.17521
969.31        68.66627
969.69        68.38949
970.08        68.32996
970.47        68.47507
970.86        68.67647
971.24        68.66413
971.63        68.31012
972.02        67.72147
972.40        67.04277
972.79        66.52583
973.17        66.27505
973.56        66.25649
973.95        66.37286
974.33        66.48521
974.72        66.49842
975.11        66.37379
975.49        66.41008
975.88        67.11331
976.26        68.59897
976.65        70.63448
977.04        72.37516
977.42        72.47054
977.81        70.74821
978.19        67.67452
978.58         64.7282
978.96        63.88228
979.35        65.52574
979.74        69.18737
980.12        73.79893
980.51        76.54278
980.89        76.61758
981.28         74.6779
981.66        71.90688
982.05        70.34387
982.43        70.54524
982.82        71.78109
983.20        73.74206
983.59        75.74735
983.97        77.50314
984.35        79.19127
984.74        80.19308
985.12        79.61091
985.51        77.37891
985.89        73.76089
986.28        69.93382
986.66        67.67104
987.04        67.54871
987.43        69.10548
987.81          71.467
988.20        72.85872
988.58        72.76763
988.96        71.56652
989.35        70.03311
989.73        69.38965
990.12        69.91023
990.50         71.2355
990.88         72.5413
991.27        72.57151
991.65         71.1525
992.03        68.76357
992.42        66.41077
992.80        65.35329
993.18        65.98904
993.56         67.8681
993.95        70.16396
994.33        71.74622
994.71        72.00155
995.10        71.29488
995.48         69.9988
995.86        68.73937
996.24        67.82021
996.63        67.05978
997.01         66.4555
997.39        66.00536
997.77         65.6824
998.15        65.55495
998.54        65.61392
998.92        65.79165
999.30        66.05647
999.68        66.40437
1000.06        66.75556
1000.45        66.95516
1000.83        67.09583
1001.21        67.14063
1001.59        67.19228
1001.97        67.46079
1002.35        67.96249
1002.73        68.55627
1003.12        69.16894
1003.50        69.61984
1003.88        69.87652
1004.26        70.07813
1004.64        70.03524
1005.02        69.43537
1005.40        68.31698
1005.78        66.75967
1006.16        65.39677
1006.54        65.37117
1006.92        66.86111
1007.30        69.39784
1007.69        71.97881
1008.07        73.18793
1008.45        72.54033
1008.83        70.58324
1009.21         67.7789
1009.59        64.92529
1009.97        62.47764
1010.35          60.248
1010.73        58.80962
1011.11        59.13573
1011.49        61.42999
1011.86        65.77196
1012.24        70.86893
1012.62        74.52542
1013.00        75.86662
1013.38        75.10688
1013.76        73.39071
1014.14        73.12489
1014.52        75.05791
1014.90        78.45802
1015.28        82.04478
1015.66        83.46114
1016.04        82.23811
1016.41        79.58775
1016.79        76.77225
1017.17        74.74429
1017.55        73.48141
1017.93        72.36529
1018.31        71.32067
1018.69        70.56873
1019.06        70.25657
1019.44         70.5994
1019.82        70.68806
1020.20        69.40262
1020.58        66.62564
1020.95        62.21399
1021.33        57.28935
1021.71        55.17707
1022.09        57.67265
1022.46        63.83597
1022.84        71.05465
1023.22        75.78417
1023.60         77.1042
1023.97        75.99572
1024.35        73.22609
1024.73        70.35124
