SpectraSmart Spectrum 2.9.0.0
--------- Device Information -----------
Spectrum Name :  反射率_0
Saving Time :  2024/05/01 17:07:46
Spectro-Module Model Name : SE2030-DUVN
Spectro-Module Serial Number : OS361AC55029948
Wavelength Start : 200
Wavelength End : 1025
Wavelength Unit : Wavelength(nm)
Spectrum Unit : Reflectance(%)
-----------Spectrum Setting ------------
Integration Time : 20ms
Average : 10
Boxcar : 0
Background removal :  enabled
linearity correction :  enabled
SC :  disabled
Intensity correction :  disabled
DWT denoise :  enabled
savitzky-golay :  disabled
FFT :  disabled
Running average :  disabled
Kalman :  disabled
High pass :  disabled
---------------BEGIN--------------------
Wavelength(nm)             Reflectance(%)
200.29               0
200.75        114.7346
201.21        663.1094
201.67       -312.9793
202.13       -109.6661
202.58       -34.12756
203.04        14.47544
203.50        46.83864
203.96        65.35477
204.42        76.75724
204.88        91.16873
205.34        395.1314
205.80        3.742209
206.26       -10.58993
206.72       -76.62696
207.18        -444.062
207.64        625.9848
208.10        253.7999
208.55        164.8317
209.01         122.399
209.47        100.3553
209.93        89.42356
210.39        82.64372
210.85        81.22435
211.31        91.73715
211.77        146.7919
212.23       -341.2639
212.69       -48.52873
213.14        -26.6401
213.60       -32.38925
214.06        134.7631
214.52        28.96932
214.98        33.17527
215.44        56.54007
215.90        136.5593
216.36        1387.146
216.81       -549.8976
217.27       -699.2617
217.73        1409.764
218.19        278.9689
218.65        192.4403
219.11        210.9982
219.57        356.0979
220.02        998.3477
220.48        551.7111
220.94         209.475
221.40        123.7776
221.86        96.84151
222.32        92.37514
222.77        100.2168
223.23        119.1144
223.69         146.596
224.15        161.5774
224.61        154.3189
225.06        138.1702
225.52        127.6348
225.98         128.164
226.44        139.1018
226.90        160.1762
227.36        187.3418
227.81        199.8216
228.27        189.9429
228.73        171.4678
229.19         157.052
229.65        153.8857
230.10         160.916
230.56        175.6901
231.02        194.8688
231.48        206.6817
231.93        204.7447
232.39        196.1131
232.85        184.9689
233.31        174.7347
233.77        166.5847
234.22        159.3131
234.68        154.7569
235.14        155.1138
235.60        160.9267
236.05        173.8985
236.51        193.3348
236.97        211.5872
237.43        219.4772
237.88        214.6789
238.34        202.2151
238.80        194.1295
239.26        193.9284
239.71        201.7887
240.17        213.9877
240.63        215.2647
241.08        194.1156
241.54        160.6637
242.00        133.5517
242.46        123.0852
242.91         128.997
243.37        152.2813
243.83        192.8329
244.28        210.8624
244.74        180.1623
245.20        138.3475
245.66        107.6586
246.11        89.83613
246.57        78.53371
247.03        67.82035
247.48        53.26631
247.94        32.26353
248.40        10.51608
248.85       -5.429883
249.31       -7.713961
249.77        3.814469
250.22         20.9112
250.68        37.86515
251.14        50.81031
251.59        58.59121
252.05        63.47044
252.51        68.18305
252.96        79.87446
253.42        122.0289
253.88        175.1693
254.33        180.3725
254.79        167.9259
255.25        156.8034
255.70        147.3606
256.16        140.3466
256.62        134.6526
257.07        129.8845
257.53        127.2963
257.99         126.094
258.44        125.8065
258.90        127.1906
259.35        129.3256
259.81        132.3954
260.27        135.7218
260.72        138.4515
261.18        140.6878
261.63         141.776
262.09        142.3133
262.55        142.0311
263.00        140.8213
263.46        139.3274
263.91        137.2097
264.37        134.9477
264.83        132.5383
265.28        130.0365
265.74        127.9289
266.19        126.2026
266.65        125.0844
267.11        124.3246
267.56         123.906
268.02        123.9808
268.47        124.3769
268.93        125.0053
269.38        125.3982
269.84        124.8156
270.30        123.1548
270.75         120.616
271.21        117.8435
271.66         115.611
272.12        114.2028
272.57        113.2635
273.03        112.5316
273.48        111.4086
273.94        109.8769
274.39        108.0742
274.85        106.2611
275.31        104.5233
275.76         102.867
276.22        101.3792
276.67        99.95277
277.13        98.81344
277.58        97.76987
278.04        96.85687
278.49        95.85195
278.95        94.71377
279.40        93.30647
279.86        91.81583
280.31        90.13627
280.77        88.42587
281.22        86.59339
281.68        84.80844
282.13         83.0308
282.59        81.46246
283.04        80.03213
283.50        78.81695
283.95        77.71892
284.41        76.75704
284.86        75.86777
285.32        75.09643
285.77        74.41586
286.22        73.93039
286.68        73.60179
287.13        73.33276
287.59        72.96401
288.04        72.19205
288.50        71.05991
288.95         69.6314
289.41        68.23171
289.86        67.11557
290.32        66.40697
290.77        65.95809
291.22        65.63508
291.68        65.20137
292.13        64.57057
292.59        63.85608
293.04        63.13109
293.50        62.59173
293.95        62.24961
294.40        62.04885
294.86        61.89768
295.31        61.66567
295.77        61.32621
296.22        60.90847
296.68        60.49147
297.13           60.13
297.58        59.86813
298.04        59.71263
298.49        59.59512
298.95        59.47659
299.40        59.31836
299.85        59.12784
300.31        59.01662
300.76        59.10619
301.21         59.4073
301.67        59.87291
302.12        60.25885
302.58        60.24615
303.03         59.7632
303.48        58.96771
303.94         58.1952
304.39        57.80779
304.84         57.9097
305.30        58.35839
305.75        58.89571
306.20        59.16468
306.66        59.08779
307.11        58.75062
307.57        58.33491
308.02         58.0134
308.47        57.86079
308.93        57.81339
309.38        57.76639
309.83        57.63729
310.29        57.41916
310.74        57.15343
311.19        56.89255
311.65        56.69108
312.10        56.55127
312.55        56.44178
313.00        56.37999
313.46        56.39786
313.91        56.47194
314.36        56.58509
314.82        56.62667
315.27        56.43727
315.72        55.98902
316.18        55.35749
316.63        54.66483
317.08         54.1206
317.53        53.77736
317.99        53.58589
318.44        53.46859
318.89        53.29618
319.35        53.03505
319.80        52.73487
320.25        52.44987
320.70        52.26093
321.16        52.17462
321.61         52.1576
322.06        52.16364
322.51        52.13359
322.97        52.03395
323.42        51.90544
323.87        51.73412
324.32        51.51445
324.78        51.25071
325.23        50.95972
325.68        50.68458
326.13        50.50728
326.59        50.43021
327.04         50.4574
327.49         50.5071
327.94        50.45286
328.39        50.25875
328.85         49.9363
329.30        49.59488
329.75        49.35733
330.20        49.26628
330.66        49.27778
331.11        49.33859
331.56        49.29755
332.01        49.12221
332.46        48.85839
332.92        48.58721
333.37        48.49497
333.82        48.60923
334.27        48.88355
334.72        49.21726
335.17        49.43846
335.63        49.47223
336.08        49.38055
336.53        49.23365
336.98        49.17442
337.43        49.24121
337.88        49.39622
338.34         49.5324
338.79        49.51139
339.24        49.29087
339.69        48.92785
340.14        48.56738
340.59        48.43146
341.05        48.55737
341.50        48.88068
341.95        49.24522
342.40         49.3989
342.85        49.28496
343.30        49.00018
343.75        48.67256
344.20        48.49819
344.66        48.53349
345.11        48.69939
345.56        48.95878
346.01        49.24632
346.46        49.51551
346.91        49.78181
347.36        49.98554
347.81        50.03475
348.26        49.92557
348.72        49.69217
349.17        49.40446
349.62        49.22925
350.07        49.19939
350.52        49.25899
350.97        49.34148
351.42          49.328
351.87        49.19261
352.32        49.00518
352.77         48.7608
353.22        48.45018
353.67        48.09331
354.13        47.68941
354.58        47.34784
355.03        47.29433
355.48        47.54874
355.93        48.05943
356.38        48.56353
356.83        48.61813
357.28        48.14191
357.73        47.28181
358.18        46.38468
358.63        45.96813
359.08        46.12524
359.53        46.68205
359.98         47.3376
360.43        47.58447
360.88        47.28193
361.33        46.61176
361.78          45.797
362.23        45.15382
362.68        44.77606
363.13        44.56343
363.58        44.43887
364.03        44.29405
364.48        44.08209
364.93        43.83341
365.38        43.58234
365.83        43.36431
366.28        43.18051
366.73        43.01912
367.18        42.79196
367.63        42.37184
368.08        41.76525
368.53        41.03721
368.98        40.36506
369.43        40.00413
369.88        39.99065
370.33        40.23811
370.78        40.57178
371.23        40.67845
371.68        40.46142
372.13        40.02332
372.58        39.47891
373.03        39.00204
373.48         38.6498
373.93         38.3604
374.38        38.14086
374.83        38.01088
375.28        37.95817
375.72        37.98153
376.17         38.0116
376.62        37.91388
377.07        37.66475
377.52        37.29589
377.97        36.89351
378.42        36.60163
378.87        36.45346
379.32        36.40475
379.77         36.3825
380.22        36.27277
380.67         36.0487
381.11        35.75322
381.56        35.43804
382.01        35.19593
382.46        35.05403
382.91        34.97929
383.36        34.92809
383.81        34.83594
384.26        34.68188
384.71        34.48523
385.15        34.26265
385.60        34.06494
386.05        33.89725
386.50         33.7496
386.95         33.6047
387.40        33.43889
387.85        33.25363
388.29        33.04219
388.74        32.87365
389.19        32.75441
389.64        32.68285
390.09        32.63709
390.54        32.60105
390.98        32.54469
391.43        32.47533
391.88          32.403
392.33        32.31287
392.78        32.19662
393.23        32.06334
393.67        31.86935
394.12        31.69432
394.57        31.68958
395.02        31.81718
395.47        31.83188
395.91        31.74232
396.36        31.74575
396.81        31.84739
397.26         31.9316
397.71        31.94668
398.15        31.89313
398.60        31.80748
399.05        31.56835
399.50         31.2814
399.95         31.3246
400.39        31.61369
400.84        31.55302
401.29        31.14708
401.74        30.90874
402.18        30.86451
402.63        30.69917
403.08        30.44717
403.53        30.29908
403.97        30.26252
404.42        30.29182
404.87        30.33081
405.32        30.29272
405.76        30.15592
406.21        29.96141
406.66        29.76885
407.11          29.672
407.55        29.69957
408.00        29.82149
408.45        29.98191
408.90        30.03884
409.34        29.97298
409.79        29.89545
410.24        29.83466
410.68        29.76517
411.13        29.70376
411.58         29.6727
412.03        29.65671
412.47        29.61769
412.92        29.54204
413.37         29.4526
413.81        29.36357
414.26        29.31568
414.71        29.30588
415.15        29.33136
415.60        29.35375
416.05        29.33869
416.49        29.27654
416.94        29.17311
417.39         29.0614
417.83        28.99176
418.28        28.97485
418.73        28.99416
419.17        29.01325
419.62        28.96969
420.07        28.85862
420.51        28.70396
420.96         28.5646
421.41        28.49294
421.85        28.49412
422.30        28.56142
422.74        28.66645
423.19        28.80033
423.64        28.94175
424.08        29.09925
424.53        29.22352
424.98        29.27125
425.42        29.23701
425.87        29.13459
426.31        28.99128
426.76        28.86203
427.21        28.75703
427.65        28.65641
428.10         28.5934
428.54        28.61825
428.99        28.74418
429.44         28.9786
429.88        29.17459
430.33        29.16401
430.77        28.92269
431.22        28.49089
431.66        28.04858
432.11        28.01523
432.56        28.36158
433.00         28.7017
433.45        28.80017
433.89        28.62778
434.34        28.02869
434.78        27.94517
435.23        28.57598
435.67        28.80139
436.12        28.67521
436.57        28.73974
437.01        28.99075
437.46        29.08188
437.90        28.98477
438.35        28.84953
438.79        28.70066
439.24         28.4991
439.68        28.31419
440.13        28.35329
440.57        28.55288
441.02        28.66954
441.46         28.6723
441.91        28.56872
442.35        28.41069
442.80          28.625
443.24        29.05285
443.69        28.89902
444.13         28.2705
444.58        28.02767
445.02        28.19249
445.47        28.31915
445.91        28.36327
446.36        28.46335
446.80        28.59558
447.24        28.72154
447.69        28.82046
448.13        28.85595
448.58        28.82769
449.02        28.74249
449.47        28.63803
449.91        28.55397
450.36        28.51243
450.80        28.49673
451.25        28.49568
451.69        28.47004
452.13        28.41423
452.58        28.34526
453.02         28.2686
453.47         28.2083
453.91        28.16726
454.36        28.14817
454.80        28.13991
455.24        28.12647
455.69        28.11191
456.13        28.08546
456.58        28.08428
457.02          28.127
457.46        28.22103
457.91        28.35612
458.35        28.48489
458.79        28.49278
459.24        28.37648
459.68         28.2454
460.13        28.20265
460.57        27.84342
461.01        27.99198
461.46        28.01177
461.90        28.10752
462.34        28.10358
462.79        28.13771
463.23        28.09927
463.68        28.05828
464.12        28.06214
464.56        28.11782
465.01        28.24349
465.45        28.34148
465.89        28.32478
466.34        28.19006
466.78        27.95967
467.22        27.71182
467.67        27.63274
468.11        27.64768
468.55        27.81112
468.99        28.02107
469.44        28.17139
469.88        28.23401
470.32        28.23516
470.77        28.20542
471.21        28.19642
471.65        28.22039
472.10        28.25935
472.54        28.29069
472.98         28.2989
473.42        28.28171
473.87        28.26261
474.31        28.23384
474.75        28.20747
475.20        28.19439
475.64        28.17963
476.08        28.16682
476.52        28.21553
476.97        28.33356
477.41        28.43555
477.85        28.31855
478.29        28.77442
478.74        28.51732
479.18        28.51421
479.62        28.41867
480.06        28.43979
480.50        28.60424
480.95        28.34228
481.39        28.61617
481.83        28.61654
482.27         28.6373
482.72         28.6792
483.16           28.74
483.60         28.8232
484.04          28.907
484.48        28.92017
484.93        29.00965
485.37        29.22973
485.81        29.45413
486.25        29.81345
486.69        29.36108
487.14        28.57059
487.58        28.76916
488.02        29.97034
488.46        29.51029
488.90        29.23746
489.34        29.57875
489.79        29.41519
490.23         29.6479
490.67        29.93094
491.11        30.33351
491.55        30.35457
491.99        30.05217
492.43        29.99319
492.88        30.20988
493.32         30.3657
493.76        30.42344
494.20        30.51478
494.64        30.63908
495.08        30.72398
495.52        30.78599
495.96        30.93666
496.41        31.14362
496.85        31.21546
497.29        31.16583
497.73        31.22481
498.17        31.38855
498.61        31.43814
499.05        31.40117
499.49        31.47595
499.93        31.66981
500.37         31.8869
500.82        32.08863
501.26        32.24263
501.70        32.33328
502.14          32.375
502.58         32.3838
503.02        32.38664
503.46        32.39816
503.90         32.4112
504.34        32.44697
504.78        32.53841
505.22         32.6862
505.66         32.8813
506.10        33.07595
506.54        33.18882
506.98        33.20204
507.42        33.14066
507.86        33.05425
508.30        33.02142
508.74        33.06495
509.18         33.1636
509.62        33.28991
510.06        33.39828
510.50        33.47056
510.94        33.51641
511.38        33.54874
511.82        33.58693
512.26        33.63377
512.70        33.68018
513.14        33.70407
513.58        33.67397
514.02         33.5889
514.46        33.46539
514.90        33.34204
515.34        33.27885
515.78        33.29166
516.22        33.36459
516.66        33.46513
517.10        33.53997
517.54        33.57335
517.98        33.57868
518.42        33.57444
518.86        33.59146
519.30        33.63647
519.74        33.69425
520.18        33.74728
520.62        33.77238
521.06        33.76264
521.50        33.72519
521.93        33.67428
522.37         33.6249
522.81        33.58776
523.25        33.56374
523.69         33.5412
524.13        33.50028
524.57        33.44133
525.01        33.37244
525.45        33.32061
525.89        33.32833
526.32         33.3964
526.76        33.49987
527.20        33.59964
527.64        33.63462
528.08        33.58942
528.52        33.49096
528.96        33.35304
529.40        33.19683
529.83        33.03722
530.27        32.88153
530.71        32.76456
531.15        32.74817
531.59        32.83657
532.03        33.00522
532.46        33.18974
532.90        33.29258
533.34        33.28828
533.78        33.18071
534.22        33.01265
534.66        32.90999
535.09        32.86292
535.53        32.73385
535.97        32.55022
536.41          32.473
536.85        32.51157
537.28        32.59069
537.72        32.67176
538.16         32.7209
538.60         32.7227
539.04        32.68392
539.47        32.63796
539.91        32.65759
540.35        32.74628
540.79        32.89465
541.22         33.0602
541.66        33.12689
542.10        33.16558
542.54        33.13551
542.97        33.10131
543.41        33.14166
543.85        33.26706
544.29        33.45106
544.72        33.65702
545.16        33.84705
545.60         33.9994
546.04        34.12317
546.47        34.22498
546.91        34.32076
547.35        34.41848
547.79        34.50555
548.22        34.55947
548.66        34.62157
549.10        34.69732
549.53        34.62724
549.97        34.74501
550.41        34.87008
550.84        35.09345
551.28        35.40278
551.72        35.74355
552.15        35.96936
552.59        36.06784
553.03        36.20271
553.46        36.23656
553.90        36.33441
554.34        36.46757
554.77        36.55865
555.21        36.57221
555.65        36.87777
556.08        36.76324
556.52        36.76511
556.96        36.71679
557.39        36.72058
557.83        36.87796
558.27        37.01155
558.70        37.11726
559.14        37.34585
559.57        37.35145
560.01        37.47322
560.45        37.56355
560.88        37.51956
561.32        37.42547
561.75        37.30994
562.19         37.2735
562.63        37.62835
563.06        38.20647
563.50        38.20492
563.93        37.71133
564.37        37.60199
564.80        37.89015
565.24        38.09886
565.68        38.17318
566.11        38.25312
566.55        38.34235
566.98        38.39034
567.42        38.44775
567.85        38.55318
568.29         38.7218
568.72        38.93901
569.16        39.20609
569.60        39.34975
570.03        39.31946
570.47        39.52929
570.90        39.63421
571.34        39.39563
571.77        39.66161
572.21        39.76558
572.64        40.00031
573.08        39.91445
573.51        40.35958
573.95        40.59584
574.38        40.39742
574.82        40.78682
575.25         40.6601
575.69        40.77105
576.12        40.82399
576.56        40.93094
576.99        40.96317
577.42        40.95506
577.86        40.75618
578.29        40.93305
578.73        41.24896
579.16        40.77755
579.60        40.43266
580.03        40.42514
580.47        40.61808
580.90        40.05824
581.33        40.74068
581.77        41.13493
582.20        40.55975
582.64        40.38526
583.07        40.26231
583.51        40.05878
583.94        39.90177
584.37         40.0727
584.81        40.50314
585.24        40.28289
585.68        39.87827
586.11        39.75134
586.54        39.83558
586.98        39.67065
587.41        39.12411
587.85        39.66849
588.28        39.50922
588.71        38.85805
589.15          39.502
589.58        39.02685
590.01        39.16227
590.45        39.15122
590.88        39.32185
591.31        39.46884
591.75         39.5173
592.18        39.40586
592.61        39.16277
593.05        39.27983
593.48        39.24052
593.91        39.45815
594.35        39.41616
594.78        39.53413
595.21        39.62953
595.65        39.90841
596.08        39.98983
596.51        39.80542
596.94        40.02818
597.38        40.21199
597.81        40.68058
598.24        40.39777
598.68        41.16304
599.11         41.2288
599.54        41.82684
599.97        41.45045
600.41         41.8216
600.84        42.37783
601.27        42.43894
601.70        43.09177
602.14        43.61756
602.57        43.86118
603.00        43.77807
603.43         43.8202
603.87        44.34299
604.30        44.64075
604.73        44.83154
605.16        45.06583
605.60         45.4026
606.03        46.00657
606.46        46.67078
606.89        46.87319
607.32        46.79779
607.76        46.89998
608.19        47.24518
608.62        47.86633
609.05        48.13698
609.48        48.40116
609.92        48.57629
610.35        48.81186
610.78        49.59169
611.21        50.02473
611.64        49.84349
612.07         50.1426
612.50        50.74139
612.94        50.99602
613.37        50.92455
613.80        50.92593
614.23        51.01006
614.66        51.46444
615.09         51.4781
615.52         51.7492
615.96        51.96175
616.39         52.5027
616.82         52.4473
617.25        52.75285
617.68        53.11243
618.11        53.32877
618.54        53.38026
618.97        53.37212
619.40        53.39811
619.84        53.49049
620.27        53.67635
620.70        54.07877
621.13        54.64707
621.56        54.50562
621.99        54.55455
622.42        54.63181
622.85        54.70926
623.28        54.47915
623.71        54.37803
624.14        55.10846
624.57        54.99665
625.00        55.22977
625.43        55.26499
625.86        55.16173
626.29        54.89883
626.72          54.926
627.15        54.60747
627.58        54.39891
628.01        54.13596
628.44        54.09308
628.87        54.14352
629.30        53.91285
629.73        53.71038
630.16        53.52656
630.59        53.44838
631.02        53.32267
631.45        53.12389
631.88        52.87334
632.31        52.56408
632.74        52.19549
633.17        51.80163
633.60        51.43724
634.03        51.11786
634.46        50.83425
634.89        50.56355
635.32         50.2653
635.75        49.92971
636.18        49.57098
636.61        49.20632
637.04        48.86108
637.47        48.54539
637.89        48.24314
638.32        47.92221
638.75        47.61072
639.18        47.32003
639.61        46.85865
640.04        46.60895
640.47        46.32917
640.90        46.13071
641.33        45.98244
641.76         45.8486
642.18        45.73379
642.61        45.62664
643.04        45.43385
643.47        45.13328
643.90        45.32619
644.33         45.0455
644.76        45.00549
645.18        44.95141
645.61        45.11071
646.04        45.40959
646.47        45.48222
646.90        45.37312
647.33        45.45694
647.75        45.74807
648.18        46.02174
648.61        46.25227
649.04        46.45779
649.47        46.62057
649.89        46.87438
650.32        47.19213
650.75         47.2149
651.18        47.07833
651.61         47.5734
652.03        48.61669
652.46        49.04508
652.89        48.86039
653.32        49.21718
653.74        50.25977
654.17         50.1579
654.60        50.79107
655.03        51.32605
655.46        51.29345
655.88        51.85244
656.31        57.05226
656.74        56.47799
657.16        51.68077
657.59        50.95538
658.02        52.99517
658.45        53.79231
658.87        54.19385
659.30        53.76989
659.73         54.6044
660.15        55.07905
660.58        55.22943
661.01        55.30153
661.44        55.29728
661.86        55.62661
662.29        56.23844
662.72        56.64454
663.14        56.82027
663.57        57.04989
664.00        57.33942
664.42         57.5211
664.85          57.611
665.27        57.66739
665.70        57.73595
666.13        57.87073
666.55        58.09515
666.98        58.38433
667.41        58.71294
667.83        59.03397
668.26        59.30988
668.69        59.55184
669.11        59.75664
669.54        59.93545
669.96        60.08225
670.39        60.16315
670.82        60.21608
671.24        60.27283
671.67        60.38164
672.09        60.65177
672.52        61.01109
672.94        61.17682
673.37        61.12946
673.80        61.00287
674.22         60.8921
674.65        60.87687
675.07         61.0082
675.50         61.2434
675.92         61.5355
676.35        61.80049
676.77        62.01186
677.20        62.18611
677.62         62.3317
678.05        62.44999
678.47        62.54523
678.90        62.61558
679.32        62.66965
679.75        62.74797
680.17        62.85154
680.60         62.9772
681.02        63.11193
681.45        63.20684
681.87        63.26549
682.30        63.32342
682.72        63.40462
683.15        63.44421
683.57        63.48727
684.00         63.6782
684.42         63.9801
684.85        64.19954
685.27        64.29854
685.70        64.41532
686.12        64.53816
686.54        64.53515
686.97        64.43882
687.39         64.5198
687.82        64.73165
688.24        64.69209
688.66        64.47473
689.09        64.60402
689.51        65.06217
689.94        65.34203
690.36        65.42012
690.78        65.57721
691.21        65.84812
691.63        66.08988
692.06        66.34248
692.48        66.82811
692.90        67.41549
693.33        67.68644
693.75        67.59979
694.17        67.29176
694.60        66.92764
695.02         66.7795
695.44        66.85534
695.87         66.9417
696.29        67.00871
696.71        66.98706
697.14        66.97636
697.56        67.38046
697.98        68.08051
698.41        68.48174
698.83        68.53059
699.25         68.5487
699.68        68.56744
700.10        68.57291
700.52        68.58708
700.94        68.56702
701.37        68.56099
701.79        68.77291
702.21        69.13412
702.64        69.43192
703.06        69.60488
703.48         69.6261
703.90        69.46387
704.33        69.54709
704.75        69.09192
705.17        69.02641
705.59        69.13802
706.01        69.38022
706.44         69.6869
706.86        69.98586
707.28        70.22472
707.70        70.42818
708.12        70.59519
708.55        70.68063
708.97        70.67832
709.39        70.72446
709.81        70.62916
710.23        70.63018
710.66        70.68139
711.08        70.79304
711.50        70.93175
711.92        71.06165
712.34        71.17426
712.76         71.2766
713.19        71.36736
713.61         71.4939
714.03        71.63655
714.45         71.7792
714.87        71.91069
715.29        72.01855
715.71         72.0994
716.13         72.1596
716.56        72.17783
716.98        72.21164
717.40        72.23779
717.82        72.25047
718.24        72.26295
718.66        72.30282
719.08        72.38289
719.50        72.46673
719.92         72.5135
720.34        72.56844
720.76        72.64873
721.19        72.31837
721.61        72.41113
722.03        72.36948
722.45         72.4491
722.87        72.63185
723.29        72.87994
723.71        73.05949
724.13        73.18906
724.55        73.28714
724.97        73.36613
725.39        73.53608
725.81        73.77238
726.23        74.27722
726.65        74.50631
727.07        74.57638
727.49        74.33862
727.91         73.8856
728.33         73.4034
728.75        73.19244
729.17        73.32786
729.59        73.71439
730.01        74.20795
730.43        74.55388
730.85        74.66955
731.27        74.64171
731.69        74.53334
732.10        74.44236
732.52        74.41174
732.94        74.39424
733.36        74.42139
733.78        74.53398
734.20         74.7226
734.62        75.04594
735.04        75.41089
735.46        75.48581
735.88        75.32542
736.30        75.37688
736.72        75.61844
737.13        75.68339
737.55        75.54005
737.97        75.39124
738.39        75.31623
738.81        75.44985
739.23        75.75291
739.65        75.93274
740.06        75.92809
740.48        76.01855
740.90        76.17131
741.32        76.24321
741.74        76.22371
742.16        76.19286
742.57         76.1648
742.99        76.11649
743.41        76.10442
743.83        76.18335
744.25        76.36978
744.67        76.69029
745.08        77.06635
745.50        77.23996
745.92        77.17553
746.34        76.94586
746.75        76.65023
747.17        76.43151
747.59         76.3139
748.01        76.40735
748.42        76.63023
748.84        76.49097
749.26        76.12081
749.68        76.27509
750.09        76.84014
750.51        77.23631
750.93        77.37701
751.35        77.52708
751.76         77.6981
752.18        77.81927
752.60        77.89816
753.01         77.9414
753.43        77.92896
753.85        77.91232
754.27        77.91148
754.68        77.91457
755.10        77.96653
755.52        78.13403
755.93         78.4043
756.35        78.73521
756.77        79.03913
757.18        79.18071
757.60        79.15145
758.02        79.04063
758.43        78.78931
758.85        78.72559
759.26        78.06982
759.68        78.18156
760.10         78.6671
760.51        79.50439
760.93        79.23695
761.34        79.27474
761.76        79.27271
762.18        78.92829
762.59        78.46255
763.01        78.58401
763.42        79.26759
763.84        79.56268
764.26        79.42001
764.67        79.24947
765.09        79.19115
765.50        79.27648
765.92        79.48814
766.33        79.48491
766.75        79.21045
767.16        79.21423
767.58         79.4724
768.00        79.51059
768.41        79.48315
768.83        80.12128
769.24         81.1559
769.66        81.75134
770.07        81.37331
770.49        80.88839
770.90        80.41028
771.32        80.42124
771.73          80.853
772.15         80.9334
772.56         80.6526
772.97        80.56126
773.39        80.68237
773.80        80.80515
774.22        80.88438
774.63        81.04044
775.05        81.20459
775.46        81.34073
775.88        81.40528
776.29        81.43469
776.70        81.44664
777.12        81.50845
777.53        81.63811
777.95        81.76842
778.36        81.88547
778.77           81.89
779.19        81.76759
779.60        81.72135
780.02         81.6896
780.43         81.2887
780.84        80.77374
781.26         80.6665
781.67        80.92289
782.09        81.62527
782.50         82.5694
782.91        81.27838
783.33        81.07619
783.74        80.76685
784.15        81.37671
784.57         82.0331
784.98        82.63738
785.39         83.2738
785.81        83.82877
786.22         84.0318
786.63        84.33565
787.04        84.31715
787.46        84.17459
787.87        83.86654
788.28        83.56318
788.70        83.47399
789.11        83.60497
789.52        83.97657
789.93        84.41166
790.35        84.49143
790.76        84.22173
791.17        83.91859
791.58        83.69575
792.00        83.52413
792.41        83.46786
792.82        83.53619
793.23        83.67088
793.65        83.87956
794.06        84.06641
794.47          83.882
794.88        83.47585
795.29        83.37988
795.71        83.55683
796.12        83.84703
796.53        84.12016
796.94        84.27065
797.35        84.24652
797.76        84.05488
798.18        83.80946
798.59        83.79465
799.00        84.09904
799.41        84.02869
799.82        84.62579
800.23        84.90791
800.64        85.15777
801.06        85.34699
801.47        85.49969
801.88        85.51675
802.29        85.37994
802.70        85.10516
803.11         84.7995
803.52        84.64734
803.93        84.71357
804.34        84.96691
804.75         85.2768
805.17        85.53132
805.58        85.74785
805.99         85.5048
806.40        84.98936
806.81        85.53491
807.22        86.71935
807.63         86.1391
808.04        84.13562
808.45        83.38972
808.86        84.11362
809.27        84.83212
809.68        85.27699
810.09        85.66681
810.50        85.88717
810.91        85.88486
811.32        85.72211
811.73        85.51061
812.14        85.30998
812.55        85.10274
812.96        84.96949
813.37        85.03739
813.78         85.3215
814.19        85.79125
814.60        86.31406
815.01        86.67321
815.42        86.81626
815.83        86.79422
816.24         86.6692
816.65        86.57286
817.05        86.56127
817.46        86.56001
817.87        86.59064
818.28        86.63934
818.69        86.69104
819.10        86.75402
819.51        86.80243
819.92        86.77789
820.33        86.66859
820.74        86.49788
821.14        86.28255
821.55        86.07885
821.96        85.89675
822.37        85.74955
822.78        85.67274
823.19        85.72179
823.60        85.90939
824.00         86.2347
824.41        86.61588
824.82         87.0461
825.23        87.47992
825.64        87.88517
826.04        88.21257
826.45        88.29689
826.86        88.14806
827.27        87.81947
827.68         87.3698
828.08        86.92349
828.49        86.50436
828.90        86.11266
829.31        85.84603
829.72        85.83611
830.12        86.13779
830.53        86.69099
830.94        87.29824
831.35        87.53874
831.75         87.3313
832.16        86.72905
832.57        86.12195
832.97        86.10748
833.38        86.77199
833.79         87.9128
834.20        89.11511
834.60        89.67226
835.01        89.36113
835.42        88.45992
835.82         87.2975
836.23        86.37406
836.64        85.86395
837.04        85.63675
837.45        85.63139
837.86        85.82138
838.26        86.16306
838.67        86.64333
839.08        87.12801
839.48        87.34326
839.89        87.21725
840.29         86.8149
840.70        86.31606
841.11        85.98954
841.51        85.93124
841.92        86.04215
842.33        86.28281
842.73        86.59072
843.14        86.86749
843.54        87.19267
843.95         87.4724
844.35        87.64532
844.76        87.65703
845.17        87.51521
845.57         87.3066
845.98        87.16695
846.38        87.15457
846.79         87.2206
847.19        87.30283
847.60        87.18436
848.00        86.86397
848.41        86.40165
848.81        85.97024
849.22        85.81206
849.62        85.99687
850.03          86.412
850.43         86.9324
850.84        87.16588
851.24        87.08916
851.65         86.7597
852.05         86.3947
852.46        86.29441
852.86        86.50347
853.27        86.90718
853.67        87.33072
854.07        87.76576
854.48         88.1037
854.88        88.49645
855.29        88.65536
855.69        88.40321
856.10        87.60709
856.50        86.46342
856.90        85.36354
857.31        84.88781
857.71        85.13876
858.12        85.89844
858.52        86.93898
858.92        87.55257
859.33        87.48253
859.73        86.97958
860.13        86.19374
860.54        85.40598
860.94        84.74862
861.34        84.12946
861.75        83.65212
862.15         83.5714
862.55        83.89419
862.96        84.55756
863.36        85.34534
863.76        85.78862
864.17        85.76157
864.57        85.38819
864.97        84.86706
865.38        84.55219
865.78          84.578
866.18        84.80276
866.58         85.0778
866.99        85.14777
867.39        84.98331
867.79         84.6909
868.19        84.33233
868.60        83.93736
869.00        83.53278
869.40        83.10242
869.80        82.79492
870.21        82.88335
870.61        83.45797
871.01        84.34663
871.41        85.21322
871.81        85.55599
872.22        85.26399
872.62         84.4916
873.02        83.50942
873.42        82.77511
873.82        82.46107
874.22        82.47533
874.63        82.69968
875.03        82.93019
875.43        83.10188
875.83         83.2738
876.23        83.53729
876.63        84.02373
877.03        84.72831
877.44        85.54363
877.84        86.29882
878.24        86.66247
878.64        86.56761
879.04        86.13696
879.44         85.5856
879.84        85.24451
880.24        85.19706
880.64         85.3336
881.04        85.58753
881.44         85.8364
881.84        86.03274
882.24        86.25288
882.65        86.36809
883.05        86.28381
883.45        85.95171
883.85        85.40723
884.25        84.93849
884.65        84.97688
885.05        85.58436
885.45        86.64557
885.85        87.78513
886.25        88.34802
886.65         88.1465
887.05        87.34764
887.45        86.36675
887.85        85.86198
888.25        86.00332
888.65        86.61922
889.04        87.31894
889.44        87.45246
889.84        86.89437
890.24        85.85647
890.64        84.80915
891.04        84.41519
891.44        84.80154
891.84        85.79055
892.24        86.86423
892.64        87.15097
893.04        86.46535
893.44        85.09464
893.83        83.70766
894.23        83.32951
894.63        84.12448
895.03        85.77176
895.43        87.60133
895.83        88.39779
896.23        87.83728
896.63        86.39264
897.02        84.65571
897.42        83.58195
897.82         83.3336
898.22        83.67999
898.62        84.39459
899.01        85.13731
899.41        85.69056
899.81        86.17796
900.21        86.73159
900.61        87.54545
901.00        88.61035
901.40         89.7539
901.80        90.65612
902.20         90.8713
902.59         90.3543
902.99        89.29076
903.39        88.07291
903.79        87.33398
904.18        87.22458
904.58         87.5612
904.98        88.11133
905.38        88.51541
905.77        88.65015
906.17         88.6862
906.57        88.54512
906.96        88.11166
907.36        87.40179
907.76        86.44028
908.15        85.61489
908.55        85.51348
908.95        86.25932
909.34        87.70715
909.74        89.28585
910.14        90.12933
910.53        89.99897
910.93        89.11996
911.33        87.99586
911.72        87.44141
912.12        87.67262
912.52        88.42834
912.91        89.25476
913.31         89.3903
913.70        88.68924
914.10        87.47606
914.49        86.21637
914.89        85.58605
915.29        85.76328
915.68        86.49442
916.08        87.53459
916.47        88.50582
916.87        89.21201
917.26        89.75291
917.66        90.05939
918.05        90.01354
918.45        89.62868
918.84        88.96223
919.24        88.20937
919.64        87.85692
920.03        88.05249
920.42        88.64696
920.82        89.41616
921.21        90.01375
921.61        90.28808
922.00        90.33045
922.40        90.15328
922.79        89.90505
923.19        89.62531
923.58        89.28435
923.98        88.84303
924.37        88.14751
924.77        87.25373
925.16         86.2413
925.55        85.35746
925.95        84.97102
926.34        85.22089
926.74         85.9397
927.13        86.98889
927.52         88.0324
927.92        88.90445
928.31        89.66222
928.70        90.22096
929.10        90.49475
929.49        90.50434
929.89        90.23464
930.28        89.80209
930.67        89.36993
931.07        88.99464
931.46        88.66058
931.85        88.40875
932.24        88.28866
932.64        88.29752
933.03        88.48071
933.42        88.63934
933.82        88.47027
934.21        87.93463
934.60         87.1139
934.99        86.38287
935.39         86.2785
935.78        86.94799
936.17        88.27238
936.56        89.75433
936.96        90.47941
937.35        90.22267
937.74        89.16641
938.13        87.94918
938.53        87.43607
938.92        87.74262
939.31        88.69124
939.70        89.72788
940.09        89.85748
940.49        88.87438
940.88        87.17491
941.27        85.48261
941.66        84.85828
942.05        85.53233
942.44        87.18656
942.84         89.2168
943.23        90.61841
943.62        90.92958
944.01        90.46422
944.40          89.607
944.79        88.98832
945.18        88.82011
945.57        88.86826
945.97         89.0442
946.36        89.33096
946.75        89.65327
947.14        90.09467
947.53        90.52049
947.92        90.64075
948.31        90.40075
948.70        89.86754
949.09        89.30132
949.48        89.11366
949.87         89.4037
950.26        90.08492
950.65           90.91
951.04        91.43808
951.43        91.52091
951.82        91.23686
952.21        90.85851
952.60        90.81886
952.99         91.1721
953.38        91.75995
953.77        92.20679
954.16        91.86456
954.55        90.65832
954.94        88.95634
955.33        87.20547
955.72        86.05743
956.11        85.69624
956.50        85.85725
956.89        86.52885
957.28        87.69984
957.66        89.28741
958.05        91.16026
958.44        92.73406
958.83        92.88359
959.22        91.44067
959.61        88.86715
960.00        86.09961
960.39         84.4771
960.78        84.30474
961.16        85.23734
961.55        86.83421
961.94        88.44444
962.33        89.73975
962.72        90.88419
963.11        91.68964
963.49        91.83344
963.88        91.24075
964.27        90.04771
964.66        88.62414
965.04        87.51878
965.43        86.85327
965.82         86.4861
966.21        86.40853
966.60        86.54365
966.98        86.85544
967.37        87.40072
967.76         87.9332
968.15        87.98524
968.53        87.50525
968.92         86.5748
969.31        85.71004
969.69        85.77883
970.08        86.87846
970.47        88.72537
970.86        90.69395
971.24        91.64194
971.63        91.12561
972.02        89.60747
972.40        87.52843
972.79        85.60446
973.17        84.15697
973.56        83.04882
973.95        82.39861
974.33        82.40959
974.72        82.98703
975.11        84.05067
975.49        85.43497
975.88        86.63852
976.26        87.47508
976.65        87.92339
977.04        87.73535
977.42        86.54184
977.81        84.45547
978.19        81.68449
978.58        79.31351
978.96        78.70194
979.35          80.079
979.74         83.1615
980.12        87.21832
980.51        90.01508
980.89        90.93115
981.28        90.30676
981.66        88.88867
982.05        88.05015
982.43        88.18707
982.82        88.80969
983.20        89.81447
983.59        90.85115
983.97        91.84755
984.35        92.89346
984.74        93.62045
985.12        93.52062
985.51        92.50661
985.89         90.6947
986.28        88.71381
986.66        87.43774
987.04        87.21264
987.43         87.7933
987.81         88.7304
988.20         89.0125
988.58        88.42374
988.96        87.11771
989.35        85.73122
989.73        85.24498
990.12        85.81139
990.50        87.18514
990.88        88.47979
991.27        88.29072
991.65         86.4603
992.03        83.53708
992.42        80.63813
992.80        79.20835
993.18        79.71045
993.56        81.62232
993.95        84.19343
994.33        86.44031
994.71        87.69222
995.10        88.23098
995.48        88.05157
995.86        87.14822
996.24        85.70883
996.63        83.76583
997.01         81.7565
997.39        80.35158
997.77        79.69716
998.15        79.70564
998.54        80.12991
998.92        80.48977
999.30        80.59597
999.68        80.58423
1000.06        80.54779
1000.45        80.60815
1000.83        80.94188
1001.21        81.35642
1001.59        81.77712
1001.97         82.1443
1002.35        82.38801
1002.73        82.48502
1003.12        82.43893
1003.50        82.19453
1003.88        81.81683
1004.26        81.43658
1004.64         80.9815
1005.02        80.31169
1005.40        79.45381
1005.78         78.4185
1006.16        77.67002
1006.54        78.01012
1006.92        79.54206
1007.30        81.97426
1007.69        84.36166
1008.07        85.41285
1008.45        84.72387
1008.83         82.7278
1009.21         80.2426
1009.59        78.66543
1009.97        78.47878
1010.35        79.33469
1010.73        80.91574
1011.11        82.62083
1011.49        84.21449
1011.86        86.10017
1012.24        87.98099
1012.62        89.79677
1013.00        91.47494
1013.38        92.78613
1013.76        93.91207
1014.14        95.39053
1014.52        97.26122
1014.90        99.32787
1015.28        100.7948
1015.66        100.3216
1016.04        97.90444
1016.41        94.35071
1016.79        90.84134
1017.17        88.06179
1017.55        85.81368
1017.93        83.56261
1018.31         81.0642
1018.69        78.57659
1019.06        76.79404
1019.44        76.17435
1019.82        76.01769
1020.20        75.33846
1020.58        73.99229
1020.95        71.98207
1021.33        70.15402
1021.71        70.63026
1022.09        74.23983
1022.46         79.9622
1022.84        85.91485
1023.22        89.93879
1023.60        91.46139
1023.97        91.18839
1024.35         89.0174
1024.73        85.07272
