SpectraSmart Spectrum 2.9.0.0
--------- Device Information -----------
Spectrum Name :  反射率_0
Saving Time :  2024/05/01 16:52:49
Spectro-Module Model Name : SE2030-DUVN
Spectro-Module Serial Number : OS361AC55029948
Wavelength Start : 200
Wavelength End : 1025
Wavelength Unit : Wavelength(nm)
Spectrum Unit : Reflectance(%)
-----------Spectrum Setting ------------
Integration Time : 20ms
Average : 10
Boxcar : 0
Background removal :  enabled
linearity correction :  enabled
SC :  disabled
Intensity correction :  disabled
DWT denoise :  enabled
savitzky-golay :  disabled
FFT :  disabled
Running average :  disabled
Kalman :  disabled
High pass :  disabled
---------------BEGIN--------------------
Wavelength(nm)             Reflectance(%)
200.29               0
200.75        286.1817
201.21        1131.649
201.67        -450.068
202.13       -163.0742
202.58       -76.68317
203.04       -28.94194
203.50      -0.9632071
203.96        10.68543
204.42        9.112462
204.88       -16.87211
205.34       -790.6174
205.80        151.0119
206.26        107.1105
206.72        97.30216
207.18        116.8132
207.64        37.30366
208.10        60.27036
208.55        64.80798
209.01        64.38304
209.47        60.26222
209.93        52.90104
210.39        41.46695
210.85        27.01571
211.31        7.600365
211.77       -44.75682
212.23        332.0815
212.69        107.8814
213.14        114.6318
213.60        213.8191
214.06       -945.2055
214.52       -145.3396
214.98       -92.67496
215.44       -80.60863
215.90        -88.4476
216.36       -313.0895
216.81        22.34121
217.27        -2.70712
217.73       -51.78718
218.19       -37.86197
218.65       -46.72227
219.11       -68.89748
219.57       -139.9948
220.02       -420.5874
220.48       -210.3703
220.94       -62.16817
221.40       -23.91729
221.86       -10.02474
222.32       -3.958732
222.77      -0.1698776
223.23        3.130737
223.69        7.700785
224.15         13.9776
224.61        19.22573
225.06        22.21704
225.52        23.96789
225.98        25.65694
226.44        27.87507
226.90        30.69976
227.36        34.15624
227.81        36.67614
228.27        37.09955
228.73        36.49892
229.19          35.612
229.65        34.77042
230.10        33.98663
230.56        33.19352
231.02        32.88853
231.48        34.29087
231.93        37.18056
232.39        40.61628
232.85        43.41576
233.31        44.69219
233.77        44.69597
234.22        43.98375
234.68        43.05513
235.14        42.55803
235.60        42.65064
236.05        43.23075
236.51        44.32227
236.97        45.73957
237.43        46.93113
237.88        47.68182
238.34        47.51754
238.80        46.42322
239.26        44.14979
239.71        40.22314
240.17        32.99242
240.63        21.81641
241.08        10.64334
241.54        3.661272
242.00        2.204663
242.46        5.482423
242.91        14.03673
243.37        30.70397
243.83        61.04187
244.28        92.82996
244.74        99.83537
245.20        90.66312
245.66        79.19258
246.11        70.72594
246.57        63.70231
247.03         53.9994
247.48        37.89283
247.94        15.72266
248.40       -4.391362
248.85       -16.41645
249.31       -16.15693
249.77       -7.073295
250.22        4.610174
250.68        15.48485
251.14        23.67442
251.59        28.71522
252.05        31.85083
252.51        34.33353
252.96        36.12925
253.42        38.09182
253.88        38.08698
254.33        37.03757
254.79        38.04528
255.25        41.07285
255.70        44.82706
256.16          48.725
256.62        52.13393
257.07        54.43359
257.53        56.10303
257.99        57.27409
258.44        57.96449
258.90        58.61571
259.35        58.95537
259.81        59.20444
260.27        59.17899
260.72        58.71265
261.18        58.13049
261.63        57.31853
262.09        56.52933
262.55        55.63313
263.00        54.57232
263.46        53.50735
263.91        52.47034
264.37        51.81776
264.83        51.46865
265.28        51.31846
265.74        51.15652
266.19        50.42461
266.65        49.20802
267.11        47.61411
267.56         46.1053
268.02        45.49855
268.47        45.86473
268.93        46.88605
269.38        47.98147
269.84        48.16242
270.30        47.22229
270.75        45.49385
271.21        43.47526
271.66        41.78515
272.12        40.68624
272.57        39.92783
273.03        39.45191
273.48        39.11153
273.94        38.84882
274.39        38.67603
274.85        38.51934
275.31        38.17646
275.76        37.60862
276.22        36.91833
276.67        36.15056
277.13        35.50436
277.58        34.95868
278.04        34.51271
278.49        34.10641
278.95        33.77698
279.40        33.45765
279.86        33.18165
280.31        32.87127
280.77         32.5217
281.22        32.07763
281.68        31.61881
282.13        31.09283
282.59        30.52526
283.04        29.90714
283.50        29.29879
283.95          28.769
284.41        28.48711
284.86          28.449
285.32        28.59741
285.77        28.82187
286.22        29.00835
286.68        29.12025
287.13        29.17335
287.59         29.1453
288.04        28.96213
288.50        28.66599
288.95        28.24126
289.41        27.85773
289.86        27.67682
290.32        27.74493
290.77        27.99985
291.22        28.29144
291.68        28.37194
292.13        28.20173
292.59        27.90383
293.04        27.63529
293.50        27.69378
293.95         28.1234
294.40        28.82596
294.86        29.66798
295.31        30.45088
295.77        31.09355
296.22        31.63961
296.68        32.10505
297.13         32.4975
297.58        32.85397
298.04         33.1909
298.49        33.53434
298.95        33.97328
299.40        34.50332
299.85        35.09492
300.31        35.75399
300.76          36.476
301.21        37.24442
301.67        38.05952
302.12         38.7872
302.58        39.25129
303.03         39.4076
303.48        39.34442
303.94         39.2705
304.39        39.41742
304.84        39.86322
305.30        40.52472
305.75        41.25147
306.20        41.83054
306.66        42.20317
307.11        42.40246
307.57        42.52015
308.02        42.62768
308.47        42.76689
308.93         42.9136
309.38        43.00063
309.83        42.98904
310.29        42.88781
310.74        42.72557
311.19        42.56696
311.65        42.48818
312.10        42.50164
312.55        42.58573
313.00         42.7198
313.46        42.87059
313.91          43.007
314.36        43.12317
314.82        43.18674
315.27        43.16377
315.72        43.03881
316.18        42.83079
316.63        42.54362
317.08        42.20217
317.53        41.82596
317.99        41.42676
318.44        41.03646
318.89        40.71508
319.35        40.48194
319.80        40.32513
320.25        40.22337
320.70        40.13167
321.16        40.02374
321.61         39.9177
322.06        39.79536
322.51        39.63754
322.97        39.43329
323.42        39.19143
323.87        38.93559
324.32         38.7254
324.78        38.56601
325.23        38.45411
325.68        38.33519
326.13        38.12714
326.59        37.80319
327.04        37.40963
327.49        36.98634
327.94         36.6133
328.39        36.32056
328.85        36.07857
329.30         35.8933
329.75        35.72615
330.20         35.5634
330.66        35.40686
331.11        35.27088
331.56        35.13326
332.01        34.99327
332.46         34.8544
332.92        34.70781
333.37        34.58466
333.82        34.47987
334.27        34.38945
334.72        34.33167
335.17        34.34031
335.63        34.39969
336.08        34.50366
336.53        34.59521
336.98        34.60237
337.43        34.50562
337.88        34.33328
338.34        34.08575
338.79        33.79248
339.24        33.47505
339.69        33.14083
340.14        32.86821
340.59        32.77542
341.05        32.86665
341.50        33.10549
341.95        33.38056
342.40        33.50818
342.85        33.43947
343.30         33.2348
343.75        32.95935
344.20        32.71733
344.66        32.55426
345.11        32.43574
345.56        32.38631
346.01        32.44235
346.46         32.5921
346.91        32.81398
347.36        33.04078
347.81        33.16717
348.26        33.16766
348.72        33.07983
349.17         32.9087
349.62        32.70988
350.07         32.5062
350.52        32.27966
350.97        32.06642
351.42        31.92271
351.87        31.86005
352.32        31.88121
352.77        31.90652
353.22        31.80746
353.67        31.56504
354.13        31.22117
354.58         30.8795
355.03        30.74073
355.48        30.83844
355.93        31.11941
356.38        31.42131
356.83        31.47285
357.28        31.22073
357.73        30.76169
358.18        30.29146
358.63        30.09933
359.08        30.23666
359.53        30.59675
359.98        31.01721
360.43        31.22645
360.88         31.1411
361.33        30.85557
361.78        30.46405
362.23        30.10004
362.68        29.81115
363.13        29.55475
363.58        29.33162
364.03        29.15276
364.48        29.01196
364.93        28.91119
365.38        28.82421
365.83        28.69832
366.28        28.51862
366.73        28.29914
367.18        28.04318
367.63        27.76431
368.08        27.48304
368.53         27.2066
368.98        26.96861
369.43        26.81484
369.88        26.74571
370.33        26.74064
370.78        26.76611
371.23        26.76162
371.68         26.7028
372.13        26.60537
372.58        26.46598
373.03        26.28049
373.48        26.05644
373.93        25.79523
374.38        25.53848
374.83        25.36009
375.28        25.27586
375.72         25.2614
376.17        25.27285
376.62        25.22968
377.07        25.11171
377.52        24.94483
377.97        24.75151
378.42        24.56878
378.87        24.41203
379.32        24.26892
379.77        24.14595
380.22        24.05322
380.67        23.98942
381.11        23.95846
381.56        23.93484
382.01        23.88197
382.46        23.79197
382.91        23.67077
383.36        23.54613
383.81        23.46366
384.26        23.42795
384.71        23.42087
385.15         23.3994
385.60        23.31767
386.05        23.16168
386.50        22.95772
386.95        22.74193
387.40        22.56932
387.85        22.45722
388.29        22.37171
388.74        22.33263
389.19        22.30017
389.64        22.26174
390.09         22.2177
390.54        22.16662
390.98        22.10334
391.43        22.03617
391.88        21.96792
392.33        21.88967
392.78        21.79879
393.23        21.70159
393.67         21.5701
394.12        21.45556
394.57        21.45275
395.02        21.53524
395.47        21.53853
395.91        21.47605
396.36         21.4894
396.81        21.58438
397.26        21.67739
397.71        21.72345
398.15        21.70864
398.60        21.65519
399.05        21.48466
399.50         21.2771
399.95        21.30051
400.39        21.50118
400.84        21.47402
401.29        21.21681
401.74        21.06907
402.18        21.04681
402.63        20.93897
403.08        20.77859
403.53        20.71243
403.97        20.74516
404.42        20.83227
404.87        20.91848
405.32        20.91844
405.76        20.81022
406.21        20.63412
406.66        20.43669
407.11        20.29081
407.55        20.22518
408.00        20.22119
408.45        20.25875
408.90        20.27204
409.34        20.25348
409.79         20.2646
410.24        20.30369
410.68        20.32119
411.13         20.3177
411.58        20.31576
412.03        20.30274
412.47        20.25051
412.92        20.15676
413.37        20.04094
413.81         19.9307
414.26        19.88141
414.71        19.89656
415.15        19.96845
415.60        20.05865
416.05        20.12206
416.49        20.13965
416.94        20.11657
417.39        20.07241
417.83        20.03978
418.28        20.02679
418.73        20.02253
419.17         20.0034
419.62        19.92744
420.07        19.79812
420.51        19.63583
420.96         19.4954
421.41        19.43049
421.85         19.4447
422.30        19.52369
422.74        19.63469
423.19        19.74917
423.64        19.84777
424.08        19.94699
424.53        20.00928
424.98        20.00273
425.42        19.92977
425.87         19.8039
426.31        19.67157
426.76        19.61798
427.21         19.6545
427.65        19.75222
428.10        19.88986
428.54        20.02743
428.99        20.15206
429.44        20.29093
429.88        20.37569
430.33        20.34524
430.77        20.18835
431.22        19.89429
431.66        19.58801
432.11        19.57069
432.56        19.81513
433.00        20.09179
433.45        20.21087
433.89        20.00252
434.34        19.41582
434.78        19.34144
435.23        19.90134
435.67        20.11258
436.12        19.99928
436.57        20.06646
437.01        20.30538
437.46        20.40177
437.90        20.32814
438.35         20.2073
438.79        20.07002
439.24        19.91213
439.68        19.78967
440.13        19.83947
440.57        20.00155
441.02        20.09483
441.46        20.09718
441.91        19.97609
442.35        19.79729
442.80        19.99775
443.24        20.42493
443.69        20.27916
444.13        19.67304
444.58        19.46799
445.02        19.68694
445.47        19.87647
445.91        19.97732
446.36        20.10526
446.80        20.23444
447.24        20.33521
447.69        20.39526
448.13        20.39539
448.58        20.34134
449.02         20.2386
449.47        20.13342
449.91         20.0831
450.36        20.10645
450.80        20.18307
451.25        20.27398
451.69        20.30128
452.13        20.24861
452.58        20.14058
453.02        20.00917
453.47        19.91825
453.91         19.8817
454.36        19.88878
454.80          19.906
455.24        19.87924
455.69        19.80497
456.13        19.69347
456.58        19.60346
457.02        19.59481
457.46         19.6804
457.91         19.8332
458.35         19.9904
458.79        20.02476
459.24        19.92426
459.68         19.7835
460.13        19.69232
460.57         19.3906
461.01        19.46286
461.46        19.45497
461.90        19.51607
462.34        19.53225
462.79        19.59764
463.23        19.63386
463.68         19.6694
464.12        19.70043
464.56        19.72732
465.01        19.77607
465.45        19.80343
465.89        19.78222
466.34        19.71804
466.78        19.61352
467.22        19.51417
467.67        19.53296
468.11        19.60485
468.55        19.77292
468.99        19.95847
469.44        20.07776
469.88        20.11209
470.32        20.08001
470.77        20.01639
471.21        19.97866
471.65        19.98387
472.10        20.01747
472.54        20.05488
472.98        20.06967
473.42        20.05799
473.87        20.04322
474.31        20.02825
474.75        20.03587
475.20        20.07556
475.64        20.12298
476.08        20.17209
476.52         20.2661
476.97        20.41019
477.41        20.49577
477.85        20.46463
478.29        20.80383
478.74        20.61432
479.18        20.59253
479.62        20.51494
480.06        20.57492
480.50        20.79201
480.95        20.73225
481.39        21.05851
481.83        21.11572
482.27        21.11403
482.72        21.08546
483.16        21.05747
483.60        21.09112
484.04        21.17518
484.48        21.22872
484.93        21.38808
485.37        21.70953
485.81         22.0209
486.25         22.6736
486.69        21.86382
487.14        21.32798
487.58        21.92014
488.02        22.15397
488.46        22.31158
488.90        22.43839
489.34         22.5507
489.79        22.34894
490.23        22.79779
490.67        23.03419
491.11        23.29835
491.55        23.44713
491.99        23.49584
492.43        23.60239
492.88        23.76133
493.32        23.85162
493.76        23.88599
494.20           23.98
494.64        24.15315
495.08        24.34721
495.52        24.53748
495.96        24.77281
496.41        25.01784
496.85        25.06671
497.29        24.98648
497.73        25.19546
498.17        25.64096
498.61        25.78077
499.05        25.63911
499.49         25.6942
499.93         25.9622
500.37        26.17667
500.82        26.31647
501.26        26.46549
501.70         26.6181
502.14        26.75512
502.58        26.86544
503.02        26.93262
503.46        26.96143
503.90        26.96428
504.34        26.98265
504.78        27.07971
505.22        27.26613
505.66        27.52052
506.10        27.78956
506.54         27.9833
506.98        28.07489
507.42        28.08903
507.86        28.06123
508.30        28.04876
508.74        28.07263
509.18        28.11952
509.62        28.18048
510.06        28.24081
510.50        28.29602
510.94        28.35408
511.38        28.42179
511.82         28.5066
512.26        28.60442
512.70        28.70289
513.14        28.78646
513.58        28.83409
514.02        28.84163
514.46        28.82037
514.90        28.77472
515.34        28.71227
515.78        28.64366
516.22         28.5717
516.66        28.52136
517.10        28.52967
517.54        28.59881
517.98         28.7143
518.42         28.8397
518.86        28.91264
519.30        28.91667
519.74        28.87142
520.18        28.79647
520.62        28.72638
521.06        28.67273
521.50        28.61906
521.93        28.57833
522.37        28.56615
522.81        28.58334
523.25        28.63117
523.69         28.6651
524.13        28.61175
524.57        28.46552
525.01        28.25304
525.45        28.04616
525.89        27.95869
526.32        28.01144
526.76        28.16259
527.20        28.34407
527.64        28.44459
528.08        28.43242
528.52        28.34638
528.96        28.21833
529.40        28.09859
529.83        28.00386
530.27        27.92089
530.71        27.85967
531.15        27.84599
531.59        27.87728
532.03        27.94697
532.46        28.00903
532.90        27.99295
533.34        27.88839
533.78        27.69985
534.22        27.48077
534.66        27.35966
535.09        27.33133
535.53        27.27756
535.97        27.19478
536.41        27.17491
536.85        27.21509
537.28        27.25921
537.72        27.30293
538.16        27.36542
538.60        27.44061
539.04        27.51649
539.47        27.58196
539.91        27.63942
540.35        27.68357
540.79        27.73113
541.22        27.78737
541.66        27.81938
542.10        27.90197
542.54        27.97553
542.97        28.06975
543.41        28.21247
543.85        28.39872
544.29        28.62238
544.72        28.84685
545.16        29.03031
545.60        29.16002
546.04         29.2455
546.47         29.3267
546.91        29.47421
547.35        29.70132
547.79        29.97635
548.22         30.2317
548.66        30.43221
549.10        30.56708
549.53        30.51427
549.97        30.60111
550.41        30.72497
550.84         30.9823
551.28        31.33844
551.72        31.71832
552.15        31.96791
552.59        32.07336
553.03        32.12629
553.46        32.15914
553.90        32.23948
554.34        32.38912
554.77        32.53188
555.21         32.6346
555.65        33.00211
556.08        32.99897
556.52        33.15042
556.96        33.26013
557.39        33.34338
557.83        33.41211
558.27        33.43026
558.70        33.42133
559.14        33.56551
559.57        33.58092
560.01        33.79884
560.45        34.04769
560.88        34.11909
561.32         34.0677
561.75        33.99232
562.19         33.9782
562.63        34.23698
563.06        34.64608
563.50        34.59703
563.93        34.18321
564.37        34.12229
564.80        34.42971
565.24        34.72661
565.68         34.9373
566.11        35.12751
566.55        35.29083
566.98        35.36752
567.42         35.4203
567.85        35.58305
568.29        35.85778
568.72         36.0257
569.16        36.22289
569.60        36.34392
570.03        36.38181
570.47        36.52361
570.90        36.73691
571.34        36.45897
571.77        36.70998
572.21        36.94138
572.64        37.13869
573.08         37.1058
573.51         37.5067
573.95        37.86319
574.38        37.56187
574.82        37.87757
575.25        38.22465
575.69        38.20229
576.12        37.79765
576.56        37.83973
576.99        38.20989
577.42        38.30597
577.86        38.14906
578.29        38.28061
578.73        38.53008
579.16        37.82781
579.60        37.65353
580.03        37.40729
580.47        37.74528
580.90        37.20727
581.33        37.85175
581.77        38.07627
582.20        37.90255
582.64        37.54435
583.07        37.22933
583.51         36.8823
583.94        36.78192
584.37        36.84867
584.81        37.01771
585.24        36.98533
585.68        36.78397
586.11         36.5574
586.54        36.56376
586.98        36.29901
587.41        36.26107
587.85        36.44097
588.28        36.38982
588.71        35.73281
589.15        36.35131
589.58        35.62365
590.01         35.8255
590.45        35.83896
590.88        36.12646
591.31        36.14149
591.75        35.88447
592.18        35.86529
592.61        36.06074
593.05        36.06124
593.48        36.04394
593.91        36.07504
594.35        36.17053
594.78        36.31711
595.21        36.49547
595.65        36.60653
596.08        36.63111
596.51        37.00471
596.94        36.94544
597.38         37.2006
597.81        37.60591
598.24        37.25088
598.68        37.90053
599.11        37.90704
599.54        38.92627
599.97        38.84954
600.41        38.87636
600.84        39.47803
601.27        39.69473
601.70        40.40947
602.14        40.88631
602.57        41.16872
603.00        41.22852
603.43         41.3259
603.87        41.76727
604.30        42.33507
604.73        42.34948
605.16        42.64138
605.60        42.98179
606.03        43.54175
606.46        44.12983
606.89        44.36773
607.32        44.42921
607.76        44.60932
608.19        44.96102
608.62        45.61871
609.05        45.95642
609.48        46.16405
609.92        46.20336
610.35         46.2472
610.78        47.12609
611.21        47.47121
611.64        47.53136
612.07        47.79213
612.50        48.11967
612.94        48.31092
613.37        48.35563
613.80        48.48556
614.23        48.66996
614.66        49.08142
615.09        48.97965
615.52         49.3234
615.96        49.80845
616.39        50.13336
616.82        50.29883
617.25        50.28624
617.68        50.62081
618.11        50.71916
618.54        50.74197
618.97         50.7693
619.40        50.86337
619.84        50.95872
620.27         51.0377
620.70         51.4009
621.13        51.99973
621.56        51.58497
621.99        51.22011
622.42         51.6336
622.85        51.58206
623.28        51.63539
623.71        51.71109
624.14        52.01748
624.57        52.08918
625.00        52.20008
625.43        52.19399
625.86        52.07148
626.29        51.83072
626.72        51.71352
627.15        51.47921
627.58         51.2359
628.01        50.95527
628.44        50.94768
628.87        51.11621
629.30        50.93303
629.73        50.44861
630.16         50.2633
630.59        50.21288
631.02        50.15404
631.45        49.98431
631.88        49.76427
632.31        49.48201
632.74        49.12498
633.17        48.74268
633.60         48.4101
634.03        48.14377
634.46        47.92513
634.89        47.70948
635.32        47.41992
635.75        47.04134
636.18        46.60671
636.61         46.1527
637.04        45.73396
637.47        45.37191
637.89        45.04114
638.32        44.71962
638.75        44.44518
639.18        44.22388
639.61        43.87256
640.04         43.7138
640.47         43.4646
640.90        43.21989
641.33        42.96714
641.76        42.71521
642.18        42.54109
642.61        42.45461
643.04        42.34777
643.47        42.16877
643.90        42.42892
644.33        42.20587
644.76        42.18174
645.18        42.12926
645.61        42.28037
646.04        42.57262
646.47        42.65505
646.90         42.5645
647.33        42.64991
647.75        42.92646
648.18        43.18484
648.61        43.41118
649.04        43.65332
649.47        43.90484
649.89        44.23758
650.32        44.60697
650.75        44.79007
651.18        44.85344
651.61        45.20028
652.03        45.84946
652.46        46.32034
652.89        46.56533
653.32        47.00414
653.74        47.78391
654.17        47.69059
654.60        48.47347
655.03        49.02472
655.46        48.56737
655.88        49.12181
656.31        55.35865
656.74        54.27262
657.16        49.77945
657.59        49.35939
658.02        50.87457
658.45        51.31149
658.87        51.65988
659.30        51.34439
659.73        51.50012
660.15        52.43623
660.58        52.46507
661.01        52.64437
661.44        52.52051
661.86        52.80351
662.29        53.42819
662.72        53.65318
663.14        53.54152
663.57        53.74729
664.00        54.24212
664.42        54.48604
664.85        54.47057
665.27        54.45554
665.70        54.50344
666.13        54.60207
666.55        54.77886
666.98        55.02909
667.41        55.31084
667.83         55.5535
668.26        55.71485
668.69        55.80745
669.11        55.87072
669.54        55.96787
669.96        56.09951
670.39        56.28865
670.82        56.48875
671.24        56.43756
671.67        56.23729
672.09         56.3867
672.52        56.83358
672.94        57.02845
673.37           56.95
673.80        56.90095
674.22         56.9304
674.65        56.94932
675.07        56.98706
675.50        57.05966
675.92        57.16483
676.35        57.28602
676.77        57.41389
677.20         57.5537
677.62        57.71779
678.05        57.85548
678.47        57.94624
678.90        58.23565
679.32        58.26453
679.75        58.33256
680.17        58.30764
680.60        58.23071
681.02        58.15627
681.45        58.13687
681.87        58.22159
682.30        58.44365
682.72        58.74189
683.15        58.91762
683.57        58.94324
684.00        58.89403
684.42        58.82911
684.85        58.83458
685.27        58.92028
685.70        59.06238
686.12        59.20942
686.54        59.28369
686.97        59.26288
687.39        59.25731
687.82        59.26805
688.24        59.15355
688.66        59.00164
689.09        59.17363
689.51         59.6356
689.94        59.93629
690.36        60.04077
690.78        60.22037
691.21        60.48299
691.63         60.6245
692.06        60.69763
692.48        60.99307
692.90        61.42592
693.33           61.61
693.75        61.51827
694.17        61.29558
694.60        61.05523
695.02        60.95652
695.44        60.98554
695.87        60.99794
696.29        60.98049
696.71         60.8336
697.14        60.69077
697.56         61.0478
697.98        61.77105
698.41        62.16353
698.83        62.16325
699.25        62.14587
699.68         62.1567
700.10        62.17084
700.52         62.2095
700.94        62.23179
701.37        62.25574
701.79        62.42911
702.21         62.6827
702.64        62.83846
703.06        62.87187
703.48         62.8058
703.90        62.62868
704.33        62.72121
704.75        62.35698
705.17        62.33876
705.59        62.45985
706.01        62.68028
706.44        62.96614
706.86        63.27284
707.28        63.55227
707.70        63.87117
708.12        64.16092
708.55        64.15037
708.97        63.90291
709.39        63.81467
709.81        63.91023
710.23        63.91305
710.66        63.82968
711.08        63.86727
711.50         64.0033
711.92        64.10964
712.34        64.17228
712.76        64.23051
713.19        64.26836
713.61         64.3042
714.03        64.32292
714.45        64.31564
714.87          64.313
715.29        64.36697
715.71        64.48447
716.13        64.65774
716.56        64.82363
716.98        64.92749
717.40         64.9176
717.82        64.86452
718.24        64.84826
718.66        64.72565
719.08        64.95119
719.50        65.13892
719.92        65.33631
720.34        65.39961
720.76        65.30389
721.19        65.09547
721.61        64.85472
722.03        64.71024
722.45        64.70714
722.87        64.82034
723.29        65.00755
723.71        65.19737
724.13        65.35502
724.55        65.47894
724.97        65.60536
725.39        65.78796
725.81        66.02513
726.23        66.31101
726.65        66.53098
727.07        66.47171
727.49        66.13663
727.91        65.67909
728.33        65.27026
728.75        65.10747
729.17        65.25078
729.59        65.65253
730.01         66.1538
730.43        66.48773
730.85        66.57819
731.27        66.38126
731.69        66.22813
732.10        66.06379
732.52        66.01415
732.94        66.00281
733.36         66.0442
733.78        66.21597
734.20        66.39048
734.62        66.70871
735.04        67.04923
735.46        67.12546
735.88        66.97417
736.30        66.95513
736.72        67.07323
737.13        67.06406
737.55        66.90802
737.97        66.79823
738.39        66.77528
738.81        66.82312
739.23        66.93845
739.65        67.10271
740.06        67.23685
740.48        67.34714
740.90        67.39666
741.32        67.39443
741.74        67.34632
742.16        67.28582
742.57        67.23063
742.99        67.15936
743.41        67.13585
743.83         67.2388
744.25        67.47474
744.67        67.83993
745.08        68.21776
745.50        68.31873
745.92        68.10809
746.34        67.67797
746.75        67.18561
747.17        66.88079
747.59           66.81
748.01         66.9812
748.42        67.29633
748.84        67.38043
749.26        67.26695
749.68        67.39391
750.09        67.72353
750.51        67.88216
750.93        67.85392
751.35         67.8455
751.76        67.88953
752.18        67.93878
752.60        68.00677
753.01        68.12541
753.43        68.25703
753.85        68.37468
754.27        68.47503
754.68        68.57578
755.10        68.68611
755.52        68.80832
755.93        68.92488
756.35         69.0237
756.77         69.1179
757.18        69.12627
757.60        69.05867
758.02         69.1802
758.43        69.30448
758.85        68.82676
759.26        68.07902
759.68         67.7009
760.10        68.64206
760.51        69.56285
760.93        68.85676
761.34        68.92592
761.76        69.43386
762.18        69.14068
762.59        68.36978
763.01        68.53344
763.42        69.55267
763.84        69.91857
764.26        69.56078
764.67        69.08883
765.09        68.70094
765.50        68.94324
765.92        69.00144
766.33        69.03429
766.75        68.76688
767.16        68.77122
767.58        69.00198
768.00        69.15482
768.41        69.37472
768.83        69.48457
769.24        70.55288
769.66         70.9505
770.07        70.95083
770.49        70.62052
770.90        70.16241
771.32        70.17339
771.73        70.53192
772.15        70.54996
772.56        70.20746
772.97        69.96194
773.39        69.90308
773.80        70.06186
774.22        70.37756
774.63        70.70774
775.05        70.93597
775.46        71.12177
775.88        71.20291
776.29         71.1233
776.70        70.92958
777.12        70.79026
777.53         70.7586
777.95        70.76212
778.36        70.79242
778.77        70.77618
779.19         70.6931
779.60        70.68121
780.02        70.71405
780.43         70.5063
780.84        70.18675
781.26         70.2757
781.67        70.71049
782.09        70.97057
782.50         70.9581
782.91        70.73763
783.33        70.44849
783.74        70.45702
784.15        70.81598
784.57        71.26791
784.98        71.75578
785.39        72.24223
785.81        72.66985
786.22        72.81698
786.63         73.0601
787.04        73.00171
787.46        72.81064
787.87        72.45621
788.28        72.11918
788.70        72.04289
789.11          72.243
789.52        72.69093
789.93         73.1844
790.35        73.35449
790.76        73.14767
791.17        72.68851
791.58        72.18716
792.00        71.91925
792.41        71.97741
792.82        72.30724
793.23        72.72424
793.65        72.89722
794.06        72.76699
794.47        72.44451
794.88        72.12555
795.29        72.04793
795.71        72.19006
796.12        72.62849
796.53        73.17475
796.94        73.31786
797.35        73.00533
797.76        72.71724
798.18        72.58685
798.59        72.46291
799.00        72.40034
799.41        72.52218
799.82        72.78546
800.23         73.0247
800.64        73.19448
801.06        73.32596
801.47        73.41661
801.88        73.35928
802.29        73.14903
802.70        72.79935
803.11        72.43649
803.52        72.27325
803.93        72.37733
804.34        72.70605
804.75        73.12529
805.17        73.48723
805.58        73.77618
805.99        73.66509
806.40        73.31178
806.81        73.75899
807.22        74.69305
807.63        74.28751
808.04        72.75123
808.45         72.0422
808.86        72.31892
809.27        72.48821
809.68        72.47567
810.09        72.66399
810.50        73.01722
810.91        73.43879
811.32        73.80153
811.73        73.89459
812.14        73.68293
812.55        73.23141
812.96        72.75566
813.37        72.62737
813.78        72.93818
814.19        73.56931
814.60        74.30106
815.01        74.79501
815.42        74.95631
815.83        74.87543
816.24        74.64284
816.65        74.43604
817.05        74.33569
817.46        74.25934
817.87        74.20393
818.28        74.12504
818.69        74.00695
819.10        73.87971
819.51        73.76913
819.92        73.70495
820.33        73.69707
820.74        73.73179
821.14        73.76805
821.55        73.77602
821.96        73.73932
822.37        73.68708
822.78        73.65855
823.19        73.71967
823.60        73.89317
824.00        74.17178
824.41        74.49792
824.82        74.89168
825.23        75.31793
825.64        75.74011
826.04        76.10704
826.45        76.25734
826.86         76.1881
827.27        75.95308
827.68        75.57616
828.08        75.12409
828.49        74.61565
828.90        74.06226
829.31        73.61413
829.72        73.49186
830.12         73.7637
830.53        74.35204
830.94        75.00835
831.35         75.2247
831.75        74.89836
832.16        74.13266
832.57        73.34421
832.97        73.16752
833.38        73.71102
833.79        74.75729
834.20        75.93513
834.60        76.60748
835.01        76.55659
835.42        76.02837
835.82        75.24836
836.23        74.55773
836.64        74.09444
837.04        73.75704
837.45        73.58069
837.86        73.70042
838.26        74.11282
838.67        74.75921
839.08        75.41599
839.48        75.66542
839.89        75.40461
840.29        74.75826
840.70        73.97829
841.11         73.4406
841.51        73.27637
841.92        73.35814
842.33        73.62229
842.73        73.96464
843.14        74.27706
843.54        74.64967
843.95         74.9971
844.35        75.24851
844.76        75.34793
845.17        75.28175
845.57        75.13898
845.98          75.069
846.38        75.12743
846.79        75.27296
847.19        75.40192
847.60        75.24575
848.00        74.79567
848.41        74.13224
848.81        73.50548
849.22        73.27171
849.62        73.51434
850.03        74.08999
850.43        74.77949
850.84        75.04707
851.24         74.8222
851.65        74.24001
852.05        73.58137
852.46        73.27241
852.86        73.41589
853.27        73.84694
853.67        74.41805
854.07        75.13658
854.48        75.89578
854.88        76.82697
855.29        77.55971
855.69        77.65828
856.10        76.89557
856.50        75.50414
856.90        73.99188
857.31        73.10814
857.71        73.00914
858.12        73.46049
858.52        74.20473
858.92        74.51909
859.33        74.16792
859.73        73.43614
860.13        72.54137
860.54        71.84057
860.94        71.46082
861.34        71.26514
861.75        71.24564
862.15        71.46022
862.55        71.85597
862.96        72.40794
863.36        72.98154
863.76        73.25816
864.17        73.16718
864.57        72.80165
864.97         72.3224
865.38        72.01933
865.78        72.00838
866.18        72.18617
866.58        72.46414
866.99        72.67538
867.39        72.79014
867.79        72.86424
868.19        72.87347
868.60        72.74622
869.00          72.481
869.40        72.07761
869.80        71.71158
870.21        71.71004
870.61        72.18403
871.01        72.97001
871.41        73.72433
871.81        73.92819
872.22        73.47697
872.62         72.5391
873.02        71.43934
873.42        70.71642
873.82        70.54951
874.22        70.81342
874.63        71.29642
875.03        71.64738
875.43        71.77173
875.83          71.778
876.23        71.83678
876.63        72.21288
877.03        72.93197
877.44        73.82559
877.84        74.68752
878.24        75.14025
878.64        75.08034
879.04        74.64784
879.44        73.99535
879.84        73.35016
880.24        72.80834
880.64         72.3231
881.04        71.95695
881.44        71.79111
881.84        71.84398
882.24        72.14664
882.65        72.53663
883.05        72.81224
883.45        72.85606
883.85        72.68703
884.25        72.53383
884.65        72.75824
885.05        73.41393
885.45        74.40206
885.85         75.3624
886.25        75.68584
886.65         75.2249
887.05        74.15164
887.45        72.96479
887.85        72.43964
888.25         72.7566
888.65        73.71253
889.04        74.78278
889.44        75.09028
889.84        74.45592
890.24        73.15618
890.64        71.78854
891.04        71.21016
891.44        71.59328
891.84        72.70151
892.24        73.93385
892.64        74.27961
893.04        73.51511
893.44        71.98224
893.83        70.42563
894.23        69.96198
894.63        70.78769
895.03        72.55853
895.43        74.55165
895.83        75.45805
896.23        74.92534
896.63        73.45077
897.02        71.70029
897.42        70.71375
897.82        70.66374
898.22        71.26382
898.62        72.20357
899.01        72.99265
899.41         73.3844
899.81        73.56409
900.21        73.70266
900.61        74.06605
901.00        74.69982
901.40        75.42451
901.80        76.03102
902.20        76.23463
902.59        75.99929
902.99         75.4741
903.39        74.83555
903.79         74.3544
904.18        74.11408
904.58        74.03571
904.98        74.13428
905.38          74.446
905.77        74.91766
906.17        75.55865
906.57        76.09394
906.96        76.08205
907.36         75.4428
907.76        74.33218
908.15        73.17587
908.55        72.62898
908.95        72.87419
909.34        73.72392
909.74        74.80435
910.14        75.56487
910.53         75.8093
910.93        75.70042
911.33        75.37844
911.72        75.06429
912.12         74.8616
912.52        74.67004
912.91        74.46938
913.31        74.24487
913.70        74.00785
914.10        73.81298
914.49        73.67929
914.89        73.58746
915.29        73.54177
915.68        73.53345
916.08        73.58599
916.47        73.76364
916.87        74.05168
917.26        74.41137
917.66        74.74403
918.05         74.9012
918.45        74.85129
918.84        74.68327
919.24        74.46531
919.64        74.40458
920.03        74.57662
920.42        74.88663
920.82        75.28581
921.21         75.7327
921.61        76.14634
922.00        76.52491
922.40        76.75309
922.79         76.7081
923.19         76.3616
923.58        75.80727
923.98        75.10484
924.37        74.25574
924.77        73.34802
925.16        72.39344
925.55        71.64928
925.95        71.51458
926.34        72.08784
926.74        73.19644
927.13         74.5619
927.52        75.63022
927.92        76.20686
928.31        76.41644
928.70        76.35892
929.10        76.25945
929.49        76.23084
929.89        76.19351
930.28        76.14187
930.67        76.03577
931.07        75.85774
931.46        75.63248
931.85        75.45866
932.24        75.47421
932.64        75.68871
933.03        76.10416
933.42         76.4376
933.82         76.2722
934.21        75.56306
934.60        74.43566
934.99        73.38239
935.39        73.12471
935.78        73.83935
936.17        75.35678
936.56        77.07136
936.96        77.84848
937.35        77.40397
937.74        76.03786
938.13        74.47948
938.53        73.71082
938.92         73.8886
939.31        74.76762
939.70        75.85261
940.09        76.25109
940.49        75.72822
940.88        74.62782
941.27        73.46424
941.66         72.9881
942.05        73.37493
942.44        74.37881
942.84        75.61833
943.23         76.4934
943.62        76.71553
944.01        76.50105
944.40        76.06232
944.79        75.73759
945.18        75.64671
945.57         75.6404
945.97        75.71381
946.36        75.97866
946.75        76.38609
947.14        76.95139
947.53        77.46514
947.92        77.52965
948.31        77.06844
948.70        76.21072
949.09        75.28357
949.48        74.78342
949.87        74.83939
950.26         75.3423
950.65        76.06099
951.04        76.57586
951.43        76.73638
951.82        76.62474
952.21        76.44251
952.60        76.51447
952.99        76.87395
953.38        77.37138
953.77        77.72303
954.16        77.45306
954.55        76.50587
954.94        75.17041
955.33        73.74628
955.72        72.66223
956.11        72.06182
956.50        71.77516
956.89        71.90116
957.28        72.59859
957.66        73.85317
958.05        75.51945
958.44        77.04121
958.83        77.33943
959.22        76.22193
959.61        74.10813
960.00        71.82845
960.39        70.58144
960.78         70.6274
961.16        71.62585
961.55        73.15672
961.94        74.60738
962.33         75.6805
962.72        76.55804
963.11        77.06734
963.49        76.91891
963.88        76.09109
964.27        74.72939
964.66        73.28507
965.04        72.40496
965.43        72.20451
965.82         72.5228
966.21        73.16541
966.60        73.71144
966.98        73.98985
967.37        74.09982
967.76        74.02197
968.15        73.70843
968.53        73.20194
968.92        72.47701
969.31        71.75285
969.69        71.40689
970.08        71.46875
970.47        71.85716
970.86        72.32809
971.24        72.43509
971.63        71.99182
972.02        71.19318
972.40        70.23962
972.79        69.45774
973.17        68.99732
973.56        68.81044
973.95        68.85099
974.33        69.06969
974.72        69.36868
975.11        69.67001
975.49        70.17932
975.88        71.19534
976.26        72.74618
976.65        74.64419
977.04        76.06578
977.42        75.70752
977.81        73.47318
978.19        69.86482
978.58        66.48431
978.96        65.47547
979.35        67.25217
979.74        71.28935
980.12        76.44883
980.51        79.72977
980.89        80.20377
981.28        78.51475
981.66        75.77142
982.05        73.91183
982.43        73.52856
982.82        73.98036
983.20        75.11106
983.59        76.51364
983.97        78.00802
984.35        79.68259
984.74        81.01371
985.12        81.22881
985.51        80.18322
985.89        78.06858
986.28        75.59153
986.66        73.76962
987.04        73.05461
987.43        73.21164
987.81         73.9379
988.20        74.49189
988.58        74.65173
988.96         74.4286
989.35        74.23186
989.73        74.66373
990.12        75.75295
990.50        77.38755
990.88          78.572
991.27        77.76232
991.65        74.88667
992.03        70.54925
992.42        66.43172
992.80        64.85165
993.18        66.40913
993.56         70.3964
993.95        75.29924
994.33        78.67259
994.71        79.42693
995.10        78.24272
995.48        75.95513
995.86        74.02395
996.24        73.03271
996.63        72.49466
997.01        72.24615
997.39        72.09061
997.77        71.92402
998.15        71.94861
998.54        72.09354
998.92        72.13924
999.30        72.02552
999.68        71.74962
1000.06        71.40774
1000.45        71.17693
1000.83        71.25148
1001.21        71.54206
1001.59        71.94417
1001.97        72.27849
1002.35        72.46624
1002.73        72.49493
1003.12        72.53479
1003.50        72.80688
1003.88        73.35327
1004.26        74.12486
1004.64        74.72759
1005.02         74.5723
1005.40        73.61549
1005.78        72.03671
1006.16        70.48321
1006.54        70.11884
1006.92        71.18711
1007.30         73.2412
1007.69        75.43076
1008.07        76.58791
1008.45        76.28522
1008.83        75.01271
1009.21        73.10444
1009.59        71.12234
1009.97        69.41711
1010.35        67.82772
1010.73        66.91994
1011.11        67.67288
1011.49        70.30115
1011.86        74.87205
1012.24        80.07997
1012.62         83.7872
1013.00        85.12514
1013.38        84.26568
1013.76        82.41529
1014.14        82.07358
1014.52        84.00141
1014.90        87.48795
1015.28         90.9889
1015.66        91.73798
1016.04        89.31071
1016.41         85.1646
1016.79        81.04305
1017.17        78.24144
1017.55        76.74039
1017.93        75.95717
1018.31         75.5257
1018.69        74.81229
1019.06        73.72338
1019.44        72.85369
1019.82         72.2378
1020.20        71.65854
1020.58         71.0402
1020.95        70.25452
1021.33         69.5889
1021.71        69.63976
1022.09        70.66663
1022.46        72.38998
1022.84        74.31035
1023.22        76.05551
1023.60        77.43452
1023.97        78.55465
1024.35        78.96798
1024.73        77.97079
