SpectraSmart Spectrum 2.9.0.0
--------- Device Information -----------
Spectrum Name :  反射率_0
Saving Time :  2024/05/01 16:53:22
Spectro-Module Model Name : SE2030-DUVN
Spectro-Module Serial Number : OS361AC55029948
Wavelength Start : 200
Wavelength End : 1025
Wavelength Unit : Wavelength(nm)
Spectrum Unit : Reflectance(%)
-----------Spectrum Setting ------------
Integration Time : 20ms
Average : 10
Boxcar : 0
Background removal :  enabled
linearity correction :  enabled
SC :  disabled
Intensity correction :  disabled
DWT denoise :  enabled
savitzky-golay :  disabled
FFT :  disabled
Running average :  disabled
Kalman :  disabled
High pass :  disabled
---------------BEGIN--------------------
Wavelength(nm)             Reflectance(%)
200.29               0
200.75        146.8672
201.21        619.2336
201.67       -246.2926
202.13       -77.40633
202.58       -20.09693
203.04        14.37916
203.50        35.38568
203.96        43.76404
204.42        41.03457
204.88        16.56485
205.34        -686.514
205.80        168.0681
206.26        127.8562
206.72        117.8708
207.18        136.3384
207.64        43.92223
208.10         64.5405
208.55        66.06394
209.01         64.6368
209.47        63.46084
209.93        62.45614
210.39        59.58194
210.85        56.28954
211.31        55.18716
211.77        59.59604
212.23      -0.1274228
212.69        40.06762
213.14        59.21379
213.60        122.2843
214.06       -553.8647
214.52       -84.20099
214.98       -52.59567
215.44       -44.61523
215.90       -45.89056
216.36       -129.5958
216.81       -2.625283
217.27       -10.43137
217.73       -44.25393
218.19       -31.31554
218.65       -35.02515
219.11       -45.14863
219.57        -75.8932
220.02       -178.8723
220.48       -64.86166
220.94       -10.98707
221.40       0.8836861
221.86        5.468464
222.32        9.054615
222.77        13.66839
223.23        20.43706
223.69        29.26922
224.15        34.32947
224.61        32.75776
225.06        28.37784
225.52        25.55445
225.98        26.31766
226.44         30.5009
226.90        37.89131
227.36        47.19695
227.81         51.4645
228.27        47.99575
228.73        41.57806
229.19        35.92944
229.65        32.66683
230.10        31.29682
230.56        31.11277
231.02        32.09166
231.48        34.11093
231.93        36.42727
232.39        38.80758
232.85         40.7683
233.31        42.00539
233.77        42.68937
234.22         43.0256
234.68         43.1633
235.14        43.43956
235.60        43.97673
236.05        44.74226
236.51        46.02261
236.97         48.2824
237.43        51.29502
237.88          54.681
238.34        56.77243
238.80        56.31808
239.26        52.76232
239.71        44.87578
240.17        31.77056
240.63        19.25244
241.08        16.13218
241.54        23.21387
242.00         33.8874
242.46        42.06577
242.91        48.46948
243.37        54.97499
243.83         65.0352
244.28        79.96371
244.74        88.96935
245.20        89.77763
245.66        86.94636
246.11        82.82014
246.57        77.13902
247.03        67.98253
247.48        50.99923
247.94         24.2108
248.40        -3.84542
248.85       -26.28689
249.31       -31.29209
249.77       -15.70436
250.22           8.571
250.68        32.77186
251.14        50.65755
251.59        59.37374
252.05        60.35682
252.51        52.45365
252.96        27.12275
253.42       -10.68404
253.88       -6.541019
254.33        28.38383
254.79        49.06916
255.25        54.93838
255.70        54.38914
256.16        52.71811
256.62        51.83519
257.07        52.89226
257.53        55.39194
257.99         57.9057
258.44        59.54912
258.90        60.08012
259.35        59.38294
259.81        58.20591
260.27        56.78107
260.72        55.49701
261.18        54.73751
261.63        54.07635
262.09         53.6248
262.55        53.14909
263.00        52.51291
263.46        51.89633
263.91        51.15993
264.37        50.42381
264.83        49.64165
265.28        48.81323
265.74        47.99075
266.19        46.98931
266.65        45.92733
267.11        44.79668
267.56        43.79478
268.02        43.32425
268.47        43.38166
268.93        43.78717
269.38        44.23886
269.84        44.19291
270.30        43.53478
270.75        42.42844
271.21        41.10043
271.66        39.77481
272.12        38.62469
272.57        37.54526
273.03        36.65395
273.48        36.07007
273.94        35.80736
274.39        35.78493
274.85        35.84767
275.31        35.69181
275.76        35.24986
276.22        34.66277
276.67        33.98754
277.13        33.42932
277.58        32.96336
278.04        32.55188
278.49        32.14764
278.95        31.80883
279.40        31.47339
279.86        31.18924
280.31        30.81948
280.77        30.26351
281.22        29.48966
281.68        28.62786
282.13        27.77632
282.59           27.16
283.04        26.78646
283.50         26.6268
283.95        26.59049
284.41        26.59279
284.86        26.57163
285.32         26.5507
285.77        26.53508
286.22        26.57276
286.68        26.66593
287.13         26.7755
287.59        26.83053
288.04        26.68267
288.50        26.35643
288.95        25.88301
289.41        25.45276
289.86        25.25373
290.32        25.33732
290.77        25.62294
291.22        25.96962
291.68        26.15081
292.13        26.11831
292.59        25.98032
293.04        25.84381
293.50        25.92638
293.95        26.26114
294.40        26.77978
294.86        27.40394
295.31        28.02588
295.77         28.5922
296.22        29.12321
296.68        29.61361
297.13        30.03729
297.58        30.41652
298.04        30.78171
298.49        31.15058
298.95        31.59394
299.40        32.10916
299.85        32.66955
300.31        33.30232
300.76        34.04223
301.21        34.87658
301.67        35.79051
302.12        36.63028
302.58        37.18359
303.03        37.39684
303.48         37.3714
303.94        37.31669
304.39        37.47119
304.84        37.91547
305.30        38.55861
305.75        39.27282
306.20        39.87921
306.66        40.32039
307.11        40.62411
307.57        40.83384
308.02        40.94909
308.47        41.00608
308.93        41.00859
309.38        40.95732
309.83        40.91821
310.29        40.91646
310.74        40.93731
311.19        40.98091
311.65        41.02551
312.10        41.05326
312.55        41.07126
313.00        41.08469
313.46        41.09939
313.91        41.10817
314.36        41.10599
314.82        41.06747
315.27        40.97108
315.72        40.80728
316.18        40.58956
316.63        40.34068
317.08        40.10908
317.53        39.90297
317.99        39.71536
318.44         39.5071
318.89        39.22399
319.35        38.86445
319.80        38.45715
320.25        38.06008
320.70        37.75809
321.16        37.56495
321.61        37.46282
322.06         37.4057
322.51         37.3224
322.97        37.17859
323.42        37.00335
323.87        36.80096
324.32         36.5936
324.78        36.38638
325.23        36.18391
325.68        35.97918
326.13        35.77274
326.59        35.55675
327.04        35.35051
327.49        35.15323
327.94        34.97344
328.39        34.80916
328.85        34.64098
329.30        34.47675
329.75        34.28809
330.20        34.06931
330.66        33.82164
331.11        33.56105
331.56        33.27452
332.01        32.97209
332.46        32.66488
332.92        32.37802
333.37         32.1868
333.82         32.0971
334.27        32.10111
334.72        32.16535
335.17        32.22929
335.63        32.25263
336.08        32.24823
336.53        32.22882
336.98        32.23892
337.43        32.28263
337.88        32.34749
338.34        32.35246
338.79          32.192
339.24        31.84617
339.69        31.35748
340.14        30.87378
340.59        30.62324
341.05        30.64604
341.50        30.88578
341.95        31.17824
342.40        31.25205
342.85        31.04819
343.30        30.66587
343.75        30.25173
344.20        30.03273
344.66        30.06799
345.11        30.26301
345.56        30.54629
346.01        30.80004
346.46         30.9653
346.91        31.07191
347.36        31.09491
347.81        30.99475
348.26        30.78234
348.72        30.48319
349.17        30.14087
349.62         29.8726
350.07        29.70761
350.52        29.61291
350.97         29.5697
351.42        29.53479
351.87        29.49139
352.32        29.47036
352.77        29.41801
353.22        29.25126
353.67        28.97001
354.13        28.59955
354.58        28.25852
355.03        28.17077
355.48         28.3679
355.93        28.79054
356.38        29.23898
356.83        29.37523
357.28        29.12762
357.73        28.60833
358.18        28.04778
358.63        27.79059
359.08        27.90153
359.53        28.25843
359.98        28.67932
360.43        28.85854
360.88        28.70948
361.33        28.35057
361.78        27.89372
362.23        27.49468
362.68         27.2069
363.13        26.97335
363.58        26.80157
364.03        26.71392
364.48        26.69581
364.93        26.74195
365.38        26.78172
365.83        26.69496
366.28        26.45867
366.73        26.10854
367.18        25.70551
367.63        25.36138
368.08        25.11916
368.53        24.95105
368.98        24.84384
369.43        24.77216
369.88        24.71508
370.33        24.67588
370.78        24.63074
371.23        24.53627
371.68        24.38597
372.13        24.19651
372.58        23.98456
373.03        23.77678
373.48        23.58452
373.93        23.39933
374.38        23.24973
374.83        23.18202
375.28        23.19661
375.72        23.27292
376.17        23.34712
376.62        23.31449
377.07        23.15421
377.52        22.89546
377.97        22.60091
378.42        22.37257
378.87        22.23755
379.32        22.16728
379.77        22.11709
380.22        22.01666
380.67        21.84992
381.11        21.64682
381.56        21.44284
382.01        21.29817
382.46        21.23343
382.91        21.23271
383.36        21.26013
383.81        21.26496
384.26        21.22743
384.71        21.14675
385.15         21.0563
385.60        21.02811
386.05        21.06326
386.50        21.14796
386.95        21.19417
387.40        21.06983
387.85        20.77259
388.29        20.34566
388.74        19.96545
389.19        19.81825
389.64        19.92742
390.09        20.21301
390.54        20.53636
390.98        20.67123
391.43        20.57019
391.88        20.31789
392.33         20.0023
392.78        19.75438
393.23        19.61133
393.67        19.49741
394.12        19.42423
394.57        19.42956
395.02        19.47499
395.47        19.43817
395.91        19.33731
396.36        19.30109
396.81        19.34187
397.26        19.38083
397.71        19.39576
398.15        19.40444
398.60        19.42474
399.05        19.36933
399.50         19.2801
399.95        19.35985
400.39        19.55144
400.84        19.49643
401.29        19.20662
401.74        19.01654
402.18         18.9513
402.63        18.81546
403.08        18.63947
403.53        18.55345
403.97         18.5633
404.42        18.63759
404.87        18.72422
405.32         18.7393
405.76        18.66123
406.21        18.52222
406.66        18.37672
407.11        18.31326
407.55        18.35637
408.00        18.47841
408.45        18.62317
408.90        18.66602
409.34        18.58773
409.79        18.46992
410.24        18.35736
410.68        18.27114
411.13        18.23036
411.58        18.23968
412.03        18.26927
412.47        18.25995
412.92        18.19376
413.37        18.09303
413.81        17.99021
414.26        17.94634
414.71        17.96528
415.15        18.03648
415.60        18.10414
416.05        18.09604
416.49        17.99696
416.94         17.8312
417.39        17.66349
417.83         17.5946
418.28        17.64618
418.73        17.78335
419.17        17.94405
419.62         18.0219
420.07        17.99668
420.51         17.9047
420.96        17.80292
421.41        17.75243
421.85        17.76551
422.30        17.82294
422.74        17.91185
423.19        18.03564
423.64        18.17891
424.08        18.34785
424.53        18.48376
424.98        18.51111
425.42        18.41888
425.87        18.23783
426.31         18.0236
426.76        17.87544
427.21        17.81503
427.65        17.81183
428.10        17.87038
428.54        17.98757
428.99        18.15152
429.44        18.38664
429.88        18.58432
430.33        18.59356
430.77        18.40532
431.22        18.08882
431.66        17.78295
432.11        17.73314
432.56        17.91897
433.00        18.21995
433.45        18.43918
433.89        18.18956
434.34        17.49834
434.78        17.53607
435.23        18.35139
435.67        18.63987
436.12        18.39063
436.57        18.29881
437.01        18.41056
437.46        18.44552
437.90        18.40258
438.35        18.38355
438.79        18.38077
439.24        18.33633
439.68        18.28113
440.13        18.35438
440.57        18.49913
441.02        18.53904
441.46        18.46138
441.91        18.26507
442.35        18.02842
442.80        18.12563
443.24        18.44291
443.69        18.35998
444.13        17.94325
444.58        17.82364
445.02        18.00975
445.47        18.16391
445.91        18.23951
446.36        18.32595
446.80        18.40589
447.24        18.45256
447.69        18.47294
448.13        18.48048
448.58        18.48206
449.02        18.47279
449.47        18.45901
449.91        18.43615
450.36        18.41107
450.80        18.38343
451.25          18.357
451.69        18.32288
452.13        18.28244
452.58        18.24106
453.02        18.19728
453.47        18.16104
453.91        18.13206
454.36        18.11415
454.80        18.10131
455.24        18.08209
455.69        18.05831
456.13         18.0208
456.58        17.99553
457.02        17.99732
457.46        18.03211
457.91        18.09479
458.35        18.14917
458.79        18.11156
459.24        17.98387
459.68        17.84127
460.13         17.7667
460.57        17.52699
461.01        17.64581
461.46        17.71084
461.90        17.83831
462.34        17.89124
462.79        17.94867
463.23         17.9468
463.68        17.93139
464.12        17.93431
464.56        17.96495
465.01        18.03313
465.45        18.08872
465.89        18.09132
466.34        18.04181
466.78        17.95013
467.22          17.854
467.67        17.84885
468.11        17.87686
468.55         17.9804
468.99        18.10474
469.44        18.20139
469.88        18.25776
470.32        18.28129
470.77        18.28414
471.21        18.28398
471.65        18.28688
472.10        18.29078
472.54        18.28402
472.98        18.26044
473.42        18.22339
473.87        18.18763
474.31        18.15972
474.75        18.16683
475.20        18.21673
475.64        18.28738
476.08         18.3596
476.52        18.44987
476.97        18.55939
477.41        18.59599
477.85        18.52617
478.29        18.82188
478.74        18.67563
479.18        18.70624
479.62        18.69245
480.06        18.78032
480.50        18.98081
480.95        18.90877
481.39        19.18101
481.83        19.21738
482.27        19.21469
482.72         19.1939
483.16        19.17743
483.60        19.22832
484.04        19.34888
484.48        19.41974
484.93         19.5412
485.37        19.88013
485.81        20.28908
486.25        20.54682
486.69        19.95599
487.14        19.43074
487.58        19.94587
488.02        20.38036
488.46        20.25685
488.90        20.59731
489.34         20.6558
489.79        20.54346
490.23        20.96062
490.67        21.19818
491.11         21.4605
491.55        21.51391
491.99         21.4096
492.43        21.42948
492.88        21.58838
493.32        21.70494
493.76        21.77733
494.20        21.91578
494.64        22.12959
495.08        22.36533
495.52        22.58695
495.96        22.82066
496.41         23.0322
496.85        23.02751
497.29        22.89588
497.73        23.08541
498.17        23.54689
498.61        23.72285
499.05        23.61837
499.49        23.69037
499.93        23.94819
500.37        24.12866
500.82        24.22353
501.26        24.34119
501.70        24.48316
502.14        24.62099
502.58        24.73964
503.02        24.81777
503.46        24.85566
503.90        24.86613
504.34        24.88519
504.78        24.96651
505.22        25.11941
505.66        25.32648
506.10        25.54033
506.54        25.68094
506.98        25.72875
507.42        25.71091
507.86        25.66671
508.30        25.65792
508.74        25.70443
509.18         25.7876
509.62        25.89623
510.06        26.01153
510.50         26.1223
510.94        26.23378
511.38        26.33544
511.82        26.40958
512.26        26.45062
512.70        26.45634
513.14        26.43935
513.58         26.4234
514.02        26.41657
514.46        26.41957
514.90        26.41781
515.34        26.38539
515.78         26.3225
516.22        26.24208
516.66        26.17884
517.10        26.18471
517.54         26.2663
517.98        26.40245
518.42        26.55084
518.86        26.64187
519.30        26.65578
519.74        26.61336
520.18        26.53942
520.62        26.47568
521.06        26.43567
521.50        26.40318
521.93        26.38054
522.37        26.36657
522.81        26.36056
523.25        26.36886
523.69        26.36919
524.13        26.32284
524.57        26.22783
525.01        26.09701
525.45        25.97142
525.89        25.91688
526.32        25.94388
526.76        26.02639
527.20        26.12141
527.64        26.15943
528.08        26.12098
528.52        26.03075
528.96        25.91024
529.40         25.7926
529.83        25.68992
530.27        25.59961
530.71        25.52694
531.15        25.48824
531.59        25.48148
532.03        25.49827
532.46        25.51733
532.90         25.5082
533.34        25.46419
533.78        25.37836
534.22        25.25843
534.66         25.1604
535.09        25.06959
535.53        24.89703
535.97         24.6898
536.41        24.61008
536.85        24.67332
537.28        24.80675
537.72        24.95825
538.16        25.06805
538.60        25.11236
539.04        25.10457
539.47        25.07966
539.91         25.1088
540.35        25.20007
540.79        25.34241
541.22         25.4987
541.66         25.5726
542.10        25.61929
542.54        25.61236
542.97        25.61139
543.41        25.69106
543.85        25.86051
544.29        26.09363
544.72        26.35066
545.16        26.58245
545.60        26.76802
546.04        26.92656
546.47        27.06873
546.91        27.20092
547.35        27.33825
547.79        27.49893
548.22         27.6543
548.66        27.79418
549.10        27.91951
549.53        27.92432
549.97        28.07832
550.41         28.2269
550.84        28.44706
551.28        28.72926
551.72        29.03263
552.15         29.2608
552.59        29.40964
553.03        29.53946
553.46         29.6621
553.90        29.81571
554.34        30.00933
554.77        30.18083
555.21        30.28842
555.65        30.59724
556.08        30.52291
556.52        30.56181
556.96        30.56419
557.39        30.59617
557.83         30.6773
558.27        30.74922
558.70        30.80952
559.14        31.00386
559.57        31.05028
560.01        31.22413
560.45        31.38352
560.88        31.41059
561.32        31.36632
561.75        31.28187
562.19        31.24982
562.63        31.54628
563.06        32.03598
563.50        32.04347
563.93        31.63897
564.37        31.55404
564.80        31.80188
565.24        31.98704
565.68        32.07271
566.11         32.1922
566.55        32.34926
566.98        32.48409
567.42        32.62483
567.85        32.80954
568.29        33.04362
568.72        33.24432
569.16        33.41417
569.60        33.56694
570.03         33.6878
570.47        33.69437
570.90        33.86533
571.34          33.811
571.77        33.93614
572.21        34.05865
572.64        34.31721
573.08        34.29371
573.51        34.64505
573.95          35.159
574.38        34.68034
574.82        34.98678
575.25        35.14555
575.69        35.23558
576.12        35.08789
576.56        35.15521
576.99        35.34242
577.42        35.09646
577.86        35.25005
578.29        35.29748
578.73        35.45542
579.16        35.16455
579.60        34.79593
580.03        34.69905
580.47        35.08961
580.90        34.44778
581.33        34.71748
581.77        34.93333
582.20         34.8237
582.64        34.47584
583.07        34.39006
583.51        34.10587
583.94         33.9658
584.37        33.94644
584.81        34.04057
585.24        33.97784
585.68        33.77306
586.11        33.71438
586.54        33.53491
586.98        33.44048
587.41        33.31789
587.85         33.4354
588.28        33.34576
588.71        32.67505
589.15        33.29884
589.58        32.65584
590.01        32.91812
590.45        32.93807
590.88        33.11606
591.31        33.16807
591.75        33.09935
592.18        32.86496
592.61        32.46062
593.05        33.27003
593.48        32.91017
593.91        33.32178
594.35         33.2538
594.78        33.42502
595.21         33.6489
595.65        33.69424
596.08        33.56697
596.51        33.92548
596.94        34.08138
597.38        34.30137
597.81        34.36334
598.24        34.64132
598.68        35.02843
599.11        34.87522
599.54        35.97107
599.97        35.71803
600.41        36.07312
600.84        36.58647
601.27        36.81535
601.70        37.24523
602.14        37.74964
602.57        37.98602
603.00        38.06211
603.43        38.28791
603.87        38.91369
604.30         39.3273
604.73        39.51107
605.16        39.65326
605.60         39.8787
606.03        40.44974
606.46        41.18978
606.89        41.47512
607.32        41.45264
607.76        41.61515
608.19         42.0141
608.62        42.60219
609.05        42.79144
609.48        43.14474
609.92        42.97879
610.35        43.24574
610.78        44.13687
611.21        44.48522
611.64        44.42347
612.07        44.81128
612.50        45.19023
612.94        45.43849
613.37        45.44951
613.80        45.51555
614.23        45.62964
614.66        46.05105
615.09        46.04515
615.52        46.27862
615.96        46.52789
616.39        46.79926
616.82        47.06134
617.25        47.29228
617.68         47.4669
618.11        47.50876
618.54        47.46287
618.97        47.49601
619.40        47.65619
619.84        47.80237
620.27         47.9373
620.70        48.31923
621.13        48.83705
621.56         48.7132
621.99        48.27356
622.42        48.32874
622.85        48.67069
623.28        48.72529
623.71        48.40652
624.14        48.73244
624.57        48.71595
625.00        48.84295
625.43        48.79116
625.86        48.72773
626.29        48.66516
626.72        48.34068
627.15        48.33736
627.58        48.09657
628.01        47.82185
628.44        47.82715
628.87        47.84225
629.30        47.73485
629.73         47.4553
630.16        47.28302
630.59        47.21394
631.02        47.09079
631.45        46.88635
631.88        46.62574
632.31        46.30663
632.74        45.92635
633.17        45.52448
633.60        45.16396
634.03        44.86032
634.46        44.59916
634.89        44.35247
635.32        44.07088
635.75        43.74094
636.18        43.38202
636.61        43.00857
637.04          42.631
637.47        42.25806
637.89        41.89751
638.32        41.54613
638.75        41.15941
639.18        40.92701
639.61        40.53823
640.04        40.34756
640.47        40.09542
640.90        39.86971
641.33        39.65467
641.76        39.44972
642.18        39.31457
642.61         39.2515
643.04        39.16127
643.47        38.99144
643.90        39.20941
644.33        38.96471
644.76        38.89164
645.18        38.79262
645.61        38.90156
646.04        39.16618
646.47        39.25898
646.90        39.20818
647.33        39.32178
647.75         39.6095
648.18        39.88639
648.61        40.13155
649.04        40.37109
649.47        40.59447
649.89        40.88298
650.32         41.2202
650.75        41.38669
651.18        41.46303
651.61        41.94848
652.03        42.77703
652.46        43.21442
652.89        43.27083
653.32        43.62923
653.74        44.36569
654.17        44.79064
654.60        44.97385
655.03        45.86596
655.46        45.36469
655.88        46.33051
656.31        51.86126
656.74        50.66127
657.16         46.4515
657.59        46.16596
658.02        47.57213
658.45        48.13496
658.87        48.85664
659.30         47.9516
659.73        48.51002
660.15         49.3392
660.58        49.32755
661.01        49.48641
661.44         49.3759
661.86        49.56178
662.29        50.01559
662.72        50.36676
663.14        50.58712
663.57         50.7738
664.00        50.92985
664.42        51.03122
664.85        51.09147
665.27        51.07778
665.70           51.05
666.13        51.12704
666.55        51.33951
666.98        51.65171
667.41        52.00376
667.83        52.29393
668.26        52.47036
668.69        52.55273
669.11        52.60843
669.54        52.72858
669.96        52.91944
670.39        53.21876
670.82        53.53653
671.24        53.48432
671.67        53.17818
672.09        53.26443
672.52        53.70834
672.94        53.87918
673.37        53.76353
673.80        53.72816
674.22        53.80021
674.65        53.82277
675.07        53.81371
675.50        53.80333
675.92        53.82795
676.35        53.93496
676.77        54.13004
677.20        54.38288
677.62        54.63252
678.05        54.77294
678.47         54.7799
678.90        54.69468
679.32        54.58433
679.75        54.54054
680.17        54.58326
680.60        54.75077
681.02        55.02568
681.45        55.01811
681.87         55.2707
682.30        55.34545
682.72        55.43047
683.15        55.51747
683.57        55.62134
684.00        55.72606
684.42        55.81211
684.85        55.88086
685.27        55.91877
685.70        55.92994
686.12        55.92553
686.54        55.94052
686.97        55.97575
687.39        56.02859
687.82        56.16832
688.24        56.08092
688.66        55.86882
689.09        55.90994
689.51        56.20136
689.94        56.37659
690.36        56.42675
690.78        56.53427
691.21        56.74042
691.63        56.98509
692.06        57.38027
692.48        57.69308
692.90        57.90252
693.33        57.99966
693.75        57.97972
694.17        57.77179
694.60        57.50063
695.02        57.38275
695.44        57.47567
695.87        57.58812
696.29        57.73892
696.71        57.52349
697.14        57.68318
697.56        57.92918
697.98        58.37949
698.41        58.61631
698.83        58.59417
699.25        58.56615
699.68        58.57738
700.10        58.53213
700.52        58.41282
700.94        58.80695
701.37        58.61794
701.79        58.83374
702.21         59.0569
702.64        59.15633
703.06        59.12869
703.48        59.05184
703.90        58.93194
704.33        59.09396
704.75         58.8294
705.17        58.85402
705.59        58.96365
706.01        59.14002
706.44        59.35383
706.86        59.58108
707.28        59.78958
707.70        59.98969
708.12        60.16496
708.55        60.20053
708.97        60.22227
709.39        60.14695
709.81        60.04528
710.23        59.97701
710.66        59.96472
711.08        60.00248
711.50        60.07244
711.92        60.16052
712.34        60.25608
712.76        60.36534
713.19         60.4507
713.61        60.49142
714.03        60.46503
714.45        60.38177
714.87        60.29247
715.29        60.27693
715.71        60.35143
716.13        60.49657
716.56        60.64463
716.98        60.75447
717.40        60.77905
717.82        60.74168
718.24        60.69105
718.66        60.70542
719.08         60.8023
719.50        60.95308
719.92        61.11331
720.34        61.21356
720.76        61.23433
721.19        61.19832
721.61        61.14122
722.03        61.11068
722.45        61.12734
722.87        61.18649
723.29        61.27347
723.71        61.34268
724.13        61.37675
724.55        61.41665
724.97        61.50914
725.39        61.50064
725.81        61.74882
726.23        61.96319
726.65        62.15721
727.07        62.15313
727.49        61.94637
727.91        61.63522
728.33        61.34618
728.75        61.24576
729.17         61.3741
729.59        61.69038
730.01        62.07033
730.43        62.28119
730.85        62.26304
731.27        62.10601
731.69        61.87969
732.10        61.68858
732.52        61.57231
732.94        61.48462
733.36        61.47119
733.78        61.56181
734.20        61.73785
734.62        62.14392
735.04        62.63695
735.46        62.59597
735.88        62.17002
736.30        62.30331
736.72        62.91496
737.13         63.1459
737.55        62.92307
737.97        62.60279
738.39        62.34669
738.81        62.51599
739.23        63.01873
739.65        63.11809
740.06        62.79849
740.48        62.75632
740.90        62.97586
741.32        63.08522
741.74        63.03801
742.16        62.97364
742.57        62.89915
742.99        62.75868
743.41         62.6432
743.83        62.69426
744.25        62.91909
744.67        63.26059
745.08        63.60653
745.50        63.71521
745.92        63.55186
746.34        63.18417
746.75        62.74093
747.17        62.45915
747.59        62.38767
748.01        62.47089
748.42        62.65088
748.84        62.81103
749.26        62.92331
749.68        62.97687
750.09         62.9998
750.51         63.1573
750.93        63.39951
751.35        63.45243
751.76        63.35434
752.18        63.38658
752.60        63.56829
753.01        63.76169
753.43        63.90009
753.85        63.98121
754.27          63.996
754.68        63.95591
755.10        63.91128
755.52        63.93739
755.93        64.04427
756.35        64.18642
756.77        64.31158
757.18        64.42813
757.60        64.54995
758.02        64.55135
758.43        64.33197
758.85        64.74083
759.26        63.84181
759.68         63.8704
760.10        64.18272
760.51        64.62746
760.93         64.3714
761.34        64.35941
761.76        64.53587
762.18        64.08492
762.59        63.34327
763.01        63.55048
763.42        64.62792
763.84        65.06815
764.26        64.76672
764.67        64.50591
765.09        64.43276
765.50        64.36615
765.92         64.3343
766.33        64.29321
766.75         64.2009
767.16        64.19793
767.58         64.2878
768.00         64.5553
768.41        65.00358
768.83        65.46046
769.24        65.83386
769.66        66.20516
770.07        66.45042
770.49        66.08491
770.90        65.31336
771.32        65.09735
771.73        65.42906
772.15        65.44513
772.56        65.14219
772.97        65.05637
773.39        65.18251
773.80        65.36983
774.22        65.41611
774.63        65.55018
775.05        65.66766
775.46        65.74371
775.88        65.74516
776.29        65.69656
776.70        65.63403
777.12        65.64707
777.53        65.76128
777.95        65.91705
778.36        66.07539
778.77        66.11481
779.19        66.01129
779.60        65.91879
780.02        65.82969
780.43        65.51898
780.84        65.14425
781.26        65.13996
781.67        65.47546
782.09        65.88285
782.50        66.15745
782.91        65.88345
783.33         65.2605
783.74         65.1205
784.15        65.53654
784.57        66.05547
784.98        66.61098
785.39        66.82645
785.81        67.37215
786.22        67.44353
786.63        67.62621
787.04        67.54357
787.46          67.372
787.87        67.10657
788.28        66.88839
788.70        66.89185
789.11        67.11955
789.52        67.56049
789.93        68.03464
790.35        68.21822
790.76        68.06079
791.17        67.64304
791.58        67.14919
792.00        66.87938
792.41        66.92609
792.82        67.13535
793.23        67.38271
793.65        67.64374
794.06         67.7851
794.47        67.44917
794.88        66.86295
795.29        66.67471
795.71        66.87511
796.12        67.24615
796.53        67.61361
796.94        67.77956
797.35        67.64865
797.76        67.30868
798.18        66.93109
798.59        66.73798
799.00         66.8013
799.41        67.03824
799.82        67.38614
800.23        67.74139
800.64        68.04524
801.06        68.30593
801.47        68.50127
801.88        68.49972
802.29        68.29073
802.70        67.90033
803.11        67.46553
803.52        67.21674
803.93        67.22766
804.34        67.45016
804.75        67.77623
805.17        68.07732
805.58        68.34092
805.99        68.31287
806.40        68.08433
806.81        68.44237
807.22        69.12215
807.63        68.64163
808.04        67.25114
808.45        66.68012
808.86        67.08173
809.27        67.53185
809.68        67.83825
810.09        68.08354
810.50        68.18351
810.91          68.127
811.32        67.97414
811.73        67.82742
812.14        67.73293
812.55        67.66256
812.96         67.6581
813.37        67.78587
813.78        68.04481
814.19        68.41902
814.60        68.80757
815.01        69.04995
815.42        69.10929
815.83        69.01483
816.24        68.84058
816.65        68.73869
817.05        68.76315
817.46        68.84693
817.87        68.94522
818.28        68.94828
818.69        68.83006
819.10        68.62766
819.51        68.40383
819.92        68.26915
820.33        68.26073
820.74        68.34297
821.14         68.4471
821.55         68.4972
821.96        68.46256
822.37        68.38502
822.78        68.31113
823.19        68.31837
823.60        68.43552
824.00         68.6504
824.41        68.90452
824.82        69.20901
825.23        69.53308
825.64        69.85236
826.04        70.13295
826.45        70.24682
826.86        70.19347
827.27        70.00862
827.68        69.70444
828.08        69.32822
828.49        68.88486
828.90        68.38663
829.31        67.95344
829.72        67.75774
830.12         67.8662
830.53        68.22822
830.94        68.65582
831.35        68.75555
831.75        68.45932
832.16         67.8351
832.57        67.25845
832.97        67.29908
833.38        68.03654
833.79        69.26942
834.20        70.58498
834.60        71.27766
835.01        71.12361
835.42        70.37923
835.82        69.35863
836.23        68.54564
836.64        68.11014
837.04        67.92101
837.45        67.92386
837.86        68.08782
838.26        68.37012
838.67        68.76981
839.08        69.16706
839.48         69.3149
839.89        69.15249
840.29        68.73975
840.70        68.23838
841.11        67.88818
841.51        67.77754
841.92        67.82005
842.33        67.98857
842.73        68.23782
843.14        68.48494
843.54         68.7946
843.95        69.08332
844.35        69.27762
844.76        69.32776
845.17        69.23766
845.57        69.08823
845.98        69.00829
846.38        69.04811
846.79        69.16412
847.19        69.28312
847.60        69.19951
848.00        68.90375
848.41        68.45174
848.81        68.01454
849.22         67.8287
849.62        67.95878
850.03        68.30171
850.43        68.72385
850.84        68.85669
851.24         68.6701
851.65         68.2469
852.05        67.79613
852.46        67.62445
852.86        67.78979
853.27        68.16996
853.67        68.62521
854.07        69.14592
854.48        69.63995
854.88         70.2257
855.29        70.62015
855.69        70.55054
856.10        69.86474
856.50        68.75066
856.90         67.6031
857.31        67.00255
857.71        67.06562
858.12        67.59753
858.52        68.38879
858.92        68.82202
859.33        68.68379
859.73        68.20583
860.13        67.54046
860.54        66.95793
860.94        66.56326
861.34         66.2447
861.75         66.0535
862.15        66.13712
862.55        66.47824
862.96        67.04255
863.36        67.63787
863.76        67.84893
864.17        67.59431
864.57         67.0039
864.97        66.33314
865.38        66.02541
865.78        66.21636
866.18        66.73768
866.58        67.39142
866.99         67.8121
867.39        67.90117
867.79        67.79302
868.19        67.50911
868.60        67.04227
869.00        66.43118
869.40        65.65237
869.80        64.98737
870.21        64.95698
870.61        65.69802
871.01        66.99121
871.41        68.29636
871.81         68.7925
872.22        68.30786
872.62        67.08678
873.02        65.60192
873.42        64.65082
873.82        64.48896
874.22        64.91107
874.63        65.60344
875.03        66.05592
875.43        66.12982
875.83         65.9955
876.23        65.89209
876.63        66.18013
877.03        66.91659
877.44        67.90511
877.84        68.88813
878.24        69.41501
878.64        69.35917
879.04        68.87675
879.44        68.18082
879.84         67.5866
880.24        67.20326
880.64        66.95957
881.04        66.81916
881.44        66.71049
881.84        66.61728
882.24        66.59977
882.65        66.64103
883.05        66.79047
883.45        66.99545
883.85        67.19917
884.25        67.42542
884.65        67.73341
885.05        68.12896
885.45        68.61511
885.85        69.03761
886.25        69.14081
886.65        68.87236
887.05        68.27988
887.45        67.67357
887.85        67.53926
888.25          67.966
888.65        68.83324
889.04        69.70277
889.44        69.83504
889.84        69.11002
890.24         67.7737
890.64        66.39132
891.04        65.77942
891.44        66.10345
891.84        67.14177
892.24        68.36552
892.64        68.86862
893.04        68.42944
893.44        67.34121
893.83        66.19308
894.23        65.88186
894.63        66.56264
895.03        67.93415
895.43        69.44633
895.83         70.1126
896.23        69.66763
896.63        68.51441
897.02        67.10942
897.42        66.18349
897.82        65.86919
898.22        65.98696
898.62        66.41902
899.01        67.00362
899.41        67.58942
899.81        68.24033
900.21        68.95578
900.61        69.70917
901.00        70.44413
901.40        71.07702
901.80        71.45368
902.20        71.38443
902.59        70.87563
902.99         70.0187
903.39        69.07046
903.79        68.44329
904.18        68.23426
904.58        68.34924
904.98        68.61757
905.38        68.76495
905.77        68.71093
906.17        68.58757
906.57        68.38701
906.96        68.10801
907.36         67.7754
907.76        67.38201
908.15        67.14017
908.55        67.35995
908.95        68.08645
909.34        69.21487
909.74        70.37217
910.14        71.02231
910.53        71.00578
910.93        70.46754
911.33        69.67327
911.72        69.05363
912.12        68.76797
912.52        68.70237
912.91         68.7073
913.31        68.53053
913.70        68.12795
914.10        67.61887
914.49         67.1858
914.89        67.06564
915.29        67.30677
915.68        67.80777
916.08        68.39249
916.47        68.79199
916.87        68.91589
917.26        68.84412
917.66        68.67625
918.05        68.56895
918.45        68.56217
918.84        68.63155
919.24        68.73971
919.64         68.8969
920.03        69.10371
920.42          69.353
920.82            69.6
921.21        69.79591
921.61        69.89769
922.00        69.91082
922.40        69.85627
922.79        69.84956
923.19        69.89503
923.58        69.96804
923.98         69.9668
924.37        69.68743
924.77        69.15319
925.16        68.43458
925.55         67.7463
925.95         67.4274
926.34        67.59469
926.74        68.09993
927.13        68.84935
927.52        69.58728
927.92         70.1885
928.31        70.71686
928.70        71.07874
929.10         71.1599
929.49        70.97021
929.89        70.51009
930.28        69.94377
930.67        69.51833
931.07        69.30411
931.46        69.25974
931.85        69.30706
932.24        69.29806
932.64        69.19288
933.03         69.0965
933.42        68.98916
933.82        68.84981
934.21        68.69057
934.60        68.48013
934.99        68.38968
935.39        68.65878
935.78        69.34054
936.17        70.39085
936.56        71.44636
936.96        71.84776
937.35        71.46637
937.74        70.44003
938.13        69.29037
938.53        68.72011
938.92        68.82013
939.31        69.44656
939.70        70.17992
940.09        70.25616
940.49        69.50959
940.88        68.25017
941.27        66.98003
941.66        66.43118
942.05        66.76969
942.44        67.76707
942.84        69.05892
943.23        70.04257
943.62         70.4181
944.01        70.36562
944.40        70.05522
944.79        69.77409
945.18        69.62686
945.57          69.484
945.97        69.34266
946.36        69.31718
946.75        69.38141
947.14        69.56906
947.53        69.75113
947.92        69.66488
948.31        69.27515
948.70        68.68273
949.09        68.12971
949.48        67.97706
949.87        68.31454
950.26        69.05668
950.65        70.00207
951.04        70.78725
951.43        71.25505
951.82        71.43043
952.21        71.47882
952.60         71.6885
952.99        72.08709
953.38         72.5565
953.77        72.79787
954.16         72.3092
954.55        71.05795
954.94        69.35385
955.33        67.60466
955.72        66.40121
956.11        65.89816
956.50        65.86346
956.89         66.2528
957.28        66.98287
957.66        67.97694
958.05        69.18244
958.44        70.13016
958.83        69.92678
959.22        68.47812
959.61        66.14822
960.00        63.82589
960.39        62.78731
960.78        63.27101
961.16        64.92416
961.55        67.11797
961.94        68.86978
962.33        69.78638
962.72        70.11145
963.11        69.94845
963.49        69.54329
963.88        69.01328
964.27        68.31264
964.66        67.56988
965.04        66.98205
965.43        66.58553
965.82        66.39019
966.21         66.3927
966.60        66.52377
966.98        66.74963
967.37        67.04494
967.76        67.33639
968.15        67.49623
968.53        67.48405
968.92        67.28768
969.31          66.972
969.69        66.66994
970.08        66.37955
970.47        66.07488
970.86        65.71777
971.24        65.27108
971.63        64.71186
972.02        64.13625
972.40        63.59633
972.79        63.16993
973.17         62.9122
973.56         62.8165
973.95        62.88132
974.33        63.10964
974.72        63.43565
975.11          63.797
975.49        64.30541
975.88        65.12308
976.26        66.27961
976.65        67.64645
977.04        68.72424
977.42        68.71849
977.81        67.53035
978.19        65.39049
978.58        63.41805
978.96        63.06215
979.35        64.58485
979.74        67.69508
980.12        71.42695
980.51        73.22455
980.89        72.46375
981.28        69.73037
981.66         66.4168
982.05        64.87045
982.43        65.66473
982.82        68.05779
983.20        71.26738
983.59         73.7641
983.97        75.06205
984.35        75.56539
984.74         75.2765
985.12        74.33235
985.51        72.87792
985.89        70.80669
986.28        68.71943
986.66        67.45836
987.04        67.33816
987.43        68.21916
987.81        69.51352
988.20        69.95251
988.58        69.23988
988.96        67.55344
989.35        65.75478
989.73        65.21349
990.12        66.16046
990.50         68.2404
990.88        70.24181
991.27        70.21325
991.65        67.90139
992.03         64.0635
992.42        60.22091
992.80        58.44567
993.18        59.33311
993.56        62.16211
993.95        65.89337
994.33        68.95469
994.71        70.48311
995.10        70.96035
995.48        70.48328
995.86        69.25484
996.24        67.58508
996.63        65.41161
997.01        63.34667
997.39        62.32796
997.77        62.50256
998.15        63.71681
998.54        65.40724
998.92        66.43108
999.30        66.39803
999.68        65.59225
1000.06        64.41205
1000.45        63.56096
1000.83        63.42313
1001.21        63.70604
1001.59        64.25482
1001.97        64.82318
1002.35        65.28251
1002.73        65.73038
1003.12        66.16235
1003.50        66.47487
1003.88        66.68167
1004.26        66.79148
1004.64        66.80374
1005.02        66.73763
1005.40        66.63091
1005.78        66.49772
1006.16        66.46637
1006.54         66.7448
1006.92        67.32834
1007.30        68.08538
1007.69         68.7551
1008.07        69.15046
1008.45        69.11374
1008.83        68.78256
1009.21        68.16145
1009.59        67.26071
1009.97        66.18706
1010.35        64.96667
1010.73        64.02122
1011.11        64.07633
1011.49        65.32695
1011.86          67.789
1012.24        70.66502
1012.62        72.81581
1013.00         73.7831
1013.38        73.76279
1013.76        73.27898
1014.14        73.44944
1014.52        74.59893
1014.90        76.23883
1015.28        77.94106
1015.66        78.91715
1016.04        78.89967
1016.41        78.32609
1016.79        77.31165
1017.17        75.65315
1017.55        73.19549
1017.93         69.4988
1018.31        65.07414
1018.69        62.57915
1019.06        63.34977
1019.44        66.23209
1019.82         68.9411
1020.20        69.41872
1020.58        67.61487
1020.95        63.91278
1021.33        59.21017
1021.71        56.21425
1022.09        56.65055
1022.46        59.71499
1022.84        64.16759
1023.22        68.44116
1023.60        71.87312
1023.97        74.94411
1024.35        76.84304
1024.73        76.16234
