SpectraSmart Spectrum 2.9.0.0
--------- Device Information -----------
Spectrum Name :  反射率_0
Saving Time :  2024/05/01 16:59:54
Spectro-Module Model Name : SE2030-DUVN
Spectro-Module Serial Number : OS361AC55029948
Wavelength Start : 200
Wavelength End : 1025
Wavelength Unit : Wavelength(nm)
Spectrum Unit : Reflectance(%)
-----------Spectrum Setting ------------
Integration Time : 20ms
Average : 10
Boxcar : 0
Background removal :  enabled
linearity correction :  enabled
SC :  disabled
Intensity correction :  disabled
DWT denoise :  enabled
savitzky-golay :  disabled
FFT :  disabled
Running average :  disabled
Kalman :  disabled
High pass :  disabled
---------------BEGIN--------------------
Wavelength(nm)             Reflectance(%)
200.29               0
200.75         257.761
201.21        1025.439
201.67       -412.2631
202.13       -144.7264
202.58       -59.98473
203.04       -11.22283
203.50        17.28138
203.96        26.87597
204.42        18.50655
204.88       -30.95384
205.34       -1398.301
205.80        260.5731
206.26        180.8277
206.72        156.3927
207.18         174.565
207.64        18.49634
208.10         36.7424
208.55        27.00517
209.01        14.37189
209.47        4.714381
209.93         -2.5899
210.39       -11.73686
210.85       -24.27799
211.31       -46.16519
211.77       -117.8073
212.23        430.8443
212.69        100.5573
213.14        91.87682
213.60        165.0824
214.06       -746.9656
214.52       -121.8335
214.98       -84.22887
215.44       -82.47459
215.90        -113.621
216.36       -671.3495
216.81        176.0193
217.27        185.8868
217.73       -386.1414
218.19       -91.70084
218.65       -78.58575
219.11       -103.3926
219.57       -200.5416
220.02       -601.4503
220.48       -313.3623
220.94       -100.2117
221.40       -45.80993
221.86       -25.10581
222.32       -13.21684
222.77       -2.245604
223.23        11.45831
223.69        28.14376
224.15        37.21707
224.61        33.55426
225.06        24.88455
225.52        17.99094
225.98        15.38379
226.44        16.37132
226.90        19.89768
227.36        25.79144
227.81        31.04309
228.27        32.86286
228.73         32.6427
229.19         31.6118
229.65        30.43692
230.10        29.18966
230.56        27.71012
231.02        26.13133
231.48        25.44615
231.93        26.02805
232.39        27.33477
232.85        29.13136
233.31        31.31192
233.77        33.62109
234.22        36.00216
234.68        37.81542
235.14        38.36643
235.60        37.55023
236.05        35.24073
236.51        31.63775
236.97         28.8376
237.43         28.7486
237.88        31.38906
238.34        34.90184
238.80        36.71415
239.26        35.97104
239.71         32.8101
240.17        26.09957
240.63          16.449
241.08        8.121416
241.54         3.57541
242.00        3.125007
242.46        5.852543
242.91         12.0741
243.37        23.68307
243.83        44.65499
244.28        66.78372
244.74        71.23543
245.20        64.07888
245.66        54.56427
246.11        45.27388
246.57        34.37305
247.03        18.06811
247.48       -8.573682
247.94       -41.36565
248.40       -65.40093
248.85       -76.41022
249.31       -68.48905
249.77       -45.13313
250.22       -18.52614
250.68        5.041486
251.14        20.82218
251.59        26.12829
252.05        21.60161
252.51        3.157836
252.96       -45.62255
253.42        -116.053
253.88       -105.6581
254.33       -35.63872
254.79        8.632988
255.25        28.21139
255.70        36.68108
256.16        41.21532
256.62        43.51423
257.07        44.21914
257.53         44.3409
257.99        43.98772
258.44        43.54819
258.90        43.68707
259.35        44.10358
259.81        44.81327
260.27        45.41838
260.72        45.41695
261.18        45.02233
261.63        44.27808
262.09        43.52673
262.55        42.83269
263.00        42.14857
263.46         41.5061
263.91        40.84001
264.37        40.31009
264.83        39.86302
265.28        39.48677
265.74          39.103
266.19        38.38438
266.65        37.41992
267.11        36.25433
267.56        35.19389
268.02        34.80228
268.47        35.11242
268.93        35.89087
269.38        36.72694
269.84        36.89766
270.30        36.25468
270.75        35.03183
271.21        33.57073
271.66        32.27553
272.12        31.34887
272.57        30.61919
273.03        30.10764
273.48        29.79863
273.94        29.66086
274.39        29.67102
274.85        29.69965
275.31         29.4967
275.76        29.01629
276.22        28.36647
276.67        27.63905
277.13        27.06283
277.58         26.6311
278.04         26.3187
278.49        26.02698
278.95        25.71378
279.40        25.32358
279.86        24.92429
280.31        24.51502
280.77        24.16627
281.22        23.84682
281.68        23.58134
282.13        23.29437
282.59        22.95639
283.04         22.5453
283.50        22.12075
283.95        21.73545
284.41        21.51853
284.86        21.47077
285.32         21.5425
285.77         21.6649
286.22        21.77023
286.68        21.83377
287.13         21.8612
287.59        21.82437
288.04        21.63877
288.50        21.34189
288.95         20.9427
289.41        20.58589
289.86        20.41331
290.32        20.46334
290.77        20.67723
291.22        20.95289
291.68        21.12423
292.13         21.1534
292.59        21.12214
293.04        21.08877
293.50        21.19232
293.95        21.45094
294.40        21.82256
294.86        22.27545
295.31        22.77671
295.77        23.29279
296.22        23.82434
296.68        24.33072
297.13        24.73847
297.58        25.05234
298.04        25.31254
298.49        25.56192
298.95        25.90684
299.40        26.35297
299.85        26.86082
300.31        27.41919
300.76        28.01163
301.21        28.62093
301.67        29.26007
302.12        29.83251
302.58        30.21123
303.03        30.36495
303.48        30.35726
303.94        30.35007
304.39        30.52769
304.84         30.9438
305.30        31.52222
305.75        32.13667
306.20          32.605
306.66        32.87917
307.11        33.00068
307.57        33.03111
308.02        33.01071
308.47        32.98083
308.93        32.93214
309.38        32.86678
309.83         32.8429
310.29        32.87242
310.74        32.93948
311.19        33.01166
311.65        33.01855
312.10        32.94035
312.55        32.80226
313.00        32.64661
313.46        32.54085
313.91        32.49485
314.36        32.48261
314.82        32.47039
315.27        32.41775
315.72        32.30407
316.18        32.14955
316.63        31.95163
317.08        31.71166
317.53         31.4353
317.99        31.12701
318.44        30.80254
318.89        30.50547
319.35        30.25294
319.80        30.04036
320.25        29.85665
320.70        29.67418
321.16        29.47812
321.61        29.28177
322.06        29.09007
322.51        28.91566
322.97        28.75442
323.42        28.60898
323.87        28.45884
324.32        28.28368
324.78        28.07429
325.23        27.84679
325.68         27.6136
326.13        27.40148
326.59        27.20826
327.04        27.03789
327.49        26.86342
327.94        26.65014
328.39        26.38962
328.85         26.0859
329.30        25.77684
329.75        25.49757
330.20        25.26395
330.66        25.06373
331.11        24.89417
331.56        24.71841
332.01        24.53087
332.46        24.34769
332.92        24.17567
333.37        24.05434
333.82         23.9819
334.27        23.94514
334.72        23.94118
335.17        23.96933
335.63        24.00723
336.08        24.05698
336.53        24.08567
336.98        24.05484
337.43        23.95844
337.88        23.81759
338.34        23.63332
338.79        23.42635
339.24         23.2106
339.69        22.98466
340.14        22.81373
340.59        22.79647
341.05        22.93033
341.50        23.18497
341.95        23.43843
342.40        23.49228
342.85        23.30741
343.30        22.95724
343.75        22.55367
344.20         22.2733
344.66        22.17102
345.11        22.18205
345.56        22.28274
346.01        22.42674
346.46        22.57727
346.91        22.74375
347.36        22.86695
347.81        22.85513
348.26        22.70074
348.72        22.43842
349.17        22.12698
349.62        21.90585
350.07        21.80982
350.52        21.79859
350.97        21.82889
351.42        21.82221
351.87        21.75677
352.32          21.673
352.77        21.56229
353.22        21.41045
353.67        21.22387
354.13        20.99998
354.58        20.79863
355.03         20.7453
355.48        20.85552
355.93        21.10748
356.38          21.359
356.83        21.37038
357.28        21.10038
357.73        20.62656
358.18        20.15533
358.63        19.99469
359.08        20.19469
359.53        20.65204
359.98        21.15952
360.43        21.36569
360.88        21.17981
361.33        20.72748
361.78        20.18445
362.23        19.80729
362.68        19.66408
363.13        19.66833
363.58        19.74512
364.03        19.77927
364.48        19.72315
364.93        19.61301
365.38        19.46345
365.83        19.28744
366.28        19.09423
366.73        18.88017
367.18        18.63671
367.63        18.36049
368.08        18.06897
368.53        17.78083
368.98        17.54627
369.43        17.43202
369.88        17.43938
370.33        17.53661
370.78        17.66175
371.23        17.70535
371.68        17.62909
372.13        17.46441
372.58        17.23458
373.03        16.97705
373.48        16.71269
373.93        16.43289
374.38        16.17704
374.83        16.01195
375.28        15.95254
375.72        15.98679
376.17        16.05655
376.62          16.065
377.07        15.98673
377.52        15.83983
377.97        15.67457
378.42        15.57346
378.87        15.55265
379.32        15.58577
379.77        15.61202
380.22        15.54058
380.67        15.35677
381.11        15.09486
381.56        14.82929
382.01        14.68458
382.46        14.69151
382.91        14.81271
383.36        14.96298
383.81         15.0131
384.26        14.92911
384.71        14.74205
385.15        14.52566
385.60        14.41173
386.05        14.42292
386.50        14.52541
386.95        14.62456
387.40        14.57825
387.85        14.37147
388.29        14.04883
388.74        13.76034
389.19        13.66686
389.64        13.78837
390.09        14.05396
390.54        14.34055
390.98        14.45103
391.43        14.34537
391.88        14.10671
392.33        13.82222
392.78        13.61827
393.23        13.52826
393.67         13.4837
394.12        13.48874
394.57        13.56332
395.02        13.67364
395.47        13.73377
395.91        13.73413
396.36        13.72744
396.81        13.71906
397.26        13.66471
397.71        13.57998
398.15         13.5266
398.60        13.52829
399.05        13.50892
399.50        13.47753
399.95        13.54573
400.39        13.66692
400.84         13.6033
401.29        13.37142
401.74        13.21781
402.18        13.16432
402.63        13.06698
403.08        12.95141
403.53        12.91803
403.97        12.96789
404.42        13.07357
404.87        13.17504
405.32        13.17505
405.76        13.05399
406.21        12.85164
406.66        12.63654
407.11        12.51904
407.55        12.53152
408.00        12.64338
408.45        12.80174
408.90        12.89327
409.34        12.89074
409.79        12.85278
410.24        12.81282
410.68        12.78904
411.13        12.79647
411.58        12.83763
412.03         12.8827
412.47        12.87693
412.92         12.8088
413.37         12.6989
413.81        12.59626
414.26        12.58279
414.71        12.66645
415.15        12.83017
415.60        12.99766
416.05        13.05582
416.49        12.97713
416.94        12.79683
417.39        12.59938
417.83        12.51935
418.28        12.58754
418.73        12.75824
419.17        12.95503
419.62         13.0485
420.07        13.01207
420.51        12.89038
420.96        12.74959
421.41        12.66789
421.85        12.66375
422.30        12.71162
422.74        12.78992
423.19         12.8822
423.64        12.97305
424.08        13.07473
424.53        13.15184
424.98        13.16265
425.42        13.10358
425.87        12.99476
426.31        12.86796
426.76        12.78699
427.21        12.76385
427.65        12.77783
428.10        12.83993
428.54        12.96114
428.99        13.12988
429.44        13.35731
429.88        13.55002
430.33        13.57657
430.77        13.42879
431.22        13.16426
431.66        12.89918
432.11        12.83968
432.56        12.97801
433.00        13.22261
433.45        13.41336
433.89        13.23664
434.34        12.70592
434.78        12.68335
435.23        13.22104
435.67        13.41045
436.12        13.25148
436.57        13.23226
437.01        13.36254
437.46         13.3982
437.90        13.32919
438.35        13.24635
438.79        13.17032
439.24        13.09876
439.68        13.06483
440.13        13.15532
440.57        13.31661
441.02        13.40316
441.46        13.39585
441.91        13.28024
442.35        13.11913
442.80        13.23022
443.24        13.51594
443.69        13.43872
444.13        13.06056
444.58        12.93427
445.02        13.07242
445.47        13.18651
445.91        13.23974
446.36        13.31091
446.80        13.38733
447.24        13.44468
447.69          13.492
448.13        13.54731
448.58        13.61078
449.02        13.67013
449.47        13.71519
449.91        13.71991
450.36        13.68625
450.80        13.62622
451.25        13.54929
451.69        13.45944
452.13        13.36654
452.58        13.27368
453.02        13.20063
453.47        13.18663
453.91        13.23315
454.36        13.33243
454.80         13.4406
455.24        13.48376
455.69        13.44919
456.13        13.34783
456.58        13.24022
457.02        13.20141
457.46        13.25001
457.91        13.36153
458.35        13.47469
458.79        13.47253
459.24        13.34601
459.68        13.17127
460.13        13.04081
460.57        12.82548
461.01        12.91982
461.46        13.00555
461.90        13.14678
462.34        13.20742
462.79        13.23482
463.23        13.19076
463.68        13.12696
464.12        13.09468
464.56        13.10971
465.01        13.17155
465.45        13.22414
465.89        13.20822
466.34        13.12218
466.78        12.98207
467.22         12.8453
467.67        12.83213
468.11        12.91033
468.55        13.09231
468.99         13.2987
469.44        13.43282
469.88        13.47154
470.32        13.43855
470.77        13.37087
471.21        13.32688
471.65        13.32634
472.10        13.35073
472.54        13.38108
472.98        13.39813
473.42        13.39674
473.87        13.39464
474.31        13.38797
474.75        13.38197
475.20         13.3829
475.64        13.37923
476.08        13.37541
476.52        13.41344
476.97        13.50043
477.41        13.56171
477.85        13.55612
478.29        13.80216
478.74        13.70043
479.18        13.71172
479.62        13.68333
480.06        13.73783
480.50        13.88736
480.95        13.84311
481.39        14.05116
481.83        14.07771
482.27        14.06336
482.72         14.0262
483.16        13.99182
483.60         14.0157
484.04        14.09336
484.48        14.18024
484.93        14.33983
485.37        14.56635
485.81        14.73168
486.25        15.14048
486.69        14.45552
487.14        14.15866
487.58        14.78376
488.02        14.93742
488.46        14.87352
488.90        15.02806
489.34        15.00621
489.79        14.91429
490.23        15.23431
490.67        15.40789
491.11        15.56959
491.55        15.58232
491.99        15.49665
492.43         15.5273
492.88        15.68755
493.32        15.83663
493.76        15.95444
494.20        16.09663
494.64         16.2648
495.08        16.42539
495.52        16.57064
495.96        16.75238
496.41        16.95241
496.85        17.01551
497.29        16.98822
497.73         17.1755
498.17        17.53456
498.61        17.65976
499.05        17.56429
499.49         17.6029
499.93        17.78872
500.37        17.92264
500.82        17.99965
501.26        18.10009
501.70        18.22488
502.14        18.35293
502.58         18.4705
503.02        18.55667
503.46        18.60972
503.90           18.64
504.34        18.67253
504.78        18.74488
505.22        18.86443
505.66        19.01992
506.10        19.18161
506.54        19.29728
506.98         19.3523
507.42        19.37163
507.86        19.36159
508.30        19.37387
508.74        19.41585
509.18        19.47944
509.62        19.55146
510.06         19.6109
510.50        19.65113
510.94        19.67697
511.38        19.70306
511.82        19.75137
512.26        19.82316
512.70        19.90825
513.14        19.97982
513.58        19.99727
514.02        19.95515
514.46        19.87029
514.90        19.77468
515.34        19.71998
515.78        19.72096
516.22        19.76217
516.66        19.82565
517.10        19.88149
517.54        19.91909
517.98        19.94861
518.42        19.96902
518.86        19.97786
519.30        19.97684
519.74        19.96286
520.18        19.94731
520.62        19.95136
521.06        19.97676
521.50        20.01559
521.93        20.05172
522.37        20.05314
522.81        20.01532
523.25        19.95092
523.69        19.87175
524.13        19.79521
524.57        19.73116
525.01        19.67758
525.45        19.64019
525.89        19.62834
526.32        19.63898
526.76        19.66189
527.20         19.6875
527.64          19.699
528.08        19.69003
528.52        19.66936
528.96        19.62338
529.40        19.53235
529.83         19.3985
530.27        19.23463
530.71         19.0866
531.15        19.03169
531.59        19.08004
532.03        19.20385
532.46        19.33682
532.90        19.37442
533.34        19.29413
533.78        19.11815
534.22        18.90098
534.66        18.75752
535.09        18.69347
535.53        18.61854
535.97        18.53321
536.41        18.50562
536.85        18.53359
537.28        18.58224
537.72        18.63464
538.16        18.68032
538.60        18.71119
539.04        18.72386
539.47        18.73268
539.91        18.77448
540.35        18.85062
540.79        18.96087
541.22        19.08014
541.66        19.13913
542.10        19.18044
542.54        19.17945
542.97         19.1864
543.41        19.26782
543.85        19.43096
544.29        19.65565
544.72        19.89511
545.16        20.08646
545.60        20.21198
546.04        20.28934
546.47        20.35579
546.91        20.47605
547.35        20.66318
547.79         20.8873
548.22        21.09848
548.66        21.26959
549.10        21.39249
549.53        21.38482
549.97        21.47445
550.41        21.58342
550.84        21.78059
551.28         22.0458
551.72        22.33362
552.15         22.5481
552.59        22.67972
553.03        22.78381
553.46        22.87873
553.90        23.00665
554.34        23.17816
554.77        23.34049
555.21        23.45577
555.65        23.72116
556.08        23.68179
556.52        23.72608
556.96        23.74151
557.39        23.78473
557.83        23.87195
558.27         23.9546
558.70        24.03005
559.14        24.21097
559.57        24.27517
560.01        24.43822
560.45        24.58436
560.88        24.61373
561.32        24.57512
561.75        24.49789
562.19        24.46312
562.63        24.70035
563.06        25.10806
563.50        25.15385
563.93        24.88524
564.37        24.86836
564.80        25.10885
565.24        25.29283
565.68        25.39216
566.11        25.51302
566.55        25.65749
566.98        25.78673
567.42        25.91186
567.85        26.02968
568.29        26.15077
568.72        26.26605
569.16        26.40655
569.60        26.53133
570.03        26.61992
570.47         26.7963
570.90        27.07012
571.34        26.95167
571.77        27.23293
572.21        27.32733
572.64        27.49582
573.08        27.51361
573.51        27.94403
573.95        28.10164
574.38        27.90126
574.82        28.15497
575.25        28.23388
575.69        28.43872
576.12        28.45458
576.56        28.34802
576.99        28.64165
577.42        28.58476
577.86        28.39768
578.29        28.43987
578.73        28.52922
579.16        28.25092
579.60        27.90849
580.03        27.78758
580.47        28.09589
580.90        27.68614
581.33        28.11658
581.77         28.1181
582.20        27.88351
582.64        27.82715
583.07        27.58787
583.51        27.34429
583.94        27.11906
584.37        27.10865
584.81        27.28584
585.24        27.19704
585.68         26.8655
586.11        26.79674
586.54        26.60744
586.98        26.37618
587.41        26.31547
587.85        26.45571
588.28         26.4285
588.71        26.04355
589.15        26.49082
589.58         26.1187
590.01         26.2792
590.45        26.23855
590.88        26.27054
591.31        26.26036
591.75        26.23583
592.18         26.1261
592.61        25.88763
593.05         26.5059
593.48          26.296
593.91        26.36403
594.35        26.32859
594.78        26.40026
595.21        26.58796
595.65        26.82623
596.08         26.8613
596.51         27.1743
596.94        27.14791
597.38        27.36267
597.81        27.67973
598.24        27.56987
598.68        28.10432
599.11        28.13833
599.54        28.68748
599.97        28.98481
600.41        29.26952
600.84        29.72607
601.27         30.0295
601.70        30.54639
602.14        30.94077
602.57        31.24865
603.00        31.45916
603.43        31.72336
603.87        32.24261
604.30        32.76989
604.73        32.94005
605.16        33.22703
605.60        33.53122
606.03        34.07632
606.46        34.70475
606.89        35.03615
607.32        35.19594
607.76        35.45293
608.19        35.85085
608.62        36.43414
609.05        36.73066
609.48        37.06829
609.92        37.42899
610.35        37.47489
610.78         38.5524
611.21        38.87598
611.64        38.87992
612.07        39.13704
612.50        39.57305
612.94        39.80877
613.37         39.8145
613.80        40.27173
614.23        40.40887
614.66        40.96267
615.09        41.04299
615.52        41.28975
615.96        41.52681
616.39        41.81032
616.82        42.14085
617.25        42.49466
617.68        42.84251
618.11        43.06598
618.54        42.77332
618.97        43.01809
619.40        43.22206
619.84        43.42286
620.27        43.44078
620.70        43.96756
621.13        44.52898
621.56         44.2653
621.99        44.38339
622.42        44.45299
622.85        44.88647
623.28        44.49128
623.71        44.49398
624.14        44.80797
624.57        44.58342
625.00        44.66819
625.43        44.72237
625.86        44.46912
626.29        44.57814
626.72        44.32782
627.15        44.20098
627.58        43.93453
628.01        43.65412
628.44        43.47287
628.87        43.35716
629.30         43.1446
629.73        42.84327
630.16        42.58842
630.59        42.37333
631.02         42.1205
631.45        41.81863
631.88        41.48459
632.31        41.11807
632.74         40.7155
633.17        40.30134
633.60         39.9122
634.03        39.55574
634.46        39.22929
634.89        38.90706
635.32        38.53524
635.75        38.11141
636.18        37.67589
636.61        37.24836
637.04        36.83575
637.47        36.44652
637.89        36.07849
638.32        35.70384
638.75        35.32994
639.18        34.96479
639.61          34.476
640.04        34.14617
640.47        33.79592
640.90        33.50988
641.33        33.26748
641.76        33.05619
642.18        32.90087
642.61        32.79798
643.04        32.67436
643.47        32.49651
643.90        32.66928
644.33         32.4857
644.76        32.46282
645.18        32.42845
645.61        32.56958
646.04        32.83749
646.47        32.96172
646.90        32.95656
647.33        33.06678
647.75        33.30369
648.18        33.51912
648.61        33.72187
649.04        33.97993
649.47        34.29534
649.89        34.70965
650.32        35.18164
650.75        35.52003
651.18        35.75811
651.61        36.22928
652.03        36.91771
652.46        37.39278
652.89        37.64702
653.32        38.06928
653.74        38.73887
654.17        39.17397
654.60        39.42407
655.03        40.44595
655.46        40.15446
655.88        41.19617
656.31        46.20828
656.74        45.04439
657.16          41.726
657.59        41.27398
658.02        42.83465
658.45        43.08317
658.87        43.67442
659.30        43.47348
659.73         44.1856
660.15        44.96147
660.58        45.02248
661.01        45.20641
661.44         45.2974
661.86        45.61528
662.29          46.147
662.72         46.5929
663.14        46.92919
663.57        47.26699
664.00        47.59459
664.42        47.83269
664.85        48.00727
665.27        48.10031
665.70        48.17805
666.13         48.3507
666.55         48.6459
666.98        49.02355
667.41        49.42917
667.83        49.76845
668.26        49.99986
668.69        50.15503
669.11        50.26876
669.54         50.4183
669.96        50.61657
670.39        50.78839
670.82        50.94286
671.24        51.13202
671.67         51.3526
672.09        51.56807
672.52        51.75846
672.94        51.87944
673.37        51.93736
673.80        51.90382
674.22        51.83334
674.65         51.8987
675.07        52.15708
675.50        52.18373
675.92        52.60051
676.35        52.81068
676.77        52.98926
677.20        53.13806
677.62        53.28801
678.05        53.41524
678.47        53.59578
678.90        53.78167
679.32        53.96023
679.75        54.09849
680.17        54.18117
680.60        54.21217
681.02         54.2576
681.45        54.37179
681.87        54.56948
682.30         54.9452
682.72        55.37957
683.15        55.35843
683.57        54.98835
684.00        54.98035
684.42        55.34729
684.85        55.54113
685.27        55.54459
685.70        55.71971
686.12        56.00021
686.54        56.09462
686.97        56.02467
687.39        55.91895
687.82        56.03987
688.24        56.01574
688.66        55.71502
689.09        55.81756
689.51        56.22709
689.94        56.51952
690.36        56.66357
690.78        56.90501
691.21        57.24591
691.63        57.50227
692.06        57.70201
692.48         58.0677
692.90        58.51739
693.33        58.70775
693.75        58.60706
694.17        58.37905
694.60        58.20231
695.02        57.99246
695.44        58.24738
695.87        58.50431
696.29         58.8217
696.71        58.54263
697.14        58.25564
697.56        58.50857
697.98        59.29381
698.41        59.62377
698.83        59.45586
699.25        59.36953
699.68        59.42481
700.10        59.50454
700.52        59.62192
700.94        59.77494
701.37        59.93997
701.79        60.17934
702.21        60.41061
702.64        60.48061
703.06        60.40379
703.48        60.26928
703.90        60.08677
704.33        60.20323
704.75        59.90607
705.17        59.94016
705.59        60.09488
706.01        60.33923
706.44        60.64223
706.86        60.95397
707.28        61.22585
707.70        61.54194
708.12        61.82933
708.55        61.76722
708.97        61.44341
709.39        61.36259
709.81        61.53613
710.23        61.56673
710.66        61.45004
711.08         61.4628
711.50        61.61071
711.92        61.72834
712.34        61.79461
712.76        61.94793
713.19         62.1767
713.61        61.98129
714.03        62.16478
714.45         62.0629
714.87        61.97804
715.29        61.98106
715.71        62.09645
716.13        62.29982
716.56        62.48922
716.98        62.59878
717.40        62.57165
717.82        62.41488
718.24        62.23936
718.66        62.25599
719.08         62.4704
719.50        62.76478
719.92         63.0245
720.34        63.05431
720.76        62.87002
721.19        62.71965
721.61         62.6722
722.03        62.63652
722.45        62.64371
722.87        62.80054
723.29           63.05
723.71         63.2272
724.13        63.29667
724.55        63.29492
724.97        63.29123
725.39        63.39583
725.81         63.6246
726.23        63.93489
726.65        64.21006
727.07        64.26891
727.49        64.08334
727.91         63.7233
728.33        63.33615
728.75        63.15394
729.17        63.23232
729.59        63.49649
730.01         63.8409
730.43        64.07977
730.85        64.15308
731.27        64.13046
731.69         64.0442
732.10        63.94473
732.52          63.861
732.94         63.7586
733.36        63.69902
733.78        63.77739
734.20        64.00174
734.62        64.39984
735.04        64.83367
735.46        64.96943
735.88        64.83277
736.30        64.71555
736.72        64.69135
737.13        64.80605
737.55        64.98406
737.97        64.95388
738.39        64.77451
738.81        64.86218
739.23        65.20566
739.65        65.44147
740.06        65.47443
740.48        65.51053
740.90        65.51513
741.32        65.40034
741.74        65.21981
742.16        65.10823
742.57        65.09582
742.99        65.18777
743.41        65.35475
743.83        65.41239
744.25        65.39851
744.67        65.61752
745.08        65.99724
745.50        66.08718
745.92        65.85912
746.34        65.51311
746.75        65.18108
747.17        64.98936
747.59        64.96809
748.01        65.21883
748.42        65.60028
748.84        65.57781
749.26        65.25071
749.68        65.23763
750.09        65.55624
750.51        65.92094
750.93        66.20841
751.35        66.21803
751.76        66.00269
752.18         65.9725
752.60        66.15776
753.01         66.2231
753.43        66.16674
753.85        66.31819
754.27        66.58762
754.68        66.68434
755.10        66.42386
755.52        66.29898
755.93         66.3054
756.35        66.44743
756.77        66.69065
757.18        66.79331
757.60        66.76099
758.02          66.914
758.43        67.07891
758.85         66.8078
759.26        66.22624
759.68        65.69986
760.10        66.58749
760.51        67.18573
760.93        67.34154
761.34        67.39307
761.76        67.48589
762.18        66.97089
762.59        66.23534
763.01        66.38592
763.42        67.34229
763.84        67.72416
764.26        67.43689
764.67        67.08188
765.09        66.84936
765.50        66.90286
765.92         67.2435
766.33        67.06951
766.75        66.98949
767.16        66.98225
767.58        67.21992
768.00         67.2776
768.41        67.28191
768.83        67.74706
769.24        68.51127
769.66        69.07141
770.07        69.10133
770.49        68.76556
770.90         68.2077
771.32        68.10215
771.73        68.42146
772.15        68.43631
772.56        68.15353
772.97        68.03139
773.39        68.08856
773.80        68.34494
774.22        68.46288
774.63        68.66171
775.05        68.78489
775.46        68.86945
775.88        68.88023
776.29        68.81035
776.70        68.70032
777.12        68.67174
777.53         68.7498
777.95        68.85259
778.36        68.98494
778.77        69.04578
779.19        69.00797
779.60        69.17146
780.02        69.40089
780.43        68.94305
780.84        68.12801
781.26        68.10329
781.67        68.79166
782.09        69.57064
782.50        70.11559
782.91        69.05215
783.33        68.17081
783.74        67.73283
784.15        68.31208
784.57        69.05602
784.98        69.77084
785.39        70.30361
785.81        70.60577
786.22        70.82417
786.63        71.32014
787.04        71.38902
787.46        71.18561
787.87        70.86183
788.28         70.6013
788.70        70.53506
789.11        70.67496
789.52        71.11583
789.93        71.62209
790.35          71.582
790.76        71.03648
791.17        70.52546
791.58        70.23666
792.00        70.10393
792.41        70.15032
792.82        70.39392
793.23        70.67439
793.65        70.70627
794.06        70.48093
794.47        70.16957
794.88        69.95782
795.29        69.96754
795.71        70.16895
796.12        70.77759
796.53        71.53011
796.94        71.57723
797.35        70.89265
797.76        70.33981
798.18        70.14115
798.59        69.99153
799.00        69.96626
799.41        70.32904
799.82        70.93795
800.23        71.36404
800.64        71.50428
801.06        71.45871
801.47         71.3228
801.88         71.1642
802.29        71.02808
802.70        70.86711
803.11        70.71473
803.52        70.64418
803.93        70.68623
804.34         70.8427
804.75        71.05267
805.17        71.30366
805.58        71.62381
805.99        71.61004
806.40        71.35963
806.81         71.9261
807.22        72.92104
807.63        72.30639
808.04        70.41352
808.45        69.62074
808.86        70.14172
809.27         70.6827
809.68         71.0444
810.09        71.47147
810.50        71.86285
810.91        72.15146
811.32        72.30723
811.73        72.28421
812.14        72.09702
812.55        71.76904
812.96        71.43043
813.37        71.30733
813.78        71.45955
814.19        71.82703
814.60        72.29382
815.01        72.67005
815.42        72.89397
815.83         73.0113
816.24        73.02209
816.65        72.93302
817.05        72.76831
817.46        72.50316
817.87        72.21784
818.28        71.99085
818.69        71.84023
819.10        71.75546
819.51        71.73203
819.92         71.7465
820.33        71.78167
820.74        71.84245
821.14        71.88668
821.55        71.87746
821.96        71.80255
822.37        71.69102
822.78        71.59377
823.19        71.60436
823.60        71.75656
824.00        72.03641
824.41        72.39164
824.82        72.84402
825.23        73.35199
825.64        73.87571
826.04         74.3327
826.45        74.51219
826.86        74.39906
827.27        74.05983
827.68        73.55525
828.08        73.01564
828.49         72.4816
828.90        71.95149
829.31        71.55109
829.72        71.45899
830.12          71.729
830.53        72.29406
830.94        72.92351
831.35        73.14224
831.75        72.85062
832.16        72.13471
832.57        71.37971
832.97        71.17256
833.38        71.61905
833.79        72.53085
834.20        73.56194
834.60        74.12238
835.01        74.01006
835.42        73.43717
835.82        72.65771
836.23        72.05497
836.64          71.761
837.04        71.67912
837.45        71.71461
837.86        71.77832
838.26        71.83946
838.67        71.91212
839.08        72.01686
839.48        72.14182
839.89        72.26144
840.29         72.3495
840.70        72.39321
841.11        72.35344
841.51         72.2418
841.92        72.05383
842.33        71.85452
842.73        71.75343
843.14        71.73729
843.54        71.84335
843.95        71.99406
844.35        72.13182
844.76        72.20352
845.17        72.21524
845.57        72.24102
845.98        72.38643
846.38        72.67973
846.79        73.06614
847.19        73.40318
847.60        73.37016
848.00        72.94405
848.41        72.22372
848.81        71.49137
849.22        71.15538
849.62        71.32492
850.03        71.85169
850.43        72.53806
850.84        72.88896
851.24        72.81959
851.65        72.42887
852.05        71.94193
852.46        71.68961
852.86        71.75298
853.27        72.02599
853.67        72.34917
854.07         72.6902
854.48        72.95616
854.88        73.27094
855.29        73.45425
855.69         73.4493
856.10        73.13648
856.50        72.61275
856.90        72.05076
857.31        71.73159
857.71        71.71255
858.12        71.86817
858.52        72.13133
858.92        72.16618
859.33         71.8707
859.73        71.39702
860.13        70.81522
860.54        70.26041
860.94        69.79311
861.34        69.36605
861.75        69.03561
862.15        68.94719
862.55        69.10231
862.96        69.46156
863.36        69.89154
863.76        70.08246
864.17        69.96329
864.57        69.62306
864.97        69.24187
865.38        69.13472
865.78        69.40166
866.18        69.91735
866.58        70.49167
866.99        70.78554
867.39        70.73051
867.79        70.44329
868.19         70.0337
868.60        69.62553
869.00        69.27043
869.40        68.92772
869.80        68.71668
870.21        68.84952
870.61        69.39279
871.01        70.22096
871.41        71.02235
871.81        71.32851
872.22        71.03714
872.62        70.27072
873.02        69.31915
873.42        68.67523
873.82        68.50191
874.22        68.70046
874.63        69.04886
875.03        69.18001
875.43        69.01472
875.83        68.67312
876.23        68.41643
876.63        68.64412
877.03        69.41232
877.44        70.53664
877.84        71.68542
878.24        72.26595
878.64         72.1264
879.04        71.46005
879.44        70.58527
879.84        69.98795
880.24         69.7983
880.64        69.86924
881.04        70.06268
881.44        70.14606
881.84        70.05654
882.24        69.91669
882.65        69.73615
883.05        69.62251
883.45        69.57742
883.85        69.54269
884.25        69.62142
884.65        69.98968
885.05        70.64882
885.45        71.54986
885.85        72.42658
886.25        72.81408
886.65        72.59724
887.05        71.90226
887.45         71.0676
887.85        70.63574
888.25        70.74204
888.65        71.23526
889.04        71.83083
889.44        72.03658
889.84        71.74154
890.24        71.10555
890.64        70.39221
891.04        69.96444
891.44        69.91425
891.84        70.15718
892.24         70.4634
892.64        70.45703
893.04        70.06451
893.44        69.40462
893.83        68.81552
894.23        68.82287
894.63        69.47794
895.03        70.59899
895.43        71.74216
895.83        72.10989
896.23         71.5202
896.63        70.30926
897.02        68.89693
897.42        67.97693
897.82        67.66358
898.22        67.80158
898.62        68.28053
899.01         68.9365
899.41        69.61528
899.81        70.37718
900.21        71.20251
900.61        72.03996
901.00        72.82793
901.40        73.48288
901.80        73.88766
902.20        73.91373
902.59        73.57522
902.99        72.94353
903.39        72.21929
903.79        71.71966
904.18        71.52476
904.58        71.58077
904.98        71.76987
905.38        71.90272
905.77        71.91566
906.17        71.89624
906.57        71.82162
906.96        71.66825
907.36        71.43695
907.76        71.13207
908.15        70.89988
908.55         70.9411
908.95        71.29908
909.34        71.91269
909.74        72.54715
910.14        72.89622
910.53        72.85617
910.93        72.50574
911.33        71.99089
911.72        71.54323
912.12        71.26451
912.52        71.10607
912.91        70.97169
913.31        70.69511
913.70        70.27438
914.10         69.8019
914.49        69.46933
914.89         69.5378
915.29        70.04729
915.68        70.87891
916.08        71.82391
916.47        72.55185
916.87        72.93484
917.26        73.05425
917.66        72.98381
918.05        72.84756
918.45        72.69741
918.84        72.53267
919.24        72.38192
919.64        72.38357
920.03        72.57378
920.42        72.89951
920.82        73.27683
921.21        73.58793
921.61        73.75748
922.00        73.81775
922.40         73.7286
922.79         73.5149
923.19        73.19117
923.58        72.77948
923.98        72.32706
924.37        71.82755
924.77        71.34008
925.16        70.89282
925.55        70.57848
925.95        70.50607
926.34         70.7216
926.74        71.12849
927.13        71.75443
927.52        72.54627
927.92        73.41636
928.31         74.3454
928.70        75.10752
929.10        75.37829
929.49        75.12061
929.89         74.4221
930.28        73.54481
930.67        72.89072
931.07        72.58604
931.46        72.52929
931.85        72.65563
932.24        72.83647
932.64         73.0042
933.03        73.26086
933.42        73.44229
933.82        73.30042
934.21        72.81929
934.60        72.03574
934.99         71.3297
935.39        71.26905
935.78        71.98579
936.17         73.3571
936.56        74.83353
936.96        75.39478
937.35        74.80681
937.74        73.33752
938.13        71.70535
938.53        70.86741
938.92        70.97378
939.31        71.81067
939.70        72.85181
940.09        73.14684
940.49        72.45696
940.88        71.12565
941.27        69.77213
941.66        69.30847
942.05         69.9267
942.44        71.34297
942.84        72.99126
943.23        73.91758
943.62        73.74843
944.01        72.81865
944.40        71.60551
944.79        70.86014
945.18        70.81071
945.57        71.18986
945.97        71.80245
946.36        72.46247
946.75        73.01776
947.14        73.54517
947.53        73.93917
947.92        73.97679
948.31        73.63437
948.70        72.99642
949.09        72.23563
949.48         71.6257
949.87        71.27195
950.26        71.13489
950.65        71.26529
951.04        71.72336
951.43        72.44653
951.82        73.33856
952.21        74.20325
952.60          74.771
952.99        74.94711
953.38        74.76261
953.77        74.22602
954.16        73.39447
954.55        72.39171
954.94         71.3266
955.33        70.34296
955.72        69.62971
956.11        69.23931
956.50        69.09849
956.89        69.27258
957.28         69.8496
957.66        70.81299
958.05        71.99659
958.44        72.98698
958.83        73.00079
959.22        71.91766
959.61        70.08481
960.00        68.11851
960.39        66.88099
960.78        66.58593
961.16         67.0268
961.55        67.97146
961.94        69.12343
962.33        70.29012
962.72        71.53661
963.11        72.62908
963.49        73.14786
963.88        72.94022
964.27        72.13184
964.66         71.0351
965.04        70.12204
965.43        69.50197
965.82        69.06023
966.21        68.77043
966.60        68.55389
966.98        68.40583
967.37        68.41618
967.76        68.48797
968.15        68.40327
968.53        68.13517
968.92        67.67483
969.31        67.30795
969.69        67.52823
970.08        68.35372
970.47        69.61919
970.86        70.82912
971.24        71.10258
971.63        70.16325
972.02        68.39275
972.40        66.31582
972.79        64.74282
973.17         63.9616
973.56        63.77409
973.95        64.05303
974.33        64.61064
974.72        65.27914
975.11        66.04868
975.49        66.96965
975.88        68.03668
976.26        69.20986
976.65        70.37069
977.04        71.00469
977.42        70.33767
977.81        68.36311
978.19        65.38423
978.58        62.73349
978.96        62.15687
979.35        63.95797
979.74        67.75151
980.12        72.41767
980.51        75.02915
980.89        74.76894
981.28         72.3027
981.66        68.96706
982.05        67.06316
982.43        67.22263
982.82        68.69544
983.20        71.05106
983.59        73.37509
983.97        75.30515
984.35        77.07962
984.74        78.21415
985.12        78.03705
985.51        76.49525
985.89        73.71828
986.28        70.69614
986.66        68.91676
987.04        68.88931
987.43        70.27853
987.81        72.27765
988.20        73.23753
988.58        72.72958
988.96        71.06937
989.35        69.23095
989.73        68.74346
990.12        69.88979
990.50        72.23158
990.88        74.49487
991.27        74.66148
991.65        72.42619
992.03        68.53436
992.42        64.53371
992.80        62.52082
993.18        63.10022
993.56        65.57808
993.95        68.79126
994.33        70.98608
994.71         71.2977
995.10        70.26254
995.48        68.39939
995.86        66.57146
996.24        65.21823
996.63        64.12955
997.01        63.27116
997.39        62.60185
997.77        62.09877
998.15        61.84212
998.54          62.017
998.92        62.86256
999.30        64.35569
999.68        66.33718
1000.06        68.25626
1000.45        69.17483
1000.83        68.95863
1001.21        67.75631
1001.59        66.07713
1001.97        64.89816
1002.35        64.54778
1002.73        64.71819
1003.12        65.26499
1003.50        65.84527
1003.88        66.30866
1004.26        66.85002
1004.64        67.12163
1005.02        66.54363
1005.40        65.11617
1005.78        62.97897
1006.16        60.91942
1006.54        60.39225
1006.92        61.73295
1007.30        64.45033
1007.69        67.51974
1008.07         69.4727
1008.45        69.74423
1008.83        68.78783
1009.21        67.06013
1009.59        65.35295
1009.97        64.05239
1010.35        62.97347
1010.73          62.289
1011.11        62.30912
1011.49        63.12711
1011.86        64.95039
1012.24        67.31583
1012.62        69.64725
1013.00        71.63082
1013.38        73.18584
1013.76         74.4238
1014.14        75.75705
1014.52        77.22243
1014.90        78.59171
1015.28        79.30936
1015.66        78.52722
1016.04        76.40382
1016.41        73.68102
1016.79        71.17825
1017.17        69.41933
1017.55        68.29298
1017.93        67.41186
1018.31        66.82954
1018.69        66.81284
1019.06         67.3102
1019.44        68.20941
1019.82        68.66626
1020.20        67.79668
1020.58        65.57706
1020.95        61.93618
1021.33        57.72611
1021.71        55.52729
1022.09        56.77742
1022.46        60.64894
1022.84        65.51113
1023.22        69.18042
1023.60        70.96037
1023.97        71.62122
1024.35        70.68275
1024.73        67.50046
