SpectraSmart Spectrum 2.9.0.0
--------- Device Information -----------
Spectrum Name :  反射率_0
Saving Time :  2024/05/01 16:58:26
Spectro-Module Model Name : SE2030-DUVN
Spectro-Module Serial Number : OS361AC55029948
Wavelength Start : 200
Wavelength End : 1025
Wavelength Unit : Wavelength(nm)
Spectrum Unit : Reflectance(%)
-----------Spectrum Setting ------------
Integration Time : 20ms
Average : 10
Boxcar : 0
Background removal :  enabled
linearity correction :  enabled
SC :  disabled
Intensity correction :  disabled
DWT denoise :  enabled
savitzky-golay :  disabled
FFT :  disabled
Running average :  disabled
Kalman :  disabled
High pass :  disabled
---------------BEGIN--------------------
Wavelength(nm)             Reflectance(%)
200.29               0
200.75        224.0993
201.21        934.8854
201.67       -391.8053
202.13       -147.6364
202.58       -72.10562
203.04       -29.74052
203.50       -4.845637
203.96        4.929716
204.42        1.652773
204.88       -27.61478
205.34        -882.559
205.80        162.1332
206.26        119.4261
206.72        121.2756
207.18        210.3994
207.64       -77.68136
208.10         15.6957
208.55        36.10962
209.01        44.16731
209.47         47.9267
209.93        49.14241
210.39        47.96693
210.85        44.72812
211.31        38.08007
211.77         14.4479
212.23        198.5455
212.69        93.38209
213.14        104.8667
213.60        183.9388
214.06       -715.6262
214.52       -95.17365
214.98       -57.42221
215.44       -55.42146
215.90       -84.24426
216.36       -598.1294
216.81        177.7977
217.27         174.364
217.73       -271.9596
218.19       -45.00787
218.65       -33.77355
219.11       -50.41887
219.57       -121.4353
220.02        -429.608
220.48       -231.8143
220.94       -68.36079
221.40       -25.26924
221.86       -10.15369
222.32       -5.106245
222.77       -4.160813
223.23       -5.559851
223.69       -7.557478
224.15        -5.81558
224.61      -0.4688537
225.06        4.692717
225.52        8.303374
225.98         10.6188
226.44        12.35372
226.90        14.03563
227.36        15.59378
227.81        16.11683
228.27        15.35655
228.73        14.03557
229.19        12.94331
229.65        12.42373
230.10        12.43849
230.56        13.24983
231.02        14.67369
231.48        16.02115
231.93        16.77791
232.39        16.92748
232.85        17.38687
233.31        19.20817
233.77         22.1237
234.22        25.66275
234.68        28.61039
235.14        29.67065
235.60        28.63305
236.05        25.37749
236.51        20.59177
236.97        18.00507
237.43        20.63415
237.88        28.02647
238.34        36.22153
238.80        40.29332
239.26        38.75882
239.71        30.98111
240.17        15.42466
240.63       -2.726738
241.08       -12.88906
241.54       -12.31527
242.00       -6.334841
242.46       -1.656081
242.91        1.118418
243.37         3.17125
243.83        10.09753
244.28        31.95722
244.74        55.45811
245.20        68.20517
245.66        70.93109
246.11        66.13998
246.57        54.37678
247.03        32.17878
247.48       -6.260478
247.94       -52.54922
248.40       -83.18764
248.85       -92.98339
249.31       -78.52779
249.77       -48.48135
250.22       -17.17203
250.68        10.00833
251.14        28.92459
251.59        38.17639
252.05        39.86248
252.51        32.71012
252.96        8.037472
253.42       -29.36435
253.88        -26.2569
254.33        8.157061
254.79        29.60876
255.25        37.34413
255.70          39.123
256.16        39.60288
256.62        40.21971
257.07        41.70005
257.53         43.8807
257.99         45.9038
258.44        47.36671
258.90        48.33509
259.35         48.6624
259.81         48.7893
260.27        48.64339
260.72        48.16935
261.18        47.66213
261.63        46.93666
262.09        46.27741
262.55        45.68126
263.00        45.06015
263.46        44.49785
263.91        43.83116
264.37        43.10299
264.83        42.28287
265.28        41.42126
265.74        40.59481
266.19        39.68037
266.65        38.78876
267.11        37.88944
267.56        37.15321
268.02        36.93413
268.47        37.21824
268.93        37.84146
269.38        38.49331
269.84        38.61628
270.30        38.09263
270.75        37.07085
271.21        35.81804
271.66        34.63581
272.12        33.69207
272.57        32.85517
273.03        32.14517
273.48        31.53628
273.94        31.03652
274.39        30.65786
274.85         30.3494
275.31        29.96713
275.76        29.47538
276.22        28.93318
276.67        28.38773
277.13         28.0067
277.58        27.75333
278.04        27.61526
278.49        27.44799
278.95        27.14718
279.40        26.65611
279.86        26.06483
280.31        25.45544
280.77        25.02142
281.22        24.74373
281.68        24.60877
282.13        24.45613
282.59        24.13805
283.04        23.61422
283.50        22.98908
283.95        22.39366
284.41        22.07713
284.86        22.06694
285.32        22.27697
285.77        22.56403
286.22        22.75846
286.68        22.81949
287.13        22.78531
287.59         22.7005
288.04         22.5938
288.50        22.51447
288.95        22.41395
289.41        22.34871
289.86        22.33835
290.32        22.40624
290.77        22.54209
291.22        22.70656
291.68        22.82589
292.13        22.88901
292.59        22.94797
293.04        23.04131
293.50        23.28002
293.95        23.66502
294.40        24.16094
294.86        24.72357
295.31        25.29632
295.77        25.84319
296.22         26.3705
296.68        26.84963
297.13        27.22673
297.58        27.51732
298.04        27.75864
298.49        28.00542
298.95         28.3826
299.40         28.8926
299.85        29.48786
300.31        30.13146
300.76        30.76396
301.21        31.36305
301.67        31.95737
302.12        32.46859
302.58        32.80374
303.03         32.9396
303.48        32.92522
303.94        32.92526
304.39          33.123
304.84        33.56837
305.30        34.18687
305.75        34.82282
306.20        35.25047
306.66        35.41919
307.11        35.38345
307.57         35.2541
308.02        35.14094
308.47        35.09916
308.93        35.10064
309.38        35.09784
309.83        35.07189
310.29        35.02102
310.74        34.95579
311.19         34.8954
311.65        34.84829
312.10        34.81028
312.55        34.77773
313.00        34.74619
313.46         34.7117
313.91        34.66345
314.36        34.59564
314.82         34.5051
315.27        34.40173
315.72        34.27946
316.18        34.14297
316.63        33.96505
317.08        33.71278
317.53        33.38518
317.99        33.00021
318.44        32.59871
318.89        32.26286
319.35         32.0191
319.80        31.84965
320.25         31.7181
320.70        31.55709
321.16        31.34191
321.61        31.10001
322.06        30.85595
322.51        30.65473
322.97        30.50194
323.42        30.38994
323.87        30.28903
324.32        30.16366
324.78        29.99842
325.23        29.81687
325.68        29.62811
326.13        29.45358
326.59        29.29034
327.04        29.13927
327.49        28.98499
327.94        28.81572
328.39        28.62349
328.85          28.401
329.30        28.16013
329.75        27.88799
330.20        27.58941
330.66        27.26942
331.11        26.95131
331.56        26.63965
332.01        26.34728
332.46        26.08121
332.92        25.85353
333.37        25.71134
333.82        25.64816
334.27        25.65111
334.72        25.69115
335.17        25.71797
335.63        25.69975
336.08         25.6566
336.53        25.58383
336.98        25.49367
337.43        25.39262
337.88        25.27759
338.34        25.14884
338.79        25.02516
339.24        24.90821
339.69        24.80083
340.14        24.71266
340.59        24.65485
341.05        24.61591
341.50        24.58937
341.95        24.55599
342.40        24.48593
342.85        24.37595
343.30        24.25241
343.75        24.11006
344.20        23.93808
344.66        23.75031
345.11        23.54177
345.56        23.39527
346.01        23.43991
346.46        23.68157
346.91        24.06246
347.36        24.43563
347.81        24.58151
348.26        24.45602
348.72        24.13566
349.17        23.72034
349.62         23.4122
350.07        23.26947
350.52        23.23346
350.97        23.24752
351.42        23.21412
351.87         23.1104
352.32        22.99346
352.77        22.87185
353.22        22.75209
353.67         22.6401
354.13        22.51546
354.58         22.4188
355.03         22.4529
355.48        22.62033
355.93        22.90011
356.38        23.14324
356.83         23.0996
357.28        22.73739
357.73        22.15494
358.18        21.57494
358.63        21.32594
359.08        21.46836
359.53        21.89146
359.98        22.41883
360.43        22.74552
360.88        22.77155
361.33        22.59344
361.78        22.30105
362.23        22.02771
362.68        21.82085
363.13        21.63103
363.58        21.46276
364.03        21.33579
364.48        21.24534
364.93        21.19465
365.38         21.1487
365.83        21.03981
366.28        20.85426
366.73        20.61379
367.18        20.34174
367.63        20.08361
368.08        19.86317
368.53        19.67148
368.98        19.52151
369.43        19.42857
369.88         19.3861
370.33        19.38775
370.78        19.39922
371.23         19.3597
371.68        19.25314
372.13        19.09582
372.58        18.91789
373.03        18.76643
373.48         18.6537
373.93        18.56535
374.38        18.49063
374.83        18.41362
375.28        18.32778
375.72        18.23736
376.17        18.14507
376.62        18.04906
377.07         17.9491
377.52        17.84568
377.97        17.73442
378.42        17.61015
378.87        17.47687
379.32        17.34111
379.77        17.21881
380.22        17.13248
380.67        17.08514
381.11        17.07093
381.56        17.07261
382.01        17.06604
382.46        17.04488
382.91        17.01762
383.36         16.9839
383.81        16.94736
384.26        16.90441
384.71        16.83852
385.15        16.76148
385.60        16.71078
386.05        16.68397
386.50         16.6854
386.95        16.65581
387.40        16.50319
387.85        16.23204
388.29        15.87185
388.74        15.56814
389.19        15.47262
389.64        15.60189
390.09        15.89019
390.54        16.21384
390.98        16.37128
391.43        16.31679
391.88        16.12302
392.33        15.87241
392.78         15.6893
393.23         15.6053
393.67        15.55053
394.12        15.52355
394.57          15.538
395.02        15.55889
395.47        15.49456
395.91          15.366
396.36        15.28271
396.81        15.26138
397.26        15.24093
397.71         15.2078
398.15        15.18102
398.60        15.17554
399.05        15.12109
399.50        15.04951
399.95        15.11648
400.39        15.27594
400.84        15.24988
401.29        15.03897
401.74        14.89179
402.18        14.82487
402.63        14.68644
403.08        14.51824
403.53        14.45148
403.97        14.49329
404.42        14.60726
404.87        14.72429
405.32        14.73302
405.76        14.60932
406.21        14.39869
406.66        14.17194
407.11        14.04276
407.55        14.04403
408.00        14.14026
408.45        14.28053
408.90        14.35388
409.34        14.33482
409.79        14.28831
410.24        14.23508
410.68        14.17049
411.13        14.10619
411.58        14.04764
412.03        13.99191
412.47        13.93182
412.92        13.86737
413.37        13.80938
413.81        13.75926
414.26        13.72717
414.71        13.70824
415.15        13.70378
415.60        13.69887
416.05        13.68652
416.49        13.66295
416.94        13.62912
417.39        13.59121
417.83        13.55961
418.28        13.53771
418.73        13.52186
419.17        13.50743
419.62        13.47946
420.07        13.44048
420.51        13.39359
420.96        13.35774
421.41        13.33989
421.85        13.33707
422.30        13.35057
422.74          13.374
423.19        13.41063
423.64        13.45389
424.08        13.50738
424.53        13.54058
424.98        13.52558
425.42        13.46113
425.87        13.36441
426.31         13.2584
426.76         13.1902
427.21        13.16521
427.65        13.16545
428.10        13.19864
428.54        13.27387
428.99        13.38354
429.44        13.54108
429.88        13.66539
430.33        13.64176
430.77        13.46527
431.22        13.19164
431.66        12.92288
432.11        12.84676
432.56        12.95262
433.00        13.13493
433.45        13.25885
433.89        13.10878
434.34        12.67519
434.78        12.68925
435.23        13.20806
435.67        13.41696
436.12        13.31307
436.57        13.32604
437.01        13.45632
437.46        13.47011
437.90        13.35842
438.35         13.2118
438.79        13.06958
439.24        12.95785
439.68        12.91523
440.13        13.02065
440.57         13.2077
441.02         13.3074
441.46        13.29367
441.91        13.16105
442.35        12.97911
442.80        13.07103
443.24        13.34275
443.69        13.26043
444.13        12.88536
444.58        12.76348
445.02        12.90646
445.47        13.02891
445.91        13.09359
446.36        13.17685
446.80        13.26432
447.24        13.33093
447.69        13.38201
448.13        13.42984
448.58        13.47568
449.02        13.51237
449.47        13.53465
449.91        13.52443
450.36        13.48568
450.80        13.42524
451.25        13.35677
451.69        13.29074
452.13        13.23415
452.58        13.18719
453.02        13.14839
453.47        13.12406
453.91        13.11186
454.36        13.11552
454.80        13.12254
455.24        13.10889
455.69          13.074
456.13        13.01531
456.58        12.96546
457.02        12.95673
457.46         12.9969
457.91        13.07339
458.35        13.14609
458.79        13.13183
459.24        13.02747
459.68        12.89457
460.13        12.80281
460.57        12.59499
461.01        12.65364
461.46         12.6781
461.90         12.7525
462.34        12.77715
462.79        12.80741
463.23        12.79728
463.68        12.78093
464.12        12.78115
464.56        12.80483
465.01        12.85894
465.45        12.90029
465.89        12.88746
466.34        12.82109
466.78        12.70949
467.22        12.59785
467.67        12.58581
468.11        12.63824
468.55        12.77712
468.99        12.93514
469.44         13.0329
469.88         13.0531
470.32        13.01308
470.77        12.95167
471.21        12.92959
471.65        12.96278
472.10          13.031
472.54        13.09879
472.98         13.1207
473.42        13.08963
473.87        13.03411
474.31        12.97139
474.75        12.93987
475.20         12.9534
475.64        12.98874
476.08        13.04038
476.52        13.13339
476.97        13.26736
477.41        13.37351
477.85        13.40289
478.29        13.65823
478.74        13.54614
479.18        13.52476
479.62        13.45997
480.06        13.50058
480.50        13.66426
480.95        13.65903
481.39        13.90751
481.83        13.95542
482.27        13.93619
482.72        13.87437
483.16        13.80912
483.60        13.82446
484.04        13.92604
484.48        14.03773
484.93        14.20771
485.37        14.46629
485.81        14.65339
486.25        14.93338
486.69        14.28984
487.14        13.93273
487.58         14.3624
488.02        15.06109
488.46        14.62063
488.90        15.12257
489.34        15.01132
489.79        15.05765
490.23        15.23212
490.67        15.45472
491.11        15.76427
491.55        15.87191
491.99        15.81064
492.43        15.85385
492.88        16.01294
493.32        16.10019
493.76        16.13093
494.20        16.24121
494.64        16.44423
495.08        16.68234
495.52        16.91351
495.96        17.13242
496.41        17.30636
496.85        17.30463
497.29        17.20211
497.73        17.33591
498.17        17.67927
498.61        17.83383
499.05        17.79965
499.49        17.89482
499.93        18.12344
500.37        18.30031
500.82        18.41463
501.26         18.5323
501.70        18.65285
502.14        18.75878
502.58        18.84235
503.02        18.89377
503.46        18.91729
503.90        18.92291
504.34         18.9412
504.78        19.01771
505.22        19.15949
505.66        19.35015
506.10        19.54993
506.54        19.69207
506.98        19.75646
507.42        19.76181
507.86        19.73332
508.30         19.7112
508.74        19.71257
509.18        19.73108
509.62        19.76459
510.06        19.80927
510.50         19.8634
510.94        19.92879
511.38        20.01066
511.82        20.11469
512.26        20.23429
512.70        20.35825
513.14        20.46181
513.58         20.5097
514.02         20.4962
514.46        20.43566
514.90        20.34969
515.34        20.27439
515.78        20.22562
516.22         20.1976
516.66        20.19361
517.10        20.21583
517.54        20.25983
517.98        20.32379
518.42        20.39079
518.86        20.43132
519.30        20.43668
519.74        20.41182
520.18        20.36668
520.62        20.32073
521.06        20.27963
521.50        20.23635
521.93        20.19292
522.37        20.14726
522.81        20.10247
523.25        20.06608
523.69        20.02918
524.13        19.97481
524.57        19.90378
525.01        19.82101
525.45        19.75254
525.89        19.74023
526.32         19.7867
526.76        19.87122
527.20        19.95622
527.64        19.98083
528.08        19.93109
528.52        19.83158
528.96        19.70416
529.40        19.58353
529.83        19.48215
530.27        19.39308
530.71        19.32946
531.15        19.31702
531.59        19.35293
532.03        19.42792
532.46        19.49549
532.90        19.48318
533.34        19.37971
533.78        19.19545
534.22        18.98248
534.66        18.85305
535.09        18.80895
535.53        18.76215
535.97        18.70181
536.41        18.67744
536.85        18.68432
537.28        18.69195
537.72        18.70015
538.16        18.72669
538.60        18.76967
539.04        18.81703
539.47        18.86734
539.91          18.933
540.35        19.00937
540.79        19.10447
541.22        19.20461
541.66        19.25762
542.10         19.3121
542.54        19.33866
542.97        19.37907
543.41        19.48769
543.85         19.6676
544.29        19.89931
544.72        20.14629
545.16        20.36182
545.60        20.52897
546.04        20.65991
546.47        20.76959
546.91        20.88706
547.35        21.02222
547.79        21.16147
548.22        21.28735
548.66        21.42061
549.10         21.5636
549.53        21.61798
549.97         21.7912
550.41        21.96709
550.84        22.20123
551.28        22.48138
551.72        22.76987
552.15        22.98312
552.59        23.11671
553.03        23.22315
553.46        23.31532
553.90        23.42829
554.34        23.57483
554.77        23.70876
555.21        23.80698
555.65        24.09199
556.08         24.1038
556.52        24.22477
556.96        24.32376
557.39        24.43479
557.83        24.56635
558.27        24.67373
558.70        24.75391
559.14        24.92392
559.57        24.95898
560.01         25.0823
560.45        25.18607
560.88        25.18537
561.32        25.13469
561.75        25.06153
562.19         25.0408
562.63        25.29343
563.06        25.71175
563.50        25.75424
563.93        25.47539
564.37        25.46327
564.80         25.7259
565.24        25.93906
565.68        26.06692
566.11        26.20903
566.55        26.36471
566.98        26.49412
567.42        26.61816
567.85        26.74827
568.29        26.89885
568.72         27.0523
569.16        27.22763
569.60        27.34861
570.03         27.3893
570.47        27.45306
570.90        27.80335
571.34        27.43782
571.77        27.88749
572.21        28.02115
572.64        28.24824
573.08        28.27406
573.51        28.72609
573.95        28.68488
574.38        28.63978
574.82        28.96471
575.25        28.97405
575.69        29.07849
576.12        29.03582
576.56        29.14492
576.99        29.31522
577.42        29.03781
577.86        29.04636
578.29        29.07063
578.73        29.12169
579.16        28.89646
579.60        28.59461
580.03        28.42517
580.47        28.60166
580.90        28.20522
581.33        28.53358
581.77        28.65786
582.20        28.43536
582.64        27.97381
583.07        28.00104
583.51        27.73101
583.94        27.53945
584.37        27.57759
584.81        27.77134
585.24        27.64328
585.68        27.31117
586.11        26.92909
586.54        27.10485
586.98        27.03161
587.41        26.89351
587.85        26.93541
588.28        26.83076
588.71        26.41612
589.15        26.80696
589.58        26.44693
590.01        26.54594
590.45        26.52367
590.88        26.62061
591.31        26.63895
591.75         26.5834
592.18        26.51143
592.61        26.41591
593.05        26.75214
593.48        26.72693
593.91        26.82081
594.35        26.87882
594.78        26.91149
595.21        26.97001
595.65        27.12512
596.08        27.32579
596.51        27.68768
596.94        27.65689
597.38        27.90868
597.81        28.29968
598.24        28.34568
598.68        28.91859
599.11        28.88658
599.54        29.68133
599.97        29.61845
600.41        29.91093
600.84         30.3471
601.27          30.667
601.70        31.08642
602.14        31.57102
602.57        31.97225
603.00        32.33514
603.43        32.57872
603.87        32.93535
604.30        33.52282
604.73        33.70626
605.16        34.05312
605.60        34.37061
606.03        34.98694
606.46        35.70465
606.89        36.01426
607.32        36.07933
607.76        36.29483
608.19        36.69394
608.62        37.36288
609.05        37.80116
609.48        38.01189
609.92        37.95016
610.35        38.51909
610.78        39.20457
611.21        39.72831
611.64        39.69376
612.07         39.9348
612.50        40.44406
612.94        40.40396
613.37         40.5661
613.80        41.03332
614.23        41.11078
614.66        41.64385
615.09        41.69535
615.52        41.88732
615.96        42.05875
616.39        42.35463
616.82         42.7584
617.25        43.13954
617.68        43.43088
618.11        43.54626
618.54        43.51043
618.97        43.49549
619.40        43.54813
619.84        43.65875
620.27        43.83096
620.70        44.29984
621.13         44.9306
621.56         44.9396
621.99        44.40429
622.42        44.76188
622.85         44.8238
623.28         44.9964
623.71        44.68154
624.14         45.0779
624.57        45.07431
625.00        45.17004
625.43        45.04618
625.86        44.89427
626.29         44.7584
626.72        44.39817
627.15        44.35544
627.58        44.15705
628.01        43.95851
628.44        43.83935
628.87        43.74733
629.30        43.47353
629.73        43.06531
630.16         42.7719
630.59        42.60142
631.02        42.42511
631.45        42.19842
631.88        41.90106
632.31        41.51998
632.74        41.06716
633.17        40.58906
633.60        40.15784
634.03        39.79286
634.46        39.47488
634.89        39.17232
635.32        38.83369
635.75          38.445
636.18        38.02466
636.61        37.59192
637.04        37.17368
637.47        36.78097
637.89        36.39976
638.32        36.00708
638.75        35.62745
639.18        35.27227
639.61        34.80144
640.04        34.50319
640.47        34.20043
640.90         33.9763
641.33        33.80934
641.76        33.66723
642.18        33.54318
642.61        33.42769
643.04        33.25385
643.47        33.01844
643.90        33.18316
644.33        33.04144
644.76        33.10579
645.18        33.16795
645.61        33.36367
646.04        33.63116
646.47        33.71159
646.90        33.65269
647.33        33.75839
647.75        34.05002
648.18         34.3519
648.61         34.6484
649.04        34.96656
649.47        35.29667
649.89        35.71969
650.32        36.19035
650.75        36.46414
651.18        36.61295
651.61        37.06508
652.03         37.8089
652.46        38.38609
652.89        38.75368
653.32        39.16677
653.74        39.72313
654.17        40.13792
654.60        40.65448
655.03        41.40172
655.46        41.19907
655.88         42.0539
656.31        46.75466
656.74        45.59747
657.16        42.25404
657.59        42.11386
658.02        43.63834
658.45        44.38338
658.87        45.04448
659.30         44.7788
659.73        45.33174
660.15         45.5936
660.58        46.12963
661.01        46.29364
661.44        46.23811
661.86        46.40466
662.29        46.82701
662.72        47.21741
663.14        47.55577
663.57         47.9557
664.00        48.34773
664.42        48.56733
664.85        48.60907
665.27        48.51057
665.70        48.37926
666.13        48.38812
666.55        48.58992
666.98         48.9313
667.41        49.34079
667.83        49.69487
668.26        49.93157
668.69         50.0812
669.11        50.18496
669.54        50.30489
669.96         50.4466
670.39        50.61468
670.82        50.75016
671.24        50.70279
671.67        50.53671
672.09        50.58231
672.52        50.82844
672.94        50.93815
673.37        50.90478
673.80        50.92043
674.22        51.00204
674.65        51.05663
675.07        51.09868
675.50        51.14587
675.92        51.21331
676.35        51.31593
676.77        51.45185
677.20        51.61697
677.62         51.8164
678.05         51.9893
678.47        52.09386
678.90        52.42825
679.32        52.37162
679.75         52.4884
680.17        52.59368
680.60        52.65813
681.02        52.70514
681.45        52.77595
681.87        52.88704
682.30        53.06662
682.72        53.26683
683.15        53.25023
683.57        53.06821
684.00        53.04198
684.42        53.18397
684.85        53.25837
685.27         53.2524
685.70        53.35399
686.12         53.5359
686.54         53.5977
686.97        53.56013
687.39        53.71288
687.82        53.99366
688.24        54.00463
688.66        53.79881
689.09        53.83326
689.51        54.11918
689.94        54.30082
690.36        54.36331
690.78        54.46532
691.21          54.634
691.63        54.82518
692.06        55.05963
692.48        55.43037
692.90        55.85058
693.33        56.08508
693.75        56.10295
694.17        55.95287
694.60        55.75203
695.02        55.69655
695.44        55.77354
695.87         55.8754
696.29        55.95998
696.71        55.77593
697.14        55.48258
697.56        55.82185
697.98        56.64783
698.41         56.9813
698.83        56.81076
699.25        56.85936
699.68        57.13206
700.10        57.26482
700.52        57.25388
700.94        57.21593
701.37        57.18026
701.79        57.36875
702.21        57.51212
702.64        57.62981
703.06         57.6502
703.48        57.62556
703.90        57.54464
704.33        57.74958
704.75        57.53872
705.17        57.59145
705.59        57.70006
706.01        57.84008
706.44         58.0144
706.86        58.22465
707.28        58.44052
707.70        58.76331
708.12        59.09639
708.55        59.01487
708.97        58.62608
709.39        58.59104
709.81        58.90097
710.23        58.98743
710.66        58.83443
711.08        58.80878
711.50         58.9198
711.92        59.02093
712.34        59.10804
712.76        59.22009
713.19        59.33093
713.61        59.43761
714.03        59.51556
714.45         59.5596
714.87        59.58754
715.29        59.63386
715.71         59.7071
716.13        59.80183
716.56        59.87966
716.98        59.95248
717.40         59.9897
717.82        59.99583
718.24         60.0074
718.66        60.08005
719.08        60.21955
719.50        60.41392
719.92         60.6019
720.34        60.66284
720.76        60.58721
721.19        60.45955
721.61        60.33736
722.03        60.25638
722.45        60.24979
722.87        60.34263
723.29        60.50531
723.71        60.64335
724.13        60.72296
724.55        60.79715
724.97        60.94243
725.39        60.98213
725.81        61.35633
726.23        61.74469
726.65        62.11229
727.07        62.02716
727.49        61.53555
727.91        61.08415
728.33        60.82065
728.75         60.6752
729.17        60.69623
729.59         61.0052
730.01         61.4711
730.43        61.75901
730.85        61.79485
731.27        61.69526
731.69        61.52771
732.10        61.39635
732.52        61.33911
732.94        61.29557
733.36        61.31297
733.78        61.43876
734.20         61.6619
734.62        62.10323
735.04        62.59882
735.46         62.5821
735.88        62.16185
736.30        62.07422
736.72        62.35456
737.13        62.54635
737.55        62.56332
737.97        62.53322
738.39        62.49761
738.81        62.55411
739.23        62.71815
739.65        62.91388
740.06        63.06025
740.48        63.16899
740.90        63.20731
741.32        63.20649
741.74        63.15115
742.16        63.02309
742.57        62.84164
742.99        62.60049
743.41        62.41534
743.83         62.4734
744.25        62.77682
744.67        63.21336
745.08        63.64529
745.50        63.82645
745.92        63.70587
746.34        63.33446
746.75        62.85303
747.17         62.5298
747.59        62.42343
748.01        62.47836
748.42         62.6378
748.84        62.77449
749.26        62.87029
749.68        62.94176
750.09         63.0099
750.51        63.21921
750.93        63.50015
751.35        63.54202
751.76        63.39041
752.18        63.38367
752.60        63.54957
753.01        63.71851
753.43        63.83233
753.85        63.92005
754.27        63.97477
754.68        63.99508
755.10        64.02119
755.52        64.10985
755.93        64.25352
756.35        64.41988
756.77         64.5765
757.18        64.60673
757.60         64.5063
758.02        64.48479
758.43        64.46909
758.85        64.08278
759.26        63.56503
759.68        63.42855
760.10        64.20357
760.51        64.62053
760.93        64.76949
761.34         64.2532
761.76        64.72744
762.18        64.33079
762.59         63.7727
763.01        63.89803
763.42        64.64299
763.84        64.91434
764.26        64.63113
764.67        64.27354
765.09        64.03114
765.50        64.10556
765.92        64.27532
766.33         64.4201
766.75        64.37334
767.16        64.31377
767.58        64.32613
768.00        64.54932
768.41        65.04349
768.83        65.91695
769.24        66.85616
769.66        67.07228
770.07        66.60291
770.49        66.00023
770.90        65.53843
771.32        65.62241
771.73        66.12734
772.15        66.21606
772.56        65.86407
772.97        65.69614
773.39        65.77211
773.80        65.86915
774.22        65.95728
774.63        66.18655
775.05        66.45174
775.46        66.56911
775.88         66.5078
776.29        66.44289
776.70        66.41186
777.12        66.41129
777.53        66.46183
777.95        66.54347
778.36        66.66044
778.77        66.70018
779.19         66.6417
779.60        66.74923
780.02        66.89561
780.43        66.44862
780.84        65.68385
781.26        65.51255
781.67          65.938
782.09        66.63403
782.50        67.29108
782.91        66.62471
783.33        65.87256
783.74        65.59042
784.15        66.17845
784.57        66.80617
784.98        67.33798
785.39        67.76693
785.81        68.06753
786.22        68.28485
786.63        68.74158
787.04        68.76488
787.46        68.50031
787.87        68.09822
788.28        67.74715
788.70        67.60377
789.11        67.68439
789.52         68.0459
789.93        68.49967
790.35        68.53654
790.76        68.18736
791.17        67.93747
791.58        67.86848
792.00        67.75676
792.41        67.64823
792.82        67.66557
793.23        67.76576
793.65        67.92006
794.06        68.04476
794.47        67.83867
794.88        67.45463
795.29        67.38535
795.71         67.6034
796.12        67.97339
796.53        68.35221
796.94        68.52243
797.35        68.42635
797.76        68.25698
798.18        68.12489
798.59        68.04895
799.00        68.07639
799.41        68.22493
799.82        68.45705
800.23        68.66864
800.64        68.82883
801.06        68.96686
801.47        69.07066
801.88        69.02416
802.29        68.81271
802.70        68.43604
803.11        68.06615
803.52        67.95322
803.93        68.14009
804.34        68.69288
804.75        69.36993
805.17        69.43575
805.58        69.04192
805.99        68.93993
806.40        69.19882
806.81        69.71852
807.22        70.19823
807.63        69.67693
808.04        68.40218
808.45        67.85593
808.86        68.18136
809.27        68.50699
809.68        68.70221
810.09        68.96721
810.50        69.23929
810.91        69.45532
811.32        69.57824
811.73        69.56053
812.14        69.40596
812.55        69.12807
812.96        68.84634
813.37        68.76859
813.78        68.94356
814.19        69.31438
814.60        69.74477
815.01        70.01701
815.42        70.07323
815.83        69.96883
816.24        69.77294
816.65        69.62347
817.05         69.5786
817.46        69.57042
817.87        69.58703
818.28        69.57158
818.69        69.50724
819.10        69.42081
819.51         69.3381
819.92        69.29607
820.33        69.30721
820.74        69.35492
821.14        69.40945
821.55        69.45692
821.96        69.48328
822.37        69.51357
822.78         69.5631
823.19         69.6545
823.60        69.79591
824.00        69.98573
824.41        70.19596
824.82        70.49181
825.23        70.85236
825.64        71.23316
826.04        71.55491
826.45        71.61298
826.86        71.39539
827.27        70.97562
827.68        70.42172
828.08        69.86814
828.49        69.35409
828.90        68.87372
829.31        68.53116
829.72        68.47228
830.12         68.7429
830.53        69.28458
830.94        69.89083
831.35        70.13444
831.75        69.92444
832.16        69.32533
832.57        68.69328
832.97        68.57541
833.38        69.06388
833.79        69.98174
834.20         70.9865
834.60        71.49107
835.01        71.31034
835.42        70.67237
835.82        69.84402
836.23        69.22814
836.64        68.96067
837.04        68.92342
837.45        69.04895
837.86        69.29015
838.26        69.59942
838.67        69.96631
839.08        70.29085
839.48        70.36823
839.89        70.15341
840.29        69.70712
840.70        69.17736
841.11         68.7762
841.51        68.58809
841.92        68.53664
842.33        68.62511
842.73        68.85355
843.14        69.14945
843.54           69.57
843.95        69.98347
844.35        70.23526
844.76        70.25681
845.17        70.07169
845.57        69.83159
845.98        69.78028
846.38        69.98811
846.79        70.37118
847.19        70.76849
847.60        70.81959
848.00        70.47308
848.41        69.83859
848.81        69.16508
849.22         68.8059
849.62        68.86214
850.03        69.19855
850.43         69.6591
850.84        69.83348
851.24        69.67372
851.65        69.27817
852.05        68.85534
852.46        68.70372
852.86        68.87834
853.27        69.25238
853.67        69.68737
854.07        70.18273
854.48        70.64742
854.88        71.20048
855.29        71.56018
855.69        71.46233
856.10        70.75871
856.50        69.63837
856.90        68.49313
857.31        67.89889
857.71        67.96682
858.12        68.49577
858.52        69.27513
858.92        69.68482
859.33        69.51108
859.73        68.99393
860.13        68.27388
860.54        67.59885
860.94        67.08107
861.34        66.62674
861.75        66.33397
862.15         66.4288
862.55        66.90504
862.96        67.68653
863.36        68.53582
863.76        68.96661
864.17        68.86107
864.57        68.36105
864.97        67.69132
865.38        67.24977
865.78        67.17934
866.18        67.33177
866.58        67.59489
866.99        67.76515
867.39        67.79854
867.79        67.79041
868.19        67.69791
868.60        67.40738
869.00        66.92346
869.40        66.25551
869.80        65.66919
870.21         65.6604
870.61        66.36201
871.01        67.53829
871.41        68.71714
871.81        69.18877
872.22         68.8012
872.62        67.78796
873.02        66.50941
873.42        65.56956
873.82        65.19537
874.22        65.24494
874.63        65.58236
875.03        65.98226
875.43        66.34891
875.83        66.73627
876.23        67.18517
876.63         67.7457
877.03        68.39283
877.44        69.03755
877.84        69.53094
878.24         69.6083
878.64        69.23576
879.04        68.52782
879.44        67.72728
879.84        67.19267
880.24        67.01682
880.64        67.11337
881.04        67.36101
881.44        67.53998
881.84        67.59116
882.24        67.60676
882.65        67.60069
883.05         67.6942
883.45        67.87414
883.85        68.06648
884.25        68.32145
884.65        68.74593
885.05        69.33568
885.45        70.05901
885.85        70.71703
886.25        70.96621
886.65        70.71973
887.05        70.06544
887.45          69.269
887.85        68.75133
888.25        68.62571
888.65        68.80275
889.04        69.05212
889.44        68.96519
889.84        68.47566
890.24        67.72463
890.64        66.99898
891.04        66.69857
891.44        66.90106
891.84        67.49737
892.24        68.18671
892.64        68.46118
893.04        68.20598
893.44        67.57941
893.83        66.95364
894.23        66.91587
894.63        67.54695
895.03        68.63976
895.43        69.80698
895.83        70.34298
896.23        70.06005
896.63        69.25724
897.02        68.21644
897.42        67.44149
897.82        67.02385
898.22        66.85458
898.62        66.95921
899.01        67.41823
899.41        68.14433
899.81        69.12629
900.21        70.19751
900.61        71.05256
901.00        71.56647
901.40        71.75609
901.80        71.63783
902.20        71.28192
902.59        70.76328
902.99        70.08797
903.39        69.41275
903.79        68.98634
904.18        68.85332
904.58         68.9814
904.98         69.2289
905.38        69.36328
905.77        69.31875
906.17        69.18943
906.57        68.99277
906.96        68.78013
907.36        68.57419
907.76        68.35884
908.15        68.25485
908.55        68.42044
908.95        68.87724
909.34        69.56952
909.74        70.26385
910.14        70.65101
910.53        70.63642
910.93         70.3159
911.33        69.82478
911.72        69.38188
912.12         69.0923
912.52        68.89451
912.91        68.76971
913.31        68.67973
913.70        68.61823
914.10        68.62045
914.49        68.69189
914.89        68.80572
915.29        68.95594
915.68        69.12659
916.08         69.3134
916.47        69.53658
916.87        69.78208
917.26        70.03414
917.66        70.25172
918.05        70.37517
918.45        70.39382
918.84        70.36812
919.24        70.32455
919.64        70.38863
920.03        70.59337
920.42        70.85143
920.82        71.13171
921.21        71.41716
921.61        71.64826
922.00        71.84817
922.40        71.87584
922.79        71.56622
923.19        70.91611
923.58        70.03644
923.98        69.14654
924.37        68.48216
924.77        68.13422
925.16         68.0425
925.55        68.16815
925.95        68.38348
926.34        68.64603
926.74        68.93748
927.13        69.33444
927.52        69.86369
927.92        70.49299
928.31        71.18901
928.70        71.79253
929.10        72.09422
929.49        72.06627
929.89        71.75216
930.28        71.32861
930.67        71.04942
931.07          70.976
931.46        71.03008
931.85        71.11845
932.24        71.08437
932.64        70.88731
933.03        70.65666
933.42        70.34898
933.82        69.90096
934.21        69.34355
934.60        68.67757
934.99        68.18346
935.39        68.26384
935.78        68.99826
936.17        70.29514
936.56        71.67371
936.96        72.24152
937.35        71.79381
937.74        70.54904
938.13          69.119
938.53        68.32802
938.92         68.3079
939.31        68.87771
939.70        69.63826
940.09        69.86324
940.49        69.37325
940.88        68.45222
941.27         67.5341
941.66        67.25806
942.05        67.75848
942.44        68.80661
942.84        70.04422
943.23        70.89713
943.62        71.09493
944.01           70.85
944.40        70.33463
944.79        69.82749
945.18        69.45894
945.57        69.11816
945.97        68.91142
946.36        69.12049
946.75        69.71661
947.14         70.6439
947.53        71.57284
947.92        71.88464
948.31        71.43529
948.70        70.44611
949.09        69.27965
949.48        68.48657
949.87        68.24519
950.26        68.41964
950.65        68.93437
951.04        69.64211
951.43         70.4033
951.82        71.17827
952.21        71.86802
952.60        72.34571
952.99        72.54839
953.38         72.4623
953.77        71.99667
954.16        71.04421
954.55        69.71034
954.94        68.19314
955.33        66.78152
955.72         65.8736
956.11        65.56957
956.50        65.72268
956.89        66.31337
957.28        67.29138
957.66        68.58352
958.05        70.06642
958.44        71.29752
958.83        71.44142
959.22        70.37598
959.61        68.44787
960.00        66.36233
960.39        65.13312
960.78        64.98562
961.16        65.64742
961.55        66.80257
961.94        68.00144
962.33        69.00134
962.72        69.93794
963.11        70.56542
963.49          70.464
963.88        69.56901
964.27        68.06288
964.66        66.45864
965.04        65.47964
965.43        65.25843
965.82        65.62572
966.21        66.32744
966.60        66.84202
966.98        66.97817
967.37        66.86907
967.76        66.63071
968.15        66.43663
968.53        66.35925
968.92        66.28955
969.31        66.23226
969.69        66.24548
970.08        66.28266
970.47        66.33569
970.86         66.3485
971.24        66.21799
971.63        65.89306
972.02        65.49152
972.40        65.00914
972.79        64.46839
973.17        63.93917
973.56        63.41157
973.95        63.09726
974.33        63.32565
974.72        64.07591
975.11        65.23102
975.49        66.52148
975.88        67.36395
976.26        67.59728
976.65        67.33066
977.04        66.67052
977.42        65.77556
977.81        64.76382
978.19         63.5629
978.58        62.79041
978.96        63.16335
979.35        64.73901
979.74        67.40356
980.12         70.4468
980.51        71.83538
980.89        71.13448
981.28        68.75019
981.66        65.79121
982.05        64.17047
982.43        64.38051
982.82        65.89729
983.20        68.21996
983.59         70.2711
983.97        71.70819
984.35        72.75593
984.74        73.31409
985.12        73.35838
985.51        72.91904
985.89        71.92613
986.28        70.74802
986.66        69.87358
987.04        69.54621
987.43        69.64023
987.81        69.96742
988.20        69.97867
988.58        69.56988
988.96        68.79595
989.35        67.95067
989.73        67.45025
990.12        67.35931
990.50        67.64087
990.88        67.84622
991.27        67.28723
991.65        65.94878
992.03        64.07591
992.42        62.41061
992.80        61.84763
993.18        62.67533
993.56        64.57085
993.95        66.81068
994.33         68.4308
994.71        68.87646
995.10           68.41
995.48        67.39101
995.86        66.44574
996.24        65.85436
996.63        65.46777
997.01        65.16351
997.39        64.74876
997.77        64.18913
998.15        63.59087
998.54        63.19536
998.92        63.39292
999.30        64.25806
999.68        65.64259
1000.06        67.09163
1000.45        67.79855
1000.83        67.64842
1001.21        66.76817
1001.59        65.55884
1001.97        64.76878
1002.35        64.65234
1002.73         64.9806
1003.12        65.58572
1003.50        66.11548
1003.88        66.45591
1004.26        66.76833
1004.64        66.94318
1005.02        66.77438
1005.40        66.28709
1005.78        65.51683
1006.16        64.80582
1006.54        64.79951
1006.92        65.59914
1007.30        66.91936
1007.69        68.26231
1008.07        69.04431
1008.45        68.97108
1008.83        68.30499
1009.21         67.1133
1009.59        65.50024
1009.97        63.68309
1010.35         61.7267
1010.73        60.18544
1011.11        60.02036
1011.49        61.49931
1011.86         64.5591
1012.24        68.42905
1012.62         71.9497
1013.00        74.52539
1013.38        76.24219
1013.76        77.10287
1014.14        77.39556
1014.52        77.23578
1014.90         76.3562
1015.28        74.96889
1015.66        73.63388
1016.04        72.64343
1016.41        72.11961
1016.79        71.65984
1017.17        70.50844
1017.55        68.39707
1017.93        65.07912
1018.31        61.16051
1018.69        59.29812
1019.06        60.67796
1019.44         63.9694
1019.82        66.89165
1020.20        67.52036
1020.58        65.87926
1020.95        62.34141
1021.33        57.94442
1021.71        55.60418
1022.09        57.05376
1022.46        61.39492
1022.84        67.00836
1023.22        71.85914
1023.60        75.19736
1023.97        77.54919
1024.35        78.46486
1024.73         77.2081
