SpectraSmart Spectrum 2.9.0.0
--------- Device Information -----------
Spectrum Name :  反射率_0
Saving Time :  2024/05/01 17:23:21
Spectro-Module Model Name : SE2030-DUVN
Spectro-Module Serial Number : OS361AC55029948
Wavelength Start : 200
Wavelength End : 1025
Wavelength Unit : Wavelength(nm)
Spectrum Unit : Reflectance(%)
-----------Spectrum Setting ------------
Integration Time : 20ms
Average : 10
Boxcar : 0
Background removal :  enabled
linearity correction :  enabled
SC :  disabled
Intensity correction :  disabled
DWT denoise :  enabled
savitzky-golay :  disabled
FFT :  disabled
Running average :  disabled
Kalman :  disabled
High pass :  disabled
---------------BEGIN--------------------
Wavelength(nm)             Reflectance(%)
200.29               0
200.75        305.1749
201.21         1154.23
201.67        -440.405
202.13       -153.0078
202.58       -67.58965
203.04       -20.52642
203.50        6.134714
203.96        14.39974
204.42        4.836955
204.88       -47.77397
205.34       -1509.845
205.80        270.9179
206.26        194.0835
206.72        186.9699
207.18        299.7714
207.64       -123.2737
208.10       -7.910137
208.55        7.674879
209.01        8.441042
209.47        7.071951
209.93        5.163861
210.39       0.3085139
210.85       -8.476443
211.31       -26.41202
211.77       -88.95943
212.23        393.8055
212.69        105.8191
213.14        104.2505
213.60        190.9986
214.06       -861.3683
214.52       -136.9366
214.98       -89.31208
215.44       -78.35212
215.90       -84.72123
216.36       -296.8084
216.81        43.40559
217.27        81.68297
217.73       -374.8023
218.19       -131.0376
218.65       -116.9971
219.11       -130.3492
219.57       -185.7543
220.02       -354.7352
220.48       -109.6032
220.94        -20.9543
221.40       -4.914511
221.86       0.2020597
222.32        4.276053
222.77        9.764096
223.23        17.50977
223.69        27.34397
224.15        32.72083
224.61        30.49648
225.06        25.30911
225.52        21.66053
225.98        21.34079
226.44        24.05047
226.90        29.44448
227.36        36.55555
227.81        40.15573
228.27        38.01931
228.73        33.58307
229.19        29.75882
229.65        27.96125
230.10        27.94307
230.56        29.38066
231.02        31.90417
231.48        34.24259
231.93        35.40323
232.39        35.77314
232.85        36.08522
233.31        37.19014
233.77        38.97057
234.22        40.98369
234.68         42.6107
235.14         43.2163
235.60        42.70115
236.05        41.15034
236.51        38.62311
236.97        36.39564
237.43        35.70031
237.88        36.48957
238.34        37.90223
238.80        38.84436
239.26        38.80915
239.71        38.17327
240.17        35.37854
240.63        27.15441
241.08        14.60769
241.54        2.584916
242.00       -4.833822
242.46       -6.674437
242.91       -3.086026
243.37        6.967594
243.83        29.92739
244.28        62.89709
244.74        81.02322
245.20        83.14468
245.66        78.31497
246.11        71.38046
246.57        62.00831
247.03        46.14161
247.48         18.3627
247.94        -18.2479
248.40       -48.32222
248.85       -65.70847
249.31       -62.57714
249.77       -41.79297
250.22       -15.92106
250.68        8.604588
251.14        25.40259
251.59        30.51989
252.05        24.14285
252.51       0.1014758
252.96       -60.32159
253.42        -136.788
253.88       -102.7116
254.33       -7.952302
254.79        41.44028
255.25         53.6072
255.70        50.72832
256.16        44.47439
256.62        39.93662
257.07         40.4551
257.53        44.55275
257.99        49.28637
258.44        53.06311
258.90        55.11597
259.35        55.39458
259.81        54.90203
260.27         53.9211
260.72        52.81617
261.18        52.00822
261.63        51.14379
262.09        50.36082
262.55        49.48625
263.00        48.43567
263.46        47.38307
263.91        46.32809
264.37        45.52473
264.83        44.91289
265.28        44.43394
265.74        43.93871
266.19        42.98657
266.65        41.67408
267.11        40.09213
267.56         38.6525
268.02         38.0849
268.47         38.4454
268.93        39.43165
269.38         40.5323
269.84        40.86386
270.30        40.22436
270.75        38.89481
271.21        37.24361
271.66        35.71457
272.12        34.53597
272.57        33.51794
273.03        32.72998
273.48        32.23026
273.94        32.00129
274.39        32.00512
274.85        32.04612
275.31        31.76532
275.76        31.10715
276.22        30.22561
276.67        29.28101
277.13        28.60504
277.58        28.19567
278.04        27.97855
278.49        27.79701
278.95        27.52824
279.40        27.09509
279.86        26.60539
280.31        26.07262
280.77        25.58932
281.22        25.14028
281.68        24.75171
282.13        24.37573
282.59        24.02787
283.04        23.68282
283.50        23.37941
283.95        23.13138
284.41        23.00711
284.86        22.98799
285.32        23.04447
285.77        23.11795
286.22        23.15968
286.68        23.15562
287.13        23.10669
287.59          23.001
288.04        22.78286
288.50        22.49189
288.95        22.12253
289.41        21.80157
289.86        21.63875
290.32        21.66815
290.77        21.84716
291.22        22.06986
291.68         22.1635
292.13        22.09788
292.59        21.95705
293.04        21.84089
293.50        21.95602
293.95        22.32342
294.40        22.87162
294.86        23.50265
295.31        24.07713
295.77        24.53817
296.22         24.9248
296.68        25.24349
297.13        25.49193
297.58        25.70245
298.04        25.89689
298.49        26.12196
298.95        26.49033
299.40        26.99904
299.85        27.60392
300.31        28.26674
300.76          28.927
301.21        29.55864
301.67        30.18703
302.12        30.72853
302.58        31.08083
303.03        31.22477
303.48        31.22043
303.94         31.2401
304.39        31.48055
304.84        31.99614
305.30        32.70649
305.75        33.46455
306.20        34.05624
306.66        34.41811
307.11         34.5853
307.57        34.63468
308.02        34.63056
308.47        34.61851
308.93        34.58799
309.38        34.50588
309.83         34.3764
310.29        34.21663
310.74        34.04207
311.19        33.89616
311.65        33.82236
312.10        33.82088
312.55        33.87518
313.00        33.95684
313.46        34.02119
313.91        34.04084
314.36        34.01692
314.82        33.94025
315.27        33.81446
315.72        33.63952
316.18        33.42516
316.63        33.16856
317.08        32.87451
317.53        32.54945
317.99        32.20056
318.44        31.85508
318.89        31.56864
319.35        31.35746
319.80        31.21361
320.25        31.09286
320.70        30.91604
321.16         30.6599
321.61        30.35109
322.06        30.04256
322.51        29.82885
322.97        29.72221
323.42         29.6971
323.87        29.67853
324.32        29.55582
324.78        29.29224
325.23        28.93146
325.68        28.52167
326.13        28.14675
326.59        27.82775
327.04        27.55871
327.49        27.30399
327.94        27.01383
328.39        26.67747
328.85        26.30876
329.30        25.96372
329.75        25.70237
330.20        25.54053
330.66        25.44905
331.11        25.38784
331.56        25.26299
332.01        25.04937
332.46        24.77288
332.92        24.46677
333.37        24.21774
333.82         24.0442
334.27        23.93132
334.72        23.86311
335.17         23.8136
335.63        23.75942
336.08        23.71446
336.53        23.68446
336.98        23.68833
337.43        23.72285
337.88        23.78171
338.34        23.79708
338.79        23.67693
339.24        23.40547
339.69        23.01586
340.14        22.63103
340.59        22.44561
341.05        22.48863
341.50        22.70221
341.95        22.95141
342.40         23.0141
342.85        22.83908
343.30        22.51431
343.75        22.13256
344.20         21.8358
344.66        21.67544
345.11        21.59156
345.56        21.59889
346.01        21.71806
346.46        21.92535
346.91        22.20868
347.36        22.46044
347.81        22.51546
348.26        22.34828
348.72        22.01197
349.17        21.60594
349.62        21.33525
350.07        21.25018
350.52        21.29085
350.97        21.37167
351.42        21.34627
351.87        21.18273
352.32        20.95286
352.77        20.69983
353.22        20.48447
353.67        20.33037
354.13        20.20833
354.58        20.14034
355.03         20.1959
355.48        20.37031
355.93        20.65136
356.38        20.91387
356.83        20.94474
357.28        20.71112
357.73         20.2865
358.18        19.84934
358.63        19.66942
359.08        19.79392
359.53        20.12761
359.98        20.52562
360.43        20.73909
360.88        20.69068
361.33        20.46924
361.78        20.14598
362.23        19.82199
362.68        19.54025
363.13        19.26656
363.58        19.03351
364.03        18.90286
364.48        18.87626
364.93         18.9378
365.38        19.01661
365.83        18.99277
366.28        18.83814
366.73          18.588
367.18         18.2895
367.63        18.02695
368.08        17.83801
368.53         17.7054
368.98        17.62277
369.43        17.58017
369.88        17.56154
370.33        17.55634
370.78        17.55785
371.23        17.55182
371.68        17.52489
372.13        17.48069
372.58        17.37341
373.03        17.13364
373.48        16.76635
373.93        16.30634
374.38        15.86621
374.83         15.6326
375.28        15.64913
375.72        15.85279
376.17        16.13368
376.62        16.31932
377.07        16.35354
377.52        16.27606
377.97        16.12527
378.42        15.96513
378.87        15.82254
379.32        15.68275
379.77        15.53495
380.22        15.36617
380.67        15.18007
381.11        14.99371
381.56        14.84604
382.01        14.79698
382.46         14.8538
382.91        14.99233
383.36        15.14247
383.81        15.20043
384.26        15.13809
384.71        14.97449
385.15        14.76768
385.60         14.6295
386.05        14.58103
386.50        14.59921
386.95        14.61409
387.40        14.51874
387.85        14.30516
388.29        14.00811
388.74        13.75241
389.19        13.66119
389.64        13.74928
390.09        13.96041
390.54        14.19547
390.98         14.2957
391.43        14.22709
391.88        14.05283
392.33        13.84064
392.78        13.69217
393.23        13.63186
393.67        13.59742
394.12        13.59289
394.57        13.63721
395.02        13.69981
395.47        13.69831
395.91        13.63262
396.36        13.57018
396.81        13.52302
397.26        13.44561
397.71        13.35783
398.15        13.32482
398.60        13.36471
399.05        13.39572
399.50        13.40989
399.95         13.4961
400.39        13.60348
400.84        13.49979
401.29        13.21283
401.74         13.0087
402.18         12.9173
402.63        12.79318
403.08        12.65991
403.53         12.6107
403.97         12.6451
404.42        12.74095
404.87        12.83785
405.32        12.83619
405.76        12.71591
406.21        12.51468
406.66        12.30383
407.11        12.20016
407.55        12.23451
408.00        12.37095
408.45        12.54714
408.90        12.63459
409.34         12.6029
409.79        12.51784
410.24        12.41814
410.68        12.32929
411.13        12.26958
411.58        12.23829
412.03        12.21728
412.47        12.17321
412.92          12.099
413.37        12.01018
413.81        11.93178
414.26        11.90744
414.71        11.93807
415.15        12.01654
415.60        12.09216
416.05        12.09691
416.49        12.01452
416.94        11.86407
417.39        11.70567
417.83        11.63555
418.28        11.67345
418.73        11.78738
419.17         11.9127
419.62        11.93794
420.07        11.84544
420.51        11.67529
420.96        11.49621
421.41        11.39231
421.85        11.38094
422.30        11.43293
422.74        11.51955
423.19        11.61067
423.64        11.68738
424.08        11.76499
424.53        11.80918
424.98        11.78045
425.42        11.67929
425.87        11.52733
426.31        11.36514
426.76        11.27015
427.21        11.25506
427.65         11.2928
428.10        11.38317
428.54        11.51844
428.99        11.67937
429.44         11.8819
429.88        12.03678
430.33        12.01692
430.77        11.81851
431.22        11.49757
431.66        11.17775
432.11          11.077
432.56        11.19872
433.00        11.45615
433.45        11.68804
433.89        11.57582
434.34        11.11452
434.78        11.06971
435.23        11.49975
435.67        11.63626
436.12          11.488
436.57        11.47168
437.01        11.58159
437.46        11.58476
437.90        11.47023
438.35        11.32635
438.79        11.19501
439.24         11.1089
439.68        11.10119
440.13        11.23377
440.57        11.43295
441.02        11.52664
441.46        11.48754
441.91        11.31945
442.35        11.10665
442.80        11.15782
443.24         11.3976
443.69        11.36346
444.13        11.08151
444.58        10.98197
445.02        11.06845
445.47        11.10718
445.91        11.09741
446.36         11.1515
446.80        11.26455
447.24        11.39645
447.69        11.51685
448.13        11.58312
448.58        11.58434
449.02        11.53488
449.47        11.45629
449.91        11.37328
450.36        11.30304
450.80         11.2399
451.25        11.18909
451.69        11.14944
452.13        11.12114
452.58        11.10804
453.02        11.10421
453.47        11.10649
453.91        11.11072
454.36        11.11996
454.80        11.12626
455.24        11.11477
455.69        11.08653
456.13        11.03681
456.58        10.99501
457.02        10.99072
457.46        11.03045
457.91        11.10379
458.35        11.17028
458.79        11.14857
459.24        11.03597
459.68        10.88828
460.13        10.77673
460.57        10.58526
461.01        10.64048
461.46        10.68621
461.90        10.78181
462.34        10.82257
462.79        10.85015
463.23         10.8285
463.68        10.80365
464.12        10.82225
464.56         10.8922
465.01        11.00661
465.45        11.10156
465.89        11.10375
466.34        11.01038
466.78        10.84165
467.22        10.66421
467.67        10.61212
468.11        10.66921
468.55          10.838
468.99        11.03756
469.44        11.16285
469.88         11.1878
470.32        11.13883
470.77          11.057
471.21        11.00527
471.65        11.00527
472.10        11.03752
472.54        11.07646
472.98        11.09212
473.42        11.07885
473.87        11.05733
474.31        11.03855
474.75        11.04832
475.20        11.09367
475.64        11.15579
476.08        11.22337
476.52        11.29972
476.97        11.38228
477.41        11.43414
477.85        11.43375
478.29        11.58308
478.74        11.52406
479.18        11.52679
479.62        11.50472
480.06        11.55952
480.50        11.69916
480.95        11.67491
481.39        11.85918
481.83        11.88132
482.27         11.8607
482.72        11.82029
483.16        11.77585
483.60        11.77081
484.04        11.79604
484.48        11.81833
484.93         11.9346
485.37        12.16525
485.81        12.34186
486.25        12.96627
486.69        12.17004
487.14        11.93217
487.58        12.50753
488.02        12.67605
488.46         12.7414
488.90        12.80448
489.34        12.57391
489.79         12.5917
490.23        12.91057
490.67        13.19861
491.11        13.42117
491.55        13.43906
491.99        13.30454
492.43        13.30544
492.88        13.46455
493.32        13.57665
493.76        13.63225
494.20        13.73661
494.64        13.89548
495.08        14.06373
495.52        14.22353
495.96        14.40213
496.41        14.57861
496.85        14.62535
497.29        14.59304
497.73        14.75962
498.17        15.09188
498.61         15.2347
499.05        15.18678
499.49        15.23691
499.93        15.39194
500.37        15.48439
500.82        15.51928
501.26        15.57972
501.70        15.67194
502.14        15.77557
502.58        15.87221
503.02        15.93286
503.46         15.9549
503.90        15.95225
504.34        15.95737
504.78        16.01959
505.22        16.14824
505.66        16.32565
506.10        16.51312
506.54        16.64676
506.98         16.7077
507.42        16.71418
507.86        16.69359
508.30        16.68912
508.74        16.71645
509.18        16.76624
509.62        16.82774
510.06        16.88362
510.50        16.92803
510.94        16.96575
511.38        17.00924
511.82        17.07626
512.26        17.16575
512.70        17.26672
513.14        17.35137
513.58        17.37855
514.02        17.34214
514.46        17.25849
514.90        17.15864
515.34        17.09302
515.78        17.07751
516.22         17.0988
516.66        17.14178
517.10         17.1809
517.54        17.20598
517.98        17.22402
518.42        17.23456
518.86         17.2358
519.30        17.22841
519.74        17.21064
520.18        17.18484
520.62        17.15744
521.06        17.13037
521.50        17.10214
521.93        17.07684
522.37        17.05533
522.81        17.03974
523.25         17.0317
523.69        17.02208
524.13        16.99538
524.57        16.95113
525.01        16.89487
525.45         16.8435
525.89        16.82448
526.32        16.84056
526.76        16.87692
527.20        16.91558
527.64         16.9269
528.08        16.90289
528.52        16.85746
528.96        16.79167
529.40         16.7076
529.83        16.60944
530.27        16.49935
530.71        16.40278
531.15        16.36501
531.59        16.38905
532.03        16.45872
532.46        16.52497
532.90        16.50991
533.34        16.40224
533.78        16.22205
534.22        16.01905
534.66        15.89483
535.09        15.85489
535.53        15.82116
535.97         15.7939
536.41        15.83044
536.85        15.92457
537.28        16.04182
537.72        16.15418
538.16        16.23425
538.60        16.27006
539.04        16.26231
539.47        16.23538
539.91        16.24075
540.35         16.2863
540.79         16.3702
541.22        16.46369
541.66        16.49421
542.10        16.49757
542.54        16.45841
542.97         16.4346
543.41        16.50451
543.85        16.67724
544.29        16.92819
544.72        17.19596
545.16        17.39467
545.60        17.50118
546.04        17.53611
546.47        17.55404
546.91        17.64839
547.35        17.83774
547.79        18.08574
548.22        18.31796
548.66        18.46385
549.10        18.51019
549.53        18.40228
549.97        18.37686
550.41        18.43126
550.84        18.63759
551.28        18.95482
551.72        19.30318
552.15        19.53427
552.59        19.62369
553.03        19.64487
553.46         19.6385
553.90        19.67796
554.34        19.78626
554.77        19.90594
555.21        20.00806
555.65        20.26721
556.08        20.28974
556.52        20.40338
556.96        20.49105
557.39        20.56903
557.83        20.64444
558.27        20.68307
558.70        20.69783
559.14        20.81294
559.57        20.84633
560.01        20.97663
560.45         21.0987
560.88        21.11759
561.32         21.0724
561.75        20.99276
562.19        20.94922
562.63        21.13905
563.06        21.47477
563.50        21.50008
563.93        21.25707
564.37        21.22434
564.80        21.40599
565.24        21.55204
565.68        21.64276
566.11        21.70074
566.55        21.84643
566.98        21.95218
567.42        22.06699
567.85        22.19566
568.29        22.34893
568.72        22.50159
569.16        22.65828
569.60        22.80365
570.03        22.92654
570.47        22.99511
570.90        23.18822
571.34        23.17604
571.77        23.33336
572.21        23.40743
572.64        23.52485
573.08        23.56975
573.51        24.01891
573.95        24.09274
574.38        23.96835
574.82        24.12033
575.25        24.08102
575.69         24.2573
576.12        24.10992
576.56        24.47614
576.99         24.5619
577.42        24.51986
577.86        24.54214
578.29        24.41577
578.73        24.37998
579.16        24.09802
579.60        23.88655
580.03        23.79249
580.47        23.98876
580.90        23.63152
581.33        24.02685
581.77        24.04051
582.20        23.90084
582.64        23.64876
583.07        23.58846
583.51        23.41597
583.94        23.32178
584.37        23.31863
584.81        23.36862
585.24        23.30184
585.68         23.1513
586.11         22.8616
586.54         22.7999
586.98        22.65782
587.41        22.51803
587.85        22.73583
588.28        22.67636
588.71        22.32039
589.15        22.73093
589.58        22.29933
590.01         22.4478
590.45        22.31727
590.88        22.25737
591.31        22.23785
591.75        22.28276
592.18        22.30752
592.61        22.22385
593.05        22.59193
593.48        22.55482
593.91        22.30806
594.35        22.63841
594.78        22.73466
595.21        22.87587
595.65        22.88498
596.08        22.81351
596.51        23.08884
596.94        23.19905
597.38        23.46627
597.81        23.77696
598.24        23.60311
598.68        24.03007
599.11        24.26752
599.54        24.73993
599.97        24.67317
600.41        25.05235
600.84        25.33935
601.27         25.5817
601.70        26.00963
602.14        26.35596
602.57        26.62618
603.00        26.78502
603.43        26.98183
603.87        27.42182
604.30          27.738
604.73        28.02494
605.16         28.2938
605.60        28.67325
606.03        29.08566
606.46        29.46287
606.89        29.65373
607.32        29.78761
607.76        29.98719
608.19        30.28421
608.62        30.86522
609.05        31.27281
609.48        31.47045
609.92          31.456
610.35        31.52657
610.78        32.30128
611.21        32.73809
611.64        32.56595
612.07        33.05555
612.50        33.21839
612.94        33.44129
613.37        33.46502
613.80        33.79222
614.23        33.83784
614.66        34.25017
615.09        34.31983
615.52        34.52932
615.96        34.73029
616.39        35.01804
616.82        35.36507
617.25         35.6116
617.68        35.77371
618.11        35.85649
618.54        35.89123
618.97        35.90203
619.40        35.93926
619.84        35.98862
620.27        36.06768
620.70         36.3252
621.13        36.72196
621.56        36.59368
621.99        36.74169
622.42        36.77782
622.85        36.75124
623.28        37.01692
623.71        36.89404
624.14        37.03901
624.57        37.22226
625.00        37.29524
625.43        37.23372
625.86        37.16648
626.29        37.11202
626.72        36.82573
627.15        36.74627
627.58        36.46128
628.01        36.15419
628.44        36.08243
628.87        36.17193
629.30        35.98137
629.73        35.54238
630.16        35.27246
630.59        35.18009
631.02        35.02477
631.45        34.78531
631.88        34.54041
632.31        34.28592
632.74        34.00086
633.17        33.69397
633.60        33.37885
634.03        33.06003
634.46        32.73962
634.89        32.41688
635.32        32.08907
635.75        31.75823
636.18         31.4282
636.61        31.10278
637.04        30.78452
637.47        30.47498
637.89        30.16891
638.32        29.84883
638.75        29.53576
639.18         29.2405
639.61        28.84598
640.04        28.59022
640.47        28.32741
640.90        28.12645
641.33        27.96721
641.76        27.82994
642.18        27.72008
642.61        27.63013
643.04        27.50272
643.47        27.31603
643.90        27.42016
644.33        27.22869
644.76        27.17852
645.18         27.1262
645.61         27.2313
646.04        27.45069
646.47        27.54992
646.90        27.55113
647.33        27.67447
647.75        27.92975
648.18        28.19149
648.61         28.4192
649.04         28.6123
649.47        28.76794
649.89        28.89211
650.32        29.03655
650.75         29.3009
651.18        29.68148
651.61        30.16603
652.03        30.69714
652.46        31.06216
652.89         31.2876
653.32        31.59806
653.74        32.03698
654.17        32.55782
654.60        32.59546
655.03        33.18231
655.46        33.51213
655.88         34.0124
656.31        38.27518
656.74        37.39826
657.16        35.00143
657.59        34.63939
658.02        35.64548
658.45        36.00845
658.87        36.33014
659.30        35.96949
659.73        36.19317
660.15        37.10572
660.58        36.86249
661.01         37.0919
661.44        37.21669
661.86        37.38144
662.29        37.61929
662.72        38.05517
663.14        38.61982
663.57        38.89566
664.00        38.89393
664.42        38.98045
664.85        39.17672
665.27        39.24498
665.70        39.22347
666.13        39.28597
666.55        39.46042
666.98        39.70324
667.41        39.97648
667.83        40.21154
668.26        40.37021
668.69        40.46866
669.11        40.55489
669.54        40.68957
669.96        40.87306
670.39        41.13754
670.82         41.4085
671.24        41.37428
671.67        41.12699
672.09        41.17914
672.52        41.51249
672.94        41.64624
673.37        41.57333
673.80        41.57372
674.22        41.67225
674.65        41.74784
675.07        41.81022
675.50        41.89214
675.92        41.99681
676.35        42.10136
676.77        42.20051
677.20        42.36137
677.62        42.44571
678.05        42.57458
678.47        42.70238
678.90        42.83926
679.32        42.94886
679.75        42.99338
680.17        42.96671
680.60        42.88046
681.02        42.80611
681.45        42.83419
681.87         42.9882
682.30        43.27804
682.72        43.61348
683.15         43.7103
683.57        43.58976
684.00        43.55017
684.42        43.62819
684.85        43.67082
685.27        43.68283
685.70        43.77994
686.12        43.92821
686.54        44.01148
686.97        44.00969
687.39        44.01875
687.82        44.03724
688.24         43.9543
688.66        43.83803
689.09        43.96144
689.51        44.29437
689.94        44.50772
690.36        44.58034
690.78        44.67614
691.21        44.83142
691.63        45.02661
692.06        45.26456
692.48         45.5617
692.90        45.84483
693.33        45.97509
693.75        45.93749
694.17        45.74482
694.60        45.50102
695.02        45.41986
695.44        45.50215
695.87         45.5761
696.29        45.62162
696.71         45.6311
697.14        45.65464
697.56          45.887
697.98        46.25867
698.41        46.45752
698.83        46.45531
699.25        46.41722
699.68        46.38419
700.10        46.39941
700.52        46.48026
700.94        46.58177
701.37        46.68361
701.79        46.84254
702.21        46.99457
702.64         47.0243
703.06        46.95258
703.48        46.86275
703.90        46.75957
704.33        46.90128
704.75        46.71455
705.17        46.75004
705.59        46.83974
706.01         46.9739
706.44        47.13033
706.86        47.29611
707.28        47.45009
707.70        47.58947
708.12        47.69907
708.55        47.74657
708.97        47.73145
709.39        47.67799
709.81        47.61628
710.23        47.59647
710.66        47.63463
711.08        47.72686
711.50        47.84872
711.92        47.96865
712.34        48.07471
712.76        48.17736
713.19        48.25419
713.61        48.30291
714.03        48.30897
714.45        48.27317
714.87        48.23476
715.29        48.25662
715.71        48.34913
716.13        48.49749
716.56        48.63595
716.98        48.71206
717.40        48.68568
717.82        48.58303
718.24        48.46317
718.66        48.41988
719.08        48.47624
719.50        48.60373
719.92        48.75423
720.34        48.84808
720.76        48.86189
721.19        48.82631
721.61        48.79151
722.03        48.77369
722.45        48.78005
722.87         48.9041
723.29        49.15136
723.71        48.95694
724.13        49.21649
724.55        49.19908
724.97        49.19603
725.39        49.21444
725.81        49.26563
726.23        49.33561
726.65        49.37302
727.07         49.3219
727.49         49.1786
727.91        48.97242
728.33        48.78569
728.75        48.74547
729.17        48.87696
729.59        49.13909
730.01        49.45086
730.43        49.67014
730.85        49.75272
731.27        49.74294
731.69        49.68512
732.10        49.65138
732.52        49.66698
732.94        49.70226
733.36        49.76291
733.78        49.83954
734.20        49.91663
734.62         50.0677
735.04        50.25303
735.46        50.21536
735.88        50.02297
736.30        50.15235
736.72        50.53954
737.13        50.61461
737.55        50.30417
737.97        50.29998
738.39        49.90704
738.81        50.03931
739.23        50.41603
739.65        50.65669
740.06        50.65979
740.48        50.70938
740.90        50.77853
741.32        50.68574
741.74        50.47676
742.16        50.34416
742.57        50.32525
742.99        50.37115
743.41        50.47149
743.83        50.55608
744.25        50.63004
744.67        50.81696
745.08        51.05924
745.50        51.09832
745.92        50.92264
746.34        50.63823
746.75         50.3376
747.17        50.16336
747.59        50.14351
748.01         50.2473
748.42         50.4173
748.84        50.53637
749.26        50.57965
749.68        50.55923
750.09        50.51175
750.51        50.56399
750.93        50.69901
751.35        50.75216
751.76         50.7459
752.18        50.83772
752.60        51.03163
753.01         51.2535
753.43        51.43471
753.85        51.53152
754.27        51.53215
754.68        51.45814
755.10        51.36892
755.52        51.35441
755.93        51.42883
756.35        51.55156
756.77        51.70107
757.18         51.8055
757.60        51.84846
758.02        51.92677
758.43        52.09459
758.85         51.8532
759.26         51.4142
759.68        51.44559
760.10        51.87891
760.51        52.17667
760.93        52.25205
761.34        51.55538
761.76        51.66673
762.18        51.24184
762.59        50.92245
763.01        51.21022
763.42        52.00953
763.84        52.40669
764.26        52.29084
764.67        52.09437
765.09         51.9469
765.50        51.82822
765.92        51.78595
766.33         51.6666
766.75        51.66263
767.16        51.56437
767.58          51.491
768.00        51.62075
768.41        51.98153
768.83        52.54948
769.24        53.14816
769.66        53.34036
770.07        53.14402
770.49        52.93719
770.90         52.8193
771.32        52.79354
771.73        52.82412
772.15         52.7193
772.56        52.48642
772.97        52.29638
773.39        52.18798
773.80        52.17028
774.22        52.22926
774.63        52.40046
775.05        52.60633
775.46        52.76353
775.88        52.82265
776.29        52.82379
776.70        52.79541
777.12         52.8074
777.53        52.88769
777.95        52.98629
778.36        53.08501
778.77        53.12275
779.19         53.0866
779.60        53.05531
780.02        53.01675
780.43         52.8542
780.84        52.64966
781.26        52.58853
781.67        52.67258
782.09        52.88013
782.50        53.07858
782.91        52.85209
783.33        52.34767
783.74        52.27294
784.15        52.68461
784.57        53.14971
784.98        53.58773
785.39        53.99754
785.81        54.31592
786.22         54.4285
786.63        54.61171
787.04        54.42771
787.46        54.07773
787.87        53.84078
788.28        53.81248
788.70        53.84778
789.11         53.9394
789.52        54.26897
789.93        54.69732
790.35        54.75684
790.76        54.62729
791.17        54.20472
791.58         53.7424
792.00        53.50552
792.41        53.57203
792.82        53.89825
793.23        54.29593
793.65        54.39355
794.06        54.15099
794.47        53.79699
794.88        53.51796
795.29        53.40946
795.71        53.45684
796.12        53.86611
796.53        54.44554
796.94        54.44255
797.35        53.88849
797.76         53.7073
798.18        53.97147
798.59        54.05903
799.00        53.98828
799.41        54.14048
799.82        54.47334
800.23        54.70149
800.64        54.78117
801.06        54.78295
801.47        54.73615
801.88        54.61934
802.29        54.44907
802.70         54.2151
803.11         53.9892
803.52         53.8958
803.93        53.96889
804.34        54.18551
804.75         54.4498
805.17         54.6426
805.58        54.75702
805.99        54.60392
806.40        54.30162
806.81        54.51769
807.22        55.07276
807.63        54.85176
808.04        53.97415
808.45        53.60654
808.86        53.83647
809.27         54.0139
809.68        54.06805
810.09        54.18504
810.50        54.33733
810.91        54.47422
811.32        54.57737
811.73        54.61955
812.14        54.59949
812.55        54.52697
812.96        54.45502
813.37        54.47271
813.78        54.59864
814.19        54.80544
814.60        55.02969
815.01        55.17107
815.42        55.20467
815.83        55.15855
816.24        55.06192
816.65        54.97442
817.05        54.92448
817.46        54.87194
817.87        54.83372
818.28        54.80203
818.69        54.76986
819.10        54.74569
819.51        54.71455
819.92        54.64652
820.33        54.53986
820.74        54.40493
821.14        54.26954
821.55        54.19653
821.96        54.19109
822.37        54.25534
822.78        54.36198
823.19         54.4569
823.60        54.52496
824.00        54.58702
824.41        54.66235
824.82        54.86758
825.23        55.20775
825.64        55.63205
826.04        56.04097
826.45        56.21594
826.86        56.12457
827.27        55.83104
827.68        55.42794
828.08        55.08703
828.49        54.84597
828.90        54.67712
829.31        54.58784
829.72        54.57791
830.12        54.66101
830.53        54.82366
830.94        55.00171
831.35        55.03423
831.75        54.90625
832.16         54.6221
832.57        54.35952
832.97        54.38662
833.38         54.7325
833.79        55.29822
834.20        55.89751
834.60        56.21145
835.01        56.13161
835.42        55.78382
835.82        55.28122
836.23        54.79139
836.64        54.39432
837.04          54.056
837.45          53.821
837.86        53.81036
838.26        54.03863
838.67        54.45069
839.08        54.91125
839.48        55.16389
839.89        55.13139
840.29        54.88048
840.70        54.53231
841.11        54.25705
841.51        54.12543
841.92         54.0623
842.33        54.07383
842.73        54.17471
843.14         54.3108
843.54        54.53233
843.95        54.74678
844.35        54.83996
844.76        54.76555
845.17         54.5433
845.57        54.29167
845.98         54.1917
846.38        54.29844
846.79        54.55764
847.19        54.83572
847.60        54.84785
848.00        54.55076
848.41        54.01644
848.81        53.47463
849.22        53.24842
849.62        53.42419
850.03        53.89384
850.43        54.44414
850.84        54.60297
851.24        54.29497
851.65        53.63091
852.05        52.93679
852.46        52.73219
852.86        53.11021
853.27        53.87014
853.67        54.68089
854.07        55.23282
854.48        55.40402
854.88        55.35896
855.29        55.07331
855.69        54.73922
856.10        54.38677
856.50        54.03414
856.90         53.7325
857.31        53.57449
857.71        53.56993
858.12        53.65357
858.52        53.83179
858.92         53.9421
859.33        53.91887
859.73        53.84028
860.13        53.63226
860.54        53.21189
860.94        52.60695
861.34        51.85472
861.75        51.18158
862.15        51.00004
862.55        51.38797
862.96        52.19456
863.36        53.16908
863.76        53.82304
864.17        54.00426
864.57        53.84452
864.97        53.48144
865.38         53.1637
865.78        52.99977
866.18        52.89718
866.58         52.8159
866.99        52.70357
867.39        52.57634
867.79        52.48835
868.19        52.44036
868.60        52.38507
869.00        52.31129
869.40        52.21731
869.80        52.17779
870.21        52.33022
870.61         52.7173
871.01        53.22716
871.41        53.66585
871.81        53.75263
872.22        53.43534
872.62        52.81567
873.02        52.07116
873.42         51.4959
873.82        51.20978
874.22        51.16654
874.63        51.30011
875.03          51.494
875.43        51.69947
875.83        51.93244
876.23        52.23605
876.63        52.67503
877.03         53.2313
877.44        53.83643
877.84        54.34472
878.24        54.49065
878.64        54.23255
879.04        53.67198
879.44        53.02679
879.84        52.62601
880.24         52.5475
880.64        52.69658
881.04        52.95314
881.44        53.10783
881.84        53.09911
882.24        53.01143
882.65        52.84829
883.05        52.69682
883.45        52.56499
883.85        52.41032
884.25        52.32091
884.65          52.439
885.05        52.76961
885.45        53.28338
885.85        53.78555
886.25        53.93212
886.65        53.65013
887.05        53.04692
887.45        52.38591
887.85        52.08569
888.25        52.24455
888.65        52.73156
889.04        53.33544
889.44         53.6802
889.84        53.66916
890.24        53.41584
890.64        53.06488
891.04        52.81768
891.44        52.73944
891.84        52.78466
892.24        52.86864
892.64           52.86
893.04         52.7331
893.44        52.52861
893.83        52.39072
894.23        52.54378
894.63        52.99603
895.03        53.66492
895.43        54.30415
895.83        54.47484
896.23        54.08532
896.63        53.31848
897.02        52.42752
897.42        51.85774
897.82        51.66654
898.22        51.76358
898.62        52.05121
899.01        52.37636
899.41         52.6334
899.81        52.88461
900.21        53.17111
900.61        53.55402
901.00        54.02132
901.40        54.49486
901.80        54.86612
902.20        54.99521
902.59        54.86914
902.99        54.54855
903.39        54.14104
903.79        53.81997
904.18        53.62848
904.58        53.52517
904.98        53.49302
905.38        53.50611
905.77        53.54051
906.17        53.64837
906.57        53.70793
906.96        53.52696
907.36        53.08123
907.76        52.43429
908.15        51.87316
908.55        51.82643
908.95        52.38231
909.34        53.40282
909.74        54.50382
910.14        55.12181
910.53        55.09161
910.93        54.58334
911.33        53.85741
911.72        53.33126
912.12        53.15459
912.52        53.18785
912.91        53.30199
913.31        53.29248
913.70        53.10727
914.10        52.85383
914.49        52.61419
914.89        52.47083
915.29         52.4574
915.68        52.51846
916.08         52.6545
916.47        52.88223
916.87        53.17776
917.26        53.53318
917.66        53.84902
918.05        53.98374
918.45        53.90918
918.84        53.68392
919.24        53.42236
919.64        53.38062
920.03         53.6354
920.42        54.09536
920.82        54.60352
921.21        54.96493
921.61        55.09401
922.00        55.03535
922.40        54.85693
922.79        54.72333
923.19        54.66846
923.58        54.65194
923.98        54.54469
924.37        54.13564
924.77        53.42952
925.16        52.50286
925.55        51.59347
925.95        51.08805
926.34        51.11197
926.74        51.53059
927.13        52.20202
927.52        52.79922
927.92        53.19046
928.31        53.45538
928.70        53.60297
929.10         53.6806
929.49        53.72445
929.89        53.70187
930.28        53.61746
930.67        53.47154
931.07        53.26966
931.46        53.00808
931.85        52.78994
932.24        52.77154
932.64         52.9579
933.03        53.34174
933.42        53.66774
933.82        53.54921
934.21        52.95149
934.60        52.00527
934.99        51.09715
935.39         50.7951
935.78        51.24132
936.17        52.28935
936.56        53.55386
936.96        54.30229
937.35        54.31398
937.74        53.74988
938.13        52.97842
938.53        52.50118
938.92        52.40634
939.31         52.5752
939.70        52.78858
940.09        52.67238
940.49        52.16116
940.88        51.44477
941.27        50.79229
941.66         50.5831
942.05        50.88821
942.44        51.55967
942.84        52.38375
943.23        53.00167
943.62        53.22631
944.01        53.16377
944.40        52.84755
944.79         52.3464
945.18        51.73733
945.57        51.01038
945.97        50.32462
946.36        50.02536
946.75        50.14714
947.14         50.6424
947.53          51.299
947.92        51.70452
948.31        51.73378
948.70        51.49422
949.09        51.19435
949.48        51.16575
949.87         51.4939
950.26        52.07653
950.65        52.74467
951.04        53.21363
951.43        53.37405
951.82        53.27753
952.21        53.07929
952.60        53.02406
952.99        53.14342
953.38        53.34852
953.77        53.42638
954.16        53.01053
954.55        52.08533
954.94        50.89613
955.33        49.71712
955.72        48.94412
956.11        48.67925
956.50        48.73336
956.89        49.14117
957.28         49.9594
957.66        51.14571
958.05        52.62273
958.44        53.85869
958.83        53.85933
959.22        52.48605
959.61        50.12752
960.00        47.72015
960.39        46.60464
960.78        47.03646
961.16        48.64932
961.55        50.76686
961.94         52.3137
962.33        52.88774
962.72        52.76777
963.11         52.1788
963.49        51.58518
963.88        51.16129
964.27        50.75823
964.66        50.35063
965.04        49.92781
965.43        49.46386
965.82        49.02955
966.21        48.65579
966.60        48.35036
966.98        48.14367
967.37        48.04388
967.76        48.02882
968.15        48.05881
968.53        48.11884
968.92        48.18122
969.31        48.30153
969.69        48.58744
970.08        49.01965
970.47        49.56204
970.86        50.04712
971.24        50.18896
971.63        49.88867
972.02        49.26135
972.40        48.52242
972.79        48.01789
973.17        47.86951
973.56        47.97673
973.95        48.21984
974.33        48.39893
974.72        48.40854
975.11        48.26269
975.49          48.139
975.88        48.39048
976.26        49.12091
976.65        50.17999
977.04        51.08577
977.42        51.06225
977.81        49.98276
978.19        48.09037
978.58        46.36242
978.96        46.05437
979.35        47.38445
979.74        50.04258
980.12        53.21271
980.51        54.74054
980.89        54.08987
981.28        51.81937
981.66        48.95119
982.05           47.26
982.43        47.20815
982.82        48.23983
983.20        50.09127
983.59        52.15795
983.97        54.14654
984.35        56.14937
984.74        57.56565
985.12        57.56973
985.51          56.064
985.89        53.26972
986.28         50.1636
986.66         48.1963
987.04        47.89051
987.43        48.88473
987.81        50.55854
988.20        51.62883
988.58        51.70444
988.96        51.03205
989.35        50.15444
989.73        49.89809
990.12        50.42614
990.50        51.50856
990.88        52.44866
991.27        52.18248
991.65        50.63622
992.03        48.26315
992.42         46.0549
992.80        45.27353
993.18         46.3017
993.56        48.67045
993.95        51.62386
994.33        54.07945
994.71        55.37994
995.10        55.81599
995.48         55.4318
995.86        54.37578
996.24        52.89648
996.63        51.00677
997.01        49.14038
997.39        47.90719
997.77        47.42749
998.15         47.6112
998.54        48.25193
998.92        48.85378
999.30         49.2103
999.68        49.39555
1000.06        49.38574
1000.45        49.13548
1000.83        48.76729
1001.21         48.2422
1001.59        47.60142
1001.97        46.96993
1002.35        46.42585
1002.73        45.93843
1003.12        45.75806
1003.50        46.19046
1003.88        47.22112
1004.26        48.70042
1004.64        50.03667
1005.02        50.34588
1005.40        49.52475
1005.78        47.87033
1006.16        46.01309
1006.54        45.12486
1006.92        45.52694
1007.30        46.75479
1007.69        48.34473
1008.07        49.73519
1008.45        50.56952
1008.83        51.14819
1009.21        51.13334
1009.59        49.94292
1009.97        47.63467
1010.35        44.35538
1010.73        41.28362
1011.11        40.51893
1011.49        42.67875
1011.86        47.53032
1012.24        53.52982
1012.62        57.88926
1013.00        59.47248
1013.38        58.69013
1013.76        56.77815
1014.14        56.27965
1014.52        57.97274
1014.90        60.95549
1015.28        63.93208
1015.66        64.62174
1016.04        62.69328
1016.41        59.60838
1016.79        56.37094
1017.17        53.63524
1017.55         51.3004
1017.93        48.64009
1018.31        46.21188
1018.69        46.07224
1019.06        48.66187
1019.44        52.75509
1019.82        55.89571
1020.20        56.00794
1020.58          53.138
1020.95        47.36823
1021.33        40.12606
1021.71        35.78485
1022.09        36.97277
1022.46        42.66884
1022.84        50.00615
1023.22        54.82451
1023.60        55.98333
1023.97        54.66223
1024.35        51.86673
1024.73         49.4187
