SpectraSmart Spectrum 2.9.0.0
--------- Device Information -----------
Spectrum Name :  反射率_0
Saving Time :  2024/05/01 17:12:56
Spectro-Module Model Name : SE2030-DUVN
Spectro-Module Serial Number : OS361AC55029948
Wavelength Start : 200
Wavelength End : 1025
Wavelength Unit : Wavelength(nm)
Spectrum Unit : Reflectance(%)
-----------Spectrum Setting ------------
Integration Time : 20ms
Average : 10
Boxcar : 0
Background removal :  enabled
linearity correction :  enabled
SC :  disabled
Intensity correction :  disabled
DWT denoise :  enabled
savitzky-golay :  disabled
FFT :  disabled
Running average :  disabled
Kalman :  disabled
High pass :  disabled
---------------BEGIN--------------------
Wavelength(nm)             Reflectance(%)
200.29               0
200.75        78.37852
201.21        507.1891
201.67       -236.3039
202.13       -74.48269
202.58       -11.56849
203.04        30.24515
203.50         58.4536
203.96        74.39181
204.42        83.72822
204.88        94.72997
205.34        324.7845
205.80        24.36049
206.26        8.289459
206.72       -52.02622
207.18       -387.3075
207.64        600.2278
208.10        262.0387
208.55        184.7227
209.01        147.0413
209.47        121.5261
209.93        101.1969
210.39         80.7601
210.85        64.89232
211.31        65.16111
211.77        115.6886
212.23       -388.1266
212.69       -93.52438
213.14       -80.12473
213.60        -116.218
214.06        389.6785
214.52        48.57176
214.98        35.06186
215.44        50.08564
215.90        116.9953
216.36        1198.178
216.81       -477.8708
217.27       -607.9858
217.73        1229.377
218.19         250.868
218.65        190.0362
219.11        240.9144
219.57        479.5051
220.02        1520.409
220.48         853.683
220.94        300.9918
221.40        157.7559
221.86         110.757
222.32         100.953
222.77         110.496
223.23        136.0358
223.69        172.8528
224.15        189.7459
224.61         174.689
225.06        148.9252
225.52        131.4686
225.98        128.5213
226.44        138.3393
226.90        159.5711
227.36        187.9429
227.81        201.8726
228.27        192.6609
228.73        174.2137
229.19        159.3537
229.65        155.2449
230.10        160.7191
230.56        173.1649
231.02        188.9884
231.48        196.9632
231.93        191.9695
232.39        181.3223
232.85        169.6125
233.31        160.4729
233.77        154.5564
234.22        150.2213
234.68        148.4797
235.14        150.6654
235.60        157.2475
236.05        170.0928
236.51        188.6626
236.97         206.153
237.43        214.0658
237.88        209.8169
238.34        198.0061
238.80        190.0148
239.26        189.0814
239.71        195.4613
240.17        205.2353
240.63        203.5101
241.08        180.3479
241.54         146.561
242.00        120.5246
242.46        112.2571
242.91        121.9045
243.37        151.9347
243.83        204.3556
244.28        234.4986
244.74        206.7615
245.20        161.9552
245.66        127.7787
246.11        108.5555
246.57        97.77462
247.03        88.60647
247.48        76.93857
247.94        58.92459
248.40        38.32238
248.85         22.7878
249.31         18.7681
249.77        25.20992
250.22        36.25056
250.68        47.81248
251.14        57.44135
251.59        65.09901
252.05        73.36237
252.51        87.23024
252.96        120.9068
253.42        194.1818
253.88        241.3818
254.33        213.7425
254.79        181.5115
255.25        162.5603
255.70        150.6108
256.16        143.3672
256.62        137.8939
257.07        132.7195
257.53        129.3377
257.99        127.2369
258.44        126.5907
258.90        128.7912
259.35        132.5645
259.81        137.5557
260.27           142.2
260.72        144.4738
261.18         144.694
261.63         143.086
262.09        140.9963
262.55        138.8576
263.00        136.6388
263.46         134.641
263.91        132.4932
264.37        130.6385
264.83        128.9417
265.28         127.393
265.74         126.174
266.19        124.8543
266.65        123.6281
267.11         122.395
267.56        121.3975
268.02        121.2105
268.47        121.7595
268.93        122.7948
269.38        123.7192
269.84        123.5798
270.30        122.1813
270.75         119.801
271.21        117.0259
271.66        114.5397
272.12        112.6461
272.57        111.0168
273.03        109.5825
273.48        108.0567
273.94        106.4712
274.39        104.8772
274.85        103.3321
275.31        101.6233
275.76        99.72995
276.22        97.87563
276.67        96.10668
277.13        94.84583
277.58        93.93884
278.04        93.30936
278.49        92.69676
278.95        91.99575
279.40        91.02004
279.86        89.96596
280.31        88.62302
280.77        87.00007
281.22        85.01622
281.68        82.88982
282.13         80.7681
282.59        79.11796
283.04        77.89842
283.50        77.09417
283.95        76.41599
284.41        75.57447
284.86        74.46467
285.32        73.26923
285.77        72.14026
286.22        71.42609
286.68        71.13898
287.13        71.08309
287.59        71.03233
288.04        70.57556
288.50        69.69595
288.95        68.49245
289.41        67.24007
289.86        66.12232
290.32        65.27591
290.77        64.58175
291.22        64.01781
291.68        63.52635
292.13        63.05427
292.59        62.65823
293.04        62.31059
293.50         62.0417
293.95        61.81754
294.40        61.63206
294.86        61.44542
295.31        61.21211
295.77         60.9308
296.22         60.5939
296.68        60.26458
297.13        59.98087
297.58        59.77787
298.04        59.67499
298.49        59.59408
298.95        59.47441
299.40        59.27928
299.85        59.02634
300.31        58.85131
300.76        58.91327
301.21        59.23053
301.67        59.74387
302.12         60.1971
302.58        60.24848
303.03        59.81867
303.48        59.07574
303.94        58.34843
304.39        57.98988
304.84        58.10593
305.30        58.55009
305.75        59.08896
306.20         59.4077
306.66        59.42626
307.11        59.20832
307.57        58.88865
308.02        58.56734
308.47        58.31325
308.93        58.10041
309.38        57.86249
309.83        57.57866
310.29        57.26231
310.74        56.92875
311.19        56.64783
311.65        56.49817
312.10        56.47511
312.55        56.54855
313.00         56.6526
313.46        56.68586
313.91        56.60709
314.36        56.43386
314.82        56.19114
315.27        55.94503
315.72        55.70905
316.18        55.47993
316.63        55.21819
317.08        54.89056
317.53        54.49466
317.99        54.05392
318.44        53.61402
318.89        53.25119
319.35        52.99265
319.80        52.82538
320.25        52.71023
320.70        52.58052
321.16        52.40553
321.61        52.20648
322.06        52.01233
322.51        51.88136
322.97        51.80885
323.42        51.78594
323.87        51.73891
324.32        51.56797
324.78        51.24821
325.23        50.83529
325.68        50.39447
326.13        50.03979
326.59        49.79507
327.04        49.65432
327.49        49.57026
327.94        49.47581
328.39        49.34373
328.85        49.17337
329.30        49.01205
329.75        48.87179
330.20         48.7605
330.66        48.65637
331.11        48.55788
331.56        48.40889
332.01        48.20696
332.46        47.97225
332.92        47.74879
333.37        47.66016
333.82        47.71638
334.27        47.89413
334.72        48.12861
335.17        48.30455
335.63        48.36607
336.08        48.35904
336.53        48.31826
336.98         48.3311
337.43        48.42125
337.88        48.56418
338.34        48.69014
338.79        48.72248
339.24        48.62932
339.69        48.44165
340.14        48.25291
340.59        48.20626
341.05        48.32144
341.50        48.56139
341.95        48.81345
342.40        48.89614
342.85        48.77405
343.30        48.52089
343.75        48.24286
344.20        48.10283
344.66        48.14323
345.11        48.29469
345.56        48.52044
346.01        48.75362
346.46        48.95312
346.91        49.13993
347.36        49.25998
347.81        49.23024
348.26        49.05338
348.72        48.76493
349.17        48.45224
349.62        48.30559
350.07        48.36053
350.52        48.55533
350.97        48.78825
351.42        48.88393
351.87        48.79857
352.32        48.60577
352.77        48.33937
353.22        48.05488
353.67        47.77976
354.13        47.49041
354.58        47.23717
355.03        47.15584
355.48        47.25398
355.93        47.51542
356.38        47.75208
356.83        47.64451
357.28        47.14845
357.73         46.3783
358.18        45.61964
358.63         45.2955
359.08        45.47642
359.53        46.01777
359.98        46.65694
360.43        46.95036
360.88        46.76578
361.33        46.24441
361.78        45.57265
362.23        45.02118
362.68        44.66946
363.13        44.43618
363.58        44.24502
364.03        43.98662
364.48        43.63134
364.93        43.22512
365.38        42.84016
365.83        42.56772
366.28        42.42051
366.73        42.36764
367.18        42.30095
367.63        42.05487
368.08        41.60925
368.53        41.02748
368.98          40.461
369.43        40.13121
369.88        40.07351
370.33        40.21121
370.78         40.4039
371.23        40.40592
371.68        40.14597
372.13        39.71186
372.58        39.20465
373.03        38.77179
373.48        38.45687
373.93        38.20519
374.38        38.00874
374.83        37.86087
375.28        37.74812
375.72        37.67967
376.17        37.61033
376.62        37.44456
377.07         37.1709
377.52        36.81166
377.97        36.44703
378.42        36.21019
378.87        36.12408
379.32        36.14085
379.77        36.17826
380.22        36.10841
380.67         35.9018
381.11        35.60803
381.56         35.2761
382.01        34.99624
382.46        34.80371
382.91        34.67143
383.36        34.58602
383.81         34.5283
384.26        34.48038
384.71        34.44166
385.15        34.38826
385.60        34.30616
386.05        34.18222
386.50        34.02557
386.95        33.83617
387.40        33.62018
387.85        33.39184
388.29         33.1349
388.74        32.92862
389.19        32.79362
389.64         32.7284
390.09        32.71161
390.54        32.70423
390.98         32.6374
391.43        32.51322
391.88        32.35365
392.33        32.17696
392.78        32.02187
393.23        31.90253
393.67        31.75888
394.12        31.63494
394.57        31.62901
395.02        31.69307
395.47        31.60028
395.91        31.39765
396.36        31.34029
396.81        31.44828
397.26        31.58946
397.71        31.67928
398.15        31.66752
398.60        31.57994
399.05        31.31382
399.50        31.00103
399.95        31.05373
400.39        31.39701
400.84        31.42758
401.29        31.12374
401.74        30.95497
402.18        30.93435
402.63        30.75615
403.08        30.47653
403.53        30.32106
403.97        30.30493
404.42        30.36986
404.87        30.43929
405.32        30.39561
405.76        30.21073
406.21        29.93734
406.66        29.65371
407.11        29.48168
407.55        29.45674
408.00        29.53932
408.45        29.66149
408.90        29.66246
409.34        29.52056
409.79        29.35901
410.24        29.21458
410.68        29.07051
411.13        28.94802
411.58        28.86825
412.03        28.82411
412.47         28.7922
412.92        28.76093
413.37        28.74526
413.81         28.7465
414.26        28.78857
414.71        28.86037
415.15        28.95618
415.60        29.03586
416.05        29.06313
416.49         29.0274
416.94        28.93739
417.39        28.81966
417.83        28.71566
418.28        28.64026
418.73         28.5833
419.17        28.53824
419.62        28.48808
420.07        28.43282
420.51        28.37832
420.96        28.34217
421.41        28.31385
421.85        28.28423
422.30        28.26645
422.74        28.26297
423.19        28.30962
423.64        28.39999
424.08         28.5348
424.53         28.6514
424.98        28.68278
425.42        28.61912
425.87        28.48367
426.31        28.32865
426.76        28.24537
427.21        28.24518
427.65        28.28962
428.10        28.36638
428.54        28.44827
428.99        28.53229
429.44        28.66812
429.88        28.75051
430.33        28.63917
430.77        28.34059
431.22         27.9454
431.66        27.60313
432.11        27.61814
432.56        27.92717
433.00        28.24874
433.45        28.39438
433.89        28.19302
434.34        27.46051
434.78        27.83462
435.23         28.2234
435.67        28.47868
436.12        28.27218
436.57        28.19366
437.01        28.27145
437.46        28.25457
437.90         28.1554
438.35        28.08571
438.79        28.03822
439.24         27.9237
439.68        27.78682
440.13        27.83975
440.57        28.03741
441.02        28.14124
441.46        28.12051
441.91        28.05682
442.35        27.95973
442.80        28.02207
443.24        28.16397
443.69        28.02987
444.13        27.67914
444.58         27.5305
445.02        27.59149
445.47        27.65588
445.91        27.70214
446.36        27.79312
446.80         27.9106
447.24        28.03499
447.69        28.13831
448.13        28.17448
448.58        28.14018
449.02        28.04061
449.47        27.91962
449.91        27.82907
450.36        27.79228
450.80        27.78949
451.25        27.79672
451.69         27.7558
452.13        27.65984
452.58        27.53384
453.02        27.40482
453.47        27.32979
453.91        27.31761
454.36        27.35835
454.80        27.41864
455.24        27.44734
455.69         27.4374
456.13        27.38723
456.58        27.34605
457.02         27.3524
457.46         27.4194
457.91        27.53133
458.35        27.63501
458.79        27.60851
459.24        27.44984
459.68        27.27392
460.13         27.1904
460.57         26.8225
461.01        26.96639
461.46         27.0011
461.90        27.12016
462.34        27.14716
462.79        27.21164
463.23        27.21127
463.68        27.20193
464.12        27.21064
464.56        27.24424
465.01        27.32525
465.45        27.38815
465.89        27.39082
466.34        27.33366
466.78        27.22432
467.22        27.10168
467.67        27.08057
468.11        27.06978
468.55        27.14537
468.99        27.24383
469.44        27.31956
469.88        27.36195
470.32        27.37748
470.77        27.38251
471.21        27.40388
471.65        27.44375
472.10        27.49614
472.54        27.53148
472.98        27.52068
473.42        27.46367
473.87        27.38618
474.31        27.30457
474.75        27.27111
475.20          27.302
475.64        27.36107
476.08        27.42221
476.52        27.51406
476.97        27.63789
477.41        27.65433
477.85        27.50815
478.29        27.88831
478.74        27.59635
479.18        27.55825
479.62        27.45357
480.06        27.50473
480.50        27.73496
480.95        27.58614
481.39        27.95661
481.83          28.002
482.27         27.9975
482.72        27.95754
483.16        27.92187
483.60        27.95691
484.04        28.06249
484.48        28.16455
484.93        28.35186
485.37        28.58742
485.81        28.77927
486.25        28.99603
486.69        28.63624
487.14        27.86823
487.58         28.1297
488.02        29.11471
488.46        28.73167
488.90        28.68761
489.34        28.67839
489.79        28.28621
490.23        28.84894
490.67        29.08208
491.11        29.29302
491.55        29.29969
491.99          29.163
492.43        29.18853
492.88        29.38502
493.32        29.54116
493.76        29.62511
494.20        29.73138
494.64        29.86512
495.08        29.96696
495.52        30.04253
495.96        30.20099
496.41        30.41351
496.85        30.44795
497.29        30.35643
497.73        30.52025
498.17        30.89859
498.61        31.03458
499.05        30.93734
499.49        30.98237
499.93        31.17886
500.37        31.31569
500.82        31.38899
501.26        31.48586
501.70        31.60624
502.14        31.72949
502.58         31.8332
503.02        31.88245
503.46        31.87598
503.90        31.83067
504.34         31.7918
504.78        31.82917
505.22        31.95762
505.66        32.15577
506.10        32.37163
506.54        32.51803
506.98         32.5703
507.42        32.55378
507.86         32.5087
508.30        32.49789
508.74        32.54093
509.18        32.62074
509.62        32.71463
510.06        32.78687
510.50         32.8261
510.94         32.8423
511.38        32.85658
511.82        32.90042
512.26        32.97665
512.70        33.07038
513.14        33.14767
513.58        33.15756
514.02        33.09221
514.46         32.9726
514.90        32.83683
515.34        32.74622
515.78        32.72011
516.22        32.74255
516.66         32.7938
517.10        32.84026
517.54        32.87019
517.98        32.89448
518.42        32.91594
518.86        32.93757
519.30        32.96089
519.74         32.9799
520.18        32.99564
520.62        33.01435
521.06        33.03452
521.50         33.0507
521.93         33.0599
522.37        33.05054
522.81         33.0231
523.25        32.98436
523.69        32.92906
524.13        32.84779
524.57        32.74618
525.01        32.63227
525.45        32.53301
525.89        32.48964
526.32        32.50735
526.76        32.56881
527.20        32.64454
527.64        32.68663
528.08         32.6803
528.52         32.6417
528.96        32.57796
529.40        32.50167
529.83        32.41814
530.27        32.33096
530.71        32.25641
531.15        32.22934
531.59        32.25266
532.03        32.31408
532.46        32.37615
532.90        32.38573
533.34        32.33207
533.78        32.20962
534.22         32.0519
534.66        31.96536
535.09        31.93419
535.53        31.83181
535.97        31.67671
536.41        31.61189
536.85        31.64536
537.28        31.70437
537.72        31.76904
538.16        31.83735
538.60        31.89722
539.04        31.94244
539.47        31.98051
539.91        32.04393
540.35        32.12893
540.79        32.24187
541.22        32.35822
541.66         32.3922
542.10        32.42234
542.54        32.39761
542.97        32.38294
543.41        32.45789
543.85         32.6287
544.29         32.8706
544.72         33.1259
545.16        33.32257
545.60        33.43572
546.04        33.48473
546.47        33.50982
546.91        33.58317
547.35        33.72358
547.79        33.89823
548.22        34.05068
548.66        34.17016
549.10        34.24936
549.53        34.14729
549.97        34.21099
550.41        34.29262
550.84        34.49475
551.28        34.78992
551.72         35.1177
552.15        35.34492
552.59        35.46102
553.03        35.54745
553.46        35.61745
553.90        35.71259
554.34        35.84667
554.77        35.94826
555.21         35.9818
555.65        36.28514
556.08        36.17003
556.52        36.21834
556.96        36.23874
557.39        36.28798
557.83        36.38169
558.27        36.45359
558.70        36.50483
559.14        36.71577
559.57        36.75453
560.01        36.94374
560.45        37.11091
560.88        37.10973
561.32        37.01308
561.75        36.86497
562.19        36.78347
562.63        37.10032
563.06        37.66005
563.50        37.67323
563.93        37.21287
564.37        37.11469
564.80        37.38838
565.24        37.57906
565.68        37.64523
566.11        37.73577
566.55        37.85961
566.98        37.96863
567.42        38.09501
567.85        38.24839
568.29         38.4446
568.72         38.6506
569.16        38.88007
569.60        39.03588
570.03        39.08701
570.47        39.12659
570.90        39.50399
571.34        39.05875
571.77        39.45631
572.21        39.50617
572.64        39.75071
573.08        39.71399
573.51        40.14174
573.95        40.77242
574.38        40.30205
574.82        40.36126
575.25        40.54317
575.69        40.56202
576.12        40.48824
576.56        40.41912
576.99        40.91912
577.42        40.87211
577.86        40.82047
578.29        40.91816
578.73        41.00937
579.16         40.6571
579.60        40.17628
580.03          39.974
580.47         40.3299
580.90        39.69144
581.33        40.34899
581.77        40.40091
582.20        40.49015
582.64        40.42745
583.07        39.94418
583.51        39.73676
583.94        39.86031
584.37        39.93304
584.81        39.91798
585.24        39.82178
585.68        39.65051
586.11        39.63141
586.54        39.57538
586.98        39.14395
587.41        38.77172
587.85        39.20472
588.28        39.38883
588.71        38.58065
589.15        39.30597
589.58        38.71879
590.01        38.88251
590.45        38.75163
590.88        38.74334
591.31        38.80479
591.75        38.87948
592.18        38.86543
592.61         38.7127
593.05        38.87513
593.48        38.74287
593.91        38.81353
594.35         38.8441
594.78        39.07246
595.21        39.37645
595.65        39.60994
596.08        39.30235
596.51        39.49259
596.94        39.60848
597.38        39.81687
597.81        40.00603
598.24        39.88801
598.68        40.74571
599.11        40.42001
599.54        41.17031
599.97        41.33559
600.41        41.67523
600.84        41.92579
601.27        42.29078
601.70        42.80761
602.14        43.17105
602.57        43.40005
603.00        43.46361
603.43        43.60619
603.87        44.15465
604.30        44.48255
604.73        44.72108
605.16        44.99503
605.60        45.36443
606.03        45.87185
606.46        46.33871
606.89        46.69853
607.32        46.62322
607.76        46.81821
608.19        47.18459
608.62        47.91034
609.05        48.32555
609.48        48.56379
609.92        48.55708
610.35        48.68626
610.78        49.45068
611.21        49.83631
611.64        49.90738
612.07        50.35012
612.50        50.73177
612.94        50.82881
613.37        50.96035
613.80        51.04806
614.23        51.09984
614.66        51.55159
615.09        51.56002
615.52        51.82807
615.96        52.09938
616.39        52.46708
616.82        52.87781
617.25        53.08634
617.68        53.17029
618.11        53.28861
618.54        53.45699
618.97        53.48504
619.40        53.48264
619.84        53.57106
620.27        53.74312
620.70        54.35059
621.13         55.3035
621.56        54.64692
621.99        54.42911
622.42        54.74296
622.85        54.81404
623.28        54.96201
623.71        54.84519
624.14        55.02157
624.57        55.30709
625.00        55.41943
625.43        55.29345
625.86        55.14512
626.29        55.02024
626.72        54.60045
627.15        54.54361
627.58        54.25922
628.01        53.98206
628.44        53.94703
628.87        54.07368
629.30        53.92948
629.73        53.54316
630.16        53.32088
630.59          53.265
631.02        53.14415
631.45        52.92694
631.88        52.65657
632.31        52.32476
632.74        51.99658
633.17        51.57269
633.60         51.2189
634.03         50.9081
634.46        50.63258
634.89        50.36198
635.32        50.04565
635.75         49.6744
636.18        49.26833
636.61        48.84975
637.04        48.45144
637.47        48.08754
637.89        47.73908
638.32        47.38508
638.75        47.07003
639.18        46.80548
639.61        46.39702
640.04        46.19659
640.47        45.92245
640.90        45.67714
641.33        45.44188
641.76        45.21323
642.18        45.04974
642.61        44.95462
643.04        44.82044
643.47        44.59705
643.90        44.83304
644.33        44.55896
644.76        44.49437
645.18        44.40578
645.61        44.54896
646.04        44.85795
646.47        44.95671
646.90        44.87604
647.33        44.96912
647.75         45.2478
648.18        45.49908
648.61        45.70198
649.04        45.89823
649.47        46.08427
649.89         46.3344
650.32         46.6332
650.75        46.80678
651.18         46.9265
651.61        47.38304
652.03        48.15047
652.46        48.67382
652.89        48.90364
653.32        49.29656
653.74        50.01007
654.17        50.07914
654.60        50.51971
655.03        51.27896
655.46        51.19348
655.88        51.50491
656.31        57.49148
656.74         56.9425
657.16        52.54804
657.59        51.99502
658.02          53.577
658.45        53.82635
658.87        54.31153
659.30        53.94164
659.73        54.44918
660.15        55.53302
660.58        55.21096
661.01        55.42501
661.44         55.5605
661.86        55.79738
662.29          56.138
662.72        56.50621
663.14        56.89102
663.57        57.20892
664.00        57.44987
664.42        57.65037
664.85        57.81855
665.27        57.89629
665.70        57.93054
666.13          58.032
666.55        58.22831
666.98        58.47955
667.41        58.75959
667.83        59.02184
668.26        59.23326
668.69        59.41228
669.11        59.56461
669.54        59.72034
669.96        59.87831
670.39        59.97097
670.82        60.02982
671.24        60.14914
671.67        60.33741
672.09        60.53941
672.52        60.72359
672.94        60.84068
673.37        60.89211
673.80        60.84662
674.22        60.74405
674.65        60.89603
675.07        60.89075
675.50        61.06479
675.92        61.27712
676.35        61.46975
676.77        61.62017
677.20        61.90926
677.62        62.04424
678.05        62.18615
678.47        62.28908
678.90        62.33542
679.32        62.36733
679.75        62.44328
680.17        62.56944
680.60        62.77709
681.02        63.02424
681.45        63.09954
681.87         63.0503
682.30        63.19475
682.72        63.51763
683.15        63.63579
683.57        63.57436
684.00        63.69698
684.42        63.91742
684.85        64.10806
685.27        64.21939
685.70        64.35384
686.12        64.49207
686.54        64.56922
686.97        64.57866
687.39         64.6144
687.82        64.64185
688.24        64.49722
688.66        64.28278
689.09        64.23771
689.51        64.68134
689.94        64.93652
690.36        65.07903
690.78        65.37077
691.21        65.80611
691.63         66.1322
692.06        66.38396
692.48        66.88761
692.90           67.52
693.33          67.807
693.75        67.70806
694.17        67.39339
694.60        67.04523
695.02        66.89983
695.44        66.95491
695.87        67.11098
696.29        67.31351
696.71        67.06252
697.14        66.90356
697.56        67.28694
697.98        68.07616
698.41         68.5376
698.83        68.57254
699.25        68.63716
699.68        68.75368
700.10        68.83337
700.52        68.88747
700.94        68.89453
701.37        68.88279
701.79        69.02611
702.21        69.25883
702.64        69.37872
703.06        69.38378
703.48        69.33954
703.90        69.23508
704.33        69.47829
704.75        69.22049
705.17        69.27872
705.59          69.408
706.01        69.58469
706.44        69.80846
706.86        70.10413
707.28        70.44073
707.70        70.84469
708.12        71.22347
708.55        71.31299
708.97        71.14529
709.39        71.03165
709.81        71.03217
710.23        71.02177
710.66         71.0258
711.08        71.17336
711.50        71.41293
711.92        71.60429
712.34        71.72533
712.76        71.81719
713.19        71.86948
713.61        71.93536
714.03        72.00795
714.45        71.98685
714.87        72.05649
715.29         72.1666
715.71        72.36774
716.13        72.64768
716.56        72.91993
716.98        73.08766
717.40        73.08241
717.82        72.99902
718.24         72.9521
718.66        72.78952
719.08        73.08372
719.50        73.35094
719.92        73.63479
720.34        73.74941
720.76        73.66195
721.19        73.39823
721.61        73.06281
722.03        73.00603
722.45        72.99645
722.87        73.22045
723.29        73.51623
723.71        73.76424
724.13        73.91413
724.55        73.98827
724.97        74.05139
725.39         74.1994
725.81         74.4468
726.23        74.75913
726.65        75.01982
727.07         75.0484
727.49        74.82579
727.91        74.42727
728.33        74.02824
728.75        73.90414
729.17        74.11298
729.59        74.55885
730.01        75.09289
730.43        75.46548
730.85        75.59933
731.27         75.5677
731.69        75.40707
732.10         75.3086
732.52        75.09899
732.94        74.90912
733.36         74.7896
733.78        74.89419
734.20        75.22034
734.62        75.88093
735.04        76.63859
735.46        76.69148
735.88        76.16634
736.30        76.12132
736.72        76.53546
737.13        76.59885
737.55        76.29073
737.97        75.98695
738.39        75.84563
738.81        76.24889
739.23        77.04359
739.65        77.29467
740.06        76.96113
740.48        76.92985
740.90         77.1818
741.32        77.21391
741.74         77.0159
742.16        76.85593
742.57        76.76491
742.99        76.70387
743.41        76.71821
743.83        76.76215
744.25        76.87838
744.67        77.28683
745.08        77.86133
745.50        78.08073
745.92        77.89368
746.34        77.52052
746.75        77.09897
747.17        76.80732
747.59        76.69685
748.01         76.7607
748.42        76.96143
748.84        77.06199
749.26        77.28757
749.68        77.39069
750.09        77.46606
750.51        77.74639
750.93        78.13889
751.35        78.19846
751.76        77.99458
752.18        78.01165
752.60        78.28654
753.01        78.57854
753.43        78.79363
753.85         78.9237
754.27        78.94758
754.68        78.90855
755.10        78.89469
755.52        78.86334
755.93        79.08685
756.35        79.31397
756.77        79.54213
757.18        79.59147
757.60        79.70522
758.02         79.6161
758.43        79.23849
758.85         79.6326
759.26        78.60783
759.68        78.52345
760.10        78.74074
760.51        79.37173
760.93        79.88197
761.34        79.69143
761.76        80.40483
762.18        79.80209
762.59        78.81335
763.01        78.77094
763.42        79.71088
763.84        80.36951
764.26         80.4769
764.67         80.0656
765.09        79.42579
765.50        79.33123
765.92        79.77464
766.33        79.85432
766.75        79.47951
767.16        79.55117
767.58        79.89869
768.00        80.09834
768.41        80.19221
768.83        80.80698
769.24        81.71526
769.66        82.13699
770.07        81.66645
770.49        81.43269
770.90        81.42344
771.32        81.46854
771.73        81.51961
772.15        81.42822
772.56        81.21236
772.97        81.03414
773.39        80.93842
773.80        80.95726
774.22        81.06611
774.63        81.31518
775.05        81.59827
775.46        81.81911
775.88        81.90721
776.29        81.91599
776.70        81.87902
777.12        81.88791
777.53        81.97687
777.95        82.07635
778.36        82.16181
778.77        82.14725
779.19        82.03085
779.60        81.93551
780.02        81.84443
780.43        81.65449
780.84        81.48965
781.26        81.41661
781.67        81.49583
782.09         82.1627
782.50        83.06607
782.91        82.75822
783.33        81.62949
783.74        81.33537
784.15        82.03701
784.57        82.76208
784.98        83.40689
785.39        83.78368
785.81        84.49903
786.22        84.68801
786.63        85.00642
787.04        84.99249
787.46        84.83942
787.87        84.49789
788.28        84.17017
788.70        84.09768
789.11        84.28003
789.52        84.82578
789.93        85.46646
790.35        85.38901
790.76        84.69282
791.17        84.29189
791.58        84.28881
792.00        84.16382
792.41        83.97598
792.82         83.9998
793.23        84.18642
793.65        84.51405
794.06        84.82005
794.47        84.52737
794.88        83.88261
795.29        83.74354
795.71        84.08681
796.12        84.64162
796.53         85.1768
796.94        85.32715
797.35        85.02953
797.76        84.67891
798.18        84.46104
798.59        84.34303
799.00        84.39674
799.41        84.70752
799.82        85.17565
800.23        85.54367
800.64         85.7378
801.06        85.80897
801.47        85.81715
801.88        85.74296
802.29        85.60596
802.70        85.38769
803.11        85.16392
803.52         85.0699
803.93         85.1511
804.34        85.38903
804.75        85.68581
805.17          85.952
805.58        86.20486
805.99        86.10156
806.40        85.77494
806.81        86.23255
807.22        87.15015
807.63        86.70068
808.04         85.1377
808.45        84.50176
808.86        84.96066
809.27        85.38576
809.68        85.62896
810.09        85.95206
810.50        86.28507
810.91        86.56621
811.32        86.73709
811.73        86.70559
812.14        86.47453
812.55        86.07259
812.96        85.68587
813.37        85.63272
813.78        85.97884
814.19        86.62492
814.60        87.33989
815.01        87.76149
815.42        87.79723
815.83        87.54382
816.24        87.12732
816.65        86.80186
817.05        86.67843
817.46        86.65434
817.87        86.70905
818.28        86.76022
818.69        86.77638
819.10        86.79659
819.51         86.8259
819.92        86.85526
820.33        86.87861
820.74         86.8782
821.14        86.84547
821.55        86.81184
821.96        86.77271
822.37        86.75012
822.78         86.7411
823.19        86.73517
823.60        86.74072
824.00        86.78073
824.41        86.86492
824.82        87.13902
825.23        87.59848
825.64        88.17724
826.04        88.74241
826.45        88.97549
826.86        88.83759
827.27        88.42363
827.68        87.84138
828.08        87.30284
828.49         86.8561
828.90        86.45946
829.31        86.19373
829.72         86.1682
830.12        86.42916
830.53         86.9432
830.94        87.48767
831.35        87.59267
831.75        87.18386
832.16        86.33321
832.57        85.52882
832.97        85.51649
833.38        86.40468
833.79        87.94817
834.20        89.60174
834.60        90.42902
835.01        90.13789
835.42        89.06562
835.82        87.66678
836.23        86.64288
836.64        86.22404
837.04        86.22657
837.45        86.49079
837.86        86.82677
838.26        87.14248
838.67        87.46922
839.08        87.77831
839.48        87.96295
839.89        87.98473
840.29        87.84955
840.70        87.59875
841.11         87.2916
841.51        86.98109
841.92        86.63538
842.33        86.37056
842.73        86.37221
843.14        86.61688
843.54         87.1338
843.95        87.68594
844.35        87.96301
844.76        87.84516
845.17        87.40971
845.57        86.92158
845.98        86.79389
846.38        87.13802
846.79        87.81384
847.19        88.53555
847.60        88.70278
848.00        88.21673
848.41        87.26424
848.81        86.25671
849.22        85.80003
849.62        86.05038
850.03        86.77914
850.43        87.70271
850.84        88.14833
851.24        88.00127
851.65        87.42603
852.05        86.72224
852.46         86.3249
852.86        86.35063
853.27        86.64185
853.67          87.049
854.07        87.60864
854.48        88.20773
854.88        88.99924
855.29        89.61449
855.69        89.68184
856.10        88.97508
856.50        87.71703
856.90        86.39222
857.31        85.73269
857.71        85.88096
858.12        86.58657
858.52        87.57123
858.92        88.03438
859.33         87.7151
859.73        86.92914
860.13        85.91694
860.54        85.08139
860.94        84.57554
861.34        84.25159
861.75        84.14612
862.15        84.40102
862.55        84.96519
862.96        85.79515
863.36        86.65084
863.76        87.03266
864.17        86.82986
864.57        86.18364
864.97        85.37714
865.38        84.90498
865.78        84.94197
866.18        85.32039
866.58        85.84302
866.99        86.14381
867.39        86.14682
867.79        85.98733
868.19        85.72365
868.60        85.39008
869.00        85.01952
869.40         84.5705
869.80         84.2343
870.21        84.36987
870.61        85.07619
871.01        86.15676
871.41         87.1689
871.81        87.44491
872.22        86.85301
872.62        85.60931
873.02        84.12332
873.42        83.08108
873.82         82.7238
874.22        82.90137
874.63        83.38721
875.03        83.79977
875.43        84.01927
875.83        84.14825
876.23        84.34912
876.63        84.86795
877.03        85.71841
877.44        86.73718
877.84        87.66273
878.24        88.02631
878.64        87.73216
879.04        86.96223
879.44        86.02582
879.84        85.38467
880.24        85.16629
880.64        85.24231
881.04        85.50094
881.44        85.74171
881.84        85.90018
882.24        86.07623
882.65        86.20763
883.05        86.30715
883.45        86.32618
883.85        86.22696
884.25        86.17622
884.65        86.44943
885.05        87.07846
885.45        87.99635
885.85        88.89677
886.25        89.24831
886.65        88.91647
887.05          88.043
887.45        87.03027
887.85        86.51278
888.25        86.64359
888.65        87.25616
889.04        87.95756
889.44        88.08374
889.84        87.50705
890.24        86.45351
890.64        85.36385
891.04        84.85691
891.44        85.06834
891.84        85.83707
892.24         86.7449
892.64        87.09064
893.04        86.70412
893.44        85.78716
893.83         84.8627
894.23        84.75015
894.63        85.55747
895.03        87.01852
895.43        88.51036
895.83        88.92203
896.23        88.00848
896.63        86.24834
897.02        84.27092
897.42        83.06741
897.82        82.80093
898.22        83.23996
898.62        84.14031
899.01        85.11794
899.41        85.92097
899.81        86.65316
900.21        87.41285
900.61        88.35274
901.00        89.44396
901.40        90.51369
901.80        91.24535
902.20        91.20798
902.59        90.38077
902.99        88.97201
903.39         87.4327
903.79        86.47787
904.18        86.29285
904.58         86.6937
904.98        87.40354
905.38        87.99094
905.77        88.29739
906.17        88.47218
906.57        88.48225
906.96         88.2905
907.36        87.90936
907.76        87.34124
908.15        86.80157
908.55        86.61116
908.95        86.86293
909.34         87.4977
909.74        88.25408
910.14        88.76915
910.53        88.91462
910.93        88.77168
911.33        88.49961
911.72        88.35471
912.12        88.42444
912.52        88.62628
912.91        88.78796
913.31        88.62376
913.70        88.10716
914.10        87.36221
914.49        86.66798
914.89        86.42586
915.29         86.7152
915.68        87.39413
916.08        88.19767
916.47          88.706
916.87        88.78275
917.26        88.56897
917.66        88.20111
918.05         87.8749
918.45        87.65727
918.84        87.51816
919.24        87.47231
919.64        87.65557
920.03        88.08119
920.42        88.68373
920.82        89.30894
921.21        89.73238
921.61        89.85425
922.00        89.71836
922.40        89.38007
922.79         89.0772
923.19        88.87028
923.58        88.72583
923.98        88.52967
924.37        88.00782
924.77        87.19354
925.16        86.19121
925.55        85.30453
925.95        85.00673
926.34        85.45245
926.74         86.4222
927.13        87.70466
927.52        88.85439
927.92        89.68172
928.31        90.29453
928.70        90.65102
929.10        90.73177
929.49         90.5981
929.89        90.22543
930.28        89.76788
930.67        89.44825
931.07        89.31663
931.46        89.32272
931.85        89.42813
932.24        89.54849
932.64        89.63845
933.03        89.78184
933.42        89.79514
933.82        89.40864
934.21        88.61771
934.60        87.50304
934.99        86.51351
935.39        86.30265
935.78        87.02854
936.17        88.53624
936.56        90.23669
936.96        91.02634
937.35        90.63299
937.74        89.33237
938.13        87.81252
938.53        86.99778
938.92        87.03397
939.31        87.70407
939.70        88.58269
940.09        88.90498
940.49        88.47762
940.88        87.60822
941.27         86.7248
941.66        86.45629
942.05        86.94788
942.44        87.97582
942.84        89.20654
943.23        90.17174
943.62        90.58992
944.01          90.624
944.40        90.39451
944.79         90.1049
945.18        89.85393
945.57        89.55663
945.97        89.29339
946.36        89.30011
946.75        89.57716
947.14        90.11422
947.53        90.69818
947.92        90.91534
948.31        90.66733
948.70         90.0817
949.09        89.44812
949.48        89.20975
949.87        89.48163
950.26        90.15486
950.65        91.00491
951.04        91.63475
951.43        91.89609
951.82        91.85546
952.21        91.71908
952.60        91.82242
952.99        92.19887
953.38        92.70167
953.77        93.02768
954.16        92.66325
954.55        91.55843
954.94        90.03446
955.33        88.43025
955.72        87.22901
956.11        86.58987
956.50        86.32213
956.89        86.52331
957.28        87.35089
957.66         88.7804
958.05         90.6369
958.44        92.30614
958.83        92.60313
959.22        91.30956
959.61        88.88184
960.00        86.22473
960.39        84.63328
960.78         84.4066
961.16        85.21416
961.55        86.61192
961.94        87.95434
962.33        88.93703
962.72        89.73441
963.11        90.26339
963.49        90.37887
963.88        90.03812
964.27        89.31275
964.66        88.41298
965.04        87.67004
965.43           87.17
965.82        86.83167
966.21        86.72822
966.60        86.94178
966.98         87.4702
967.37         88.2722
967.76        89.04473
968.15        89.24632
968.53        88.77284
968.92          87.731
969.31        86.57013
969.69         86.0285
970.08        86.22056
970.47        86.95638
970.86        87.79292
971.24        87.94421
971.63        87.12157
972.02        85.67576
972.40        84.03793
972.79        82.87743
973.17        82.40138
973.56        82.43404
973.95        82.76834
974.33        83.12821
974.72        83.33397
975.11        83.38883
975.49        83.53505
975.88        84.10177
976.26        85.21331
976.65         86.6911
977.04        87.81496
977.42        87.43707
977.81        85.45318
978.19        82.24758
978.58        79.35422
978.96        78.80615
979.35        80.96594
979.74        85.38943
980.12        90.74343
980.51        93.61214
980.89        93.05619
981.28        89.81673
981.66        85.64727
982.05        83.47259
982.43        84.07897
982.82        86.55157
983.20        89.98761
983.59        92.62936
983.97        93.91559
984.35        94.32545
984.74        93.96049
985.12        93.07033
985.51        91.82498
985.89        90.09631
986.28        88.30479
986.66        87.02724
987.04        86.55022
987.43        86.80703
987.81        87.57675
988.20        88.17252
988.58        88.43461
988.96        88.33698
989.35        88.25645
989.73        88.79754
990.12        89.97374
990.50        91.62488
990.88        92.89477
991.27        92.45806
991.65        90.22811
992.03        86.73705
992.42        83.24215
992.80        81.39866
993.18        81.71078
993.56        83.64092
993.95        86.27873
994.33         88.3336
994.71        89.05372
995.10        88.81177
995.48        87.82442
995.86        86.44767
996.24         84.9772
996.63         83.3623
997.01        81.82742
997.39        80.72557
997.77        80.14691
998.15        80.09653
998.54        80.55871
998.92        81.46096
999.30        82.69055
999.68        84.20035
1000.06        85.75553
1000.45        86.93934
1000.83        87.74038
1001.21         88.0789
1001.59        88.02544
1001.97        87.81151
1002.35        87.53306
1002.73        87.13213
1003.12        86.69009
1003.50        86.27577
1003.88        85.94543
1004.26        85.77529
1004.64        85.62209
1005.02        85.20251
1005.40        84.50476
1005.78         83.6261
1006.16        82.85426
1006.54        82.72267
1006.92        83.30748
1007.30        84.31487
1007.69        85.37995
1008.07         86.1567
1008.45        86.40907
1008.83        86.38409
1009.21        85.90586
1009.59        84.68219
1009.97        82.82236
1010.35         80.4147
1010.73        78.44437
1011.11        78.62516
1011.49         81.4252
1011.86        86.71838
1012.24        92.88562
1012.62        97.25141
1013.00        98.69722
1013.38        97.51883
1013.76        95.09158
1014.14        94.21974
1014.52        95.79292
1014.90        99.01874
1015.28        102.2374
1015.66        102.5261
1016.04        99.50974
1016.41        94.78809
1016.79        90.26077
1017.17        87.28849
1017.55        85.79671
1017.93        85.06573
1018.31         84.6937
1018.69        83.95475
1019.06        82.70357
1019.44        81.74863
1019.82        80.85056
1020.20        79.39553
1020.58        77.26085
1020.95        74.23398
1021.33        71.22359
1021.71        70.81405
1022.09         74.1673
1022.46         80.3298
1022.84        87.03762
1023.22        91.42587
1023.60         92.7799
1023.97        91.98398
1024.35        89.32246
1024.73        85.61299
