SpectraSmart Spectrum 2.9.0.0
--------- Device Information -----------
Spectrum Name :  反射率_0
Saving Time :  2024/05/01 17:18:35
Spectro-Module Model Name : SE2030-DUVN
Spectro-Module Serial Number : OS361AC55029948
Wavelength Start : 200
Wavelength End : 1025
Wavelength Unit : Wavelength(nm)
Spectrum Unit : Reflectance(%)
-----------Spectrum Setting ------------
Integration Time : 20ms
Average : 10
Boxcar : 0
Background removal :  enabled
linearity correction :  enabled
SC :  disabled
Intensity correction :  disabled
DWT denoise :  enabled
savitzky-golay :  disabled
FFT :  disabled
Running average :  disabled
Kalman :  disabled
High pass :  disabled
---------------BEGIN--------------------
Wavelength(nm)             Reflectance(%)
200.29               0
200.75        194.8152
201.21        867.2451
201.67       -376.8624
202.13        -142.829
202.58       -67.84593
203.04       -23.96012
203.50        1.842307
203.96        9.890544
204.42       0.4635559
204.88       -50.70182
205.34        -1438.94
205.80         239.808
206.26        151.6237
206.72        106.5566
207.18        13.47711
207.64        188.5768
208.10        94.81705
208.55        56.29362
209.01        31.21969
209.47        20.15093
209.93        18.49341
210.39        20.36013
210.85        20.44133
211.31        6.901219
211.77       -64.36068
212.23        527.0211
212.69        177.2317
213.14        173.5897
213.60        270.6638
214.06       -919.4222
214.52       -101.1352
214.98       -47.77039
215.44       -36.11708
215.90       -45.25057
216.36       -300.2424
216.81        93.56954
217.27        107.2205
217.73       -230.1599
218.19        -57.2438
218.65       -54.67019
219.11       -81.95251
219.57       -177.4257
220.02       -556.9175
220.48       -270.6339
220.94       -69.68642
221.40       -19.06652
221.86      -0.6349155
222.32         8.36727
222.77        15.24177
223.23        22.97783
223.69         32.4527
224.15        39.17887
224.61        39.73789
225.06        36.72148
225.52         34.5116
225.98        35.25648
226.44        39.01161
226.90        45.83897
227.36        54.44933
227.81        58.16542
228.27        54.64085
228.73        48.37735
229.19        43.42647
229.65        41.94949
230.10        43.56581
230.56         47.7155
231.02        53.39826
231.48        57.15484
231.93         57.0894
232.39        55.05923
232.85        52.64727
233.31        51.33061
233.77        51.22314
234.22        51.67791
234.68        52.50913
235.14         53.7148
235.60        55.37814
236.05         57.9805
236.51         61.5792
236.97        65.22482
237.43        67.42641
237.88        67.48566
238.34        65.68454
238.80        63.82446
239.26         62.2463
239.71        60.64083
240.17        57.57222
240.63        50.82587
241.08        41.52501
241.54        33.74234
242.00        29.98443
242.46        30.37328
242.91        35.13642
243.37         45.2816
243.83        64.81952
244.28        87.23061
244.74        93.89961
245.20          89.155
245.66        81.57548
246.11        74.13856
246.57        65.66646
247.03        52.71288
247.48        30.95519
247.94        2.540062
248.40       -20.50076
248.85       -33.08708
249.31       -29.00652
249.77       -10.83663
250.22        11.10089
250.68        31.23197
251.14         45.4962
251.59        52.21437
252.05        52.64311
252.51        45.47639
252.96        23.10289
253.42       -9.555756
253.88       -4.757936
254.33        26.71122
254.79        45.55675
255.25        51.68024
255.70        52.25631
256.16        51.80585
256.62        51.64669
257.07        52.49532
257.53         54.3076
257.99        56.16119
258.44        57.55732
258.90        58.58259
259.35        59.03107
259.81        59.36566
260.27        59.55081
260.72        59.57786
261.18         59.6865
261.63        59.52686
262.09        59.31245
262.55        58.88716
263.00        58.17804
263.46        57.43061
263.91        56.50501
264.37        55.55553
264.83        54.57425
265.28        53.58434
265.74        52.74052
266.19        51.97799
266.65        51.39494
267.11         50.8755
267.56        50.49017
268.02        50.45259
268.47        50.69474
268.93        51.11227
269.38        51.36831
269.84        50.87976
270.30        49.58991
270.75        47.70508
271.21        45.69868
271.66        44.15395
272.12        43.28056
272.57        42.83564
273.03        42.65257
273.48        42.39095
273.94        41.97417
274.39        41.48593
274.85        40.95037
275.31         40.3106
275.76        39.57016
276.22        38.78074
276.67        38.00201
277.13        37.46223
277.58        37.11031
278.04        36.92855
278.49        36.74176
278.95        36.41346
279.40        35.86153
279.86        35.20095
280.31        34.47758
280.77         33.8675
281.22        33.34561
281.68        32.92577
282.13        32.49414
282.59        31.99683
283.04        31.39056
283.50        30.75697
283.95        30.15715
284.41        29.74865
284.86        29.53674
285.32        29.48034
285.77        29.48426
286.22        29.45728
286.68        29.37278
287.13        29.24235
287.59        29.07576
288.04        28.84873
288.50         28.6006
288.95        28.28914
289.41         28.0147
289.86        27.83931
290.32        27.79392
290.77        27.84925
291.22        27.90488
291.68        27.79329
292.13        27.49439
292.59         27.0979
293.04        26.74028
293.50        26.68893
293.95         26.9716
294.40         27.4998
294.86        28.12597
295.31        28.62699
295.77        28.92835
296.22        29.09428
296.68        29.17051
297.13        29.21061
297.58        29.26234
298.04        29.32544
298.49        29.43029
298.95        29.66952
299.40        30.03076
299.85         30.4789
300.31        30.97097
300.76        31.43306
301.21        31.83536
301.67        32.19819
302.12        32.45361
302.58        32.53253
303.03        32.42681
303.48        32.19777
303.94        31.98976
304.39        31.95029
304.84        32.12888
305.30        32.46272
305.75        32.85899
306.20        33.18895
306.66          33.409
307.11         33.5322
307.57        33.57141
308.02        33.49575
308.47        33.32961
308.93        33.08589
309.38        32.79734
309.83          32.571
310.29        32.43781
310.74        32.37329
311.19        32.33787
311.65         32.2483
312.10        32.08376
312.55        31.87902
313.00        31.68532
313.46        31.58109
313.91        31.57321
314.36        31.62096
314.82        31.67585
315.27         31.6769
315.72        31.59253
316.18        31.44619
316.63        31.22929
317.08        30.93392
317.53        30.57277
317.99        30.16172
318.44        29.74158
318.89        29.39839
319.35         29.1599
319.80        29.00491
320.25        28.91414
320.70        28.84311
321.16        28.76567
321.61        28.70217
322.06        28.62151
322.51        28.47965
322.97        28.26496
323.42        27.98856
323.87        27.70422
324.32        27.51889
324.78        27.44871
325.23        27.47387
325.68        27.50669
326.13        27.40899
326.59        27.14162
327.04        26.76043
327.49        26.33533
327.94        25.99655
328.39         25.7853
328.85        25.65486
329.30        25.57496
329.75        25.46362
330.20        25.29284
330.66        25.08698
331.11        24.86677
331.56        24.63356
332.01        24.40064
332.46        24.16735
332.92        23.95137
333.37        23.81472
333.82        23.76214
334.27        23.78757
334.72        23.86846
335.17        23.96161
335.63        24.03171
336.08         24.0835
336.53        24.11566
336.98        24.14564
337.43        24.17404
337.88        24.20027
338.34        24.16836
338.79        24.00596
339.24        23.70767
339.69        23.30812
340.14        22.93859
340.59        22.80013
341.05        22.92427
341.50        23.25851
341.95        23.64736
342.40        23.83469
342.85        23.75868
343.30        23.50289
343.75        23.19755
344.20        23.04827
344.66        23.11093
345.11        23.30372
345.56        23.55926
346.01        23.76546
346.46        23.87581
346.91        23.92589
347.36        23.91688
347.81        23.84819
348.26        23.73196
348.72        23.57451
349.17        23.38824
349.62        23.23663
350.07        23.13268
350.52        23.06156
350.97        23.00557
351.42        22.92687
351.87        22.82026
352.32        22.71479
352.77        22.59759
353.22         22.4488
353.67        22.27264
354.13        22.07123
354.58        21.90323
355.03        21.89255
355.48        22.04972
355.93        22.34428
356.38        22.63167
356.83        22.66859
357.28        22.41384
357.73        21.95525
358.18        21.48485
358.63        21.28853
359.08        21.41987
359.53        21.78046
359.98        22.21899
360.43        22.47681
360.88        22.47107
361.33        22.28775
361.78        22.00842
362.23        21.75109
362.68        21.55825
363.13        21.38906
363.58        21.24458
364.03        21.13678
364.48        21.05922
364.93        21.01233
365.38        20.97204
365.83        20.89038
366.28        20.75554
366.73        20.58413
367.18        20.37881
367.63        20.14928
368.08        19.91555
368.53        19.68503
368.98        19.49547
369.43        19.40208
369.88        19.40324
370.33        19.46783
370.78        19.55192
371.23        19.57696
371.68        19.51151
372.13        19.38215
372.58        19.18003
373.03        18.88982
373.48        18.52982
373.93        18.11687
374.38        17.73824
374.83        17.54016
375.28        17.55301
375.72        17.72577
376.17         17.9674
376.62        18.13099
377.07        18.16833
377.52        18.11336
377.97        17.98769
378.42        17.83112
378.87        17.66621
379.32        17.48381
379.77        17.30116
380.22        17.14732
380.67        17.03063
381.11        16.95545
381.56        16.91492
382.01          16.894
382.46        16.88774
382.91        16.90012
383.36        16.91823
383.81        16.92701
384.26        16.91562
384.71        16.86834
385.15        16.80015
385.60        16.75611
386.05         16.7353
386.50        16.73901
386.95        16.70479
387.40        16.53626
387.85        16.23974
388.29        15.85049
388.74        15.51954
389.19        15.40543
389.64        15.52518
390.09        15.80739
390.54        16.12844
390.98        16.28757
391.43        16.23538
391.88        16.04347
392.33        15.78304
392.78        15.56101
393.23        15.41228
393.67        15.28104
394.12        15.18296
394.57        15.15571
395.02        15.17204
395.47         15.1332
395.91        15.06006
396.36        15.05887
396.81        15.13596
397.26        15.22351
397.71        15.27984
398.15        15.28326
398.60        15.24599
399.05         15.1154
399.50        14.95165
399.95        14.94823
400.39        15.06784
400.84        15.02414
401.29        14.81611
401.74        14.68234
402.18        14.63402
402.63        14.52729
403.08        14.38498
403.53        14.30713
403.97         14.2984
404.42        14.32975
404.87        14.36529
405.32        14.34834
405.76        14.26384
406.21        14.13854
406.66        14.00594
407.11        13.91971
407.55        13.89833
408.00         13.9263
408.45        13.97956
408.90        13.99604
409.34        13.96682
409.79        13.93778
410.24        13.92053
410.68        13.89833
411.13        13.87681
411.58        13.86978
412.03         13.8598
412.47        13.81231
412.92        13.72302
413.37        13.60689
413.81        13.49929
414.26          13.463
414.71        13.50187
415.15        13.60427
415.60        13.71166
416.05        13.74149
416.49        13.67199
416.94        13.52695
417.39        13.36542
417.83        13.28193
418.28        13.29884
418.73        13.38533
419.17        13.48777
419.62        13.51288
420.07        13.44579
420.51        13.32031
420.96        13.19303
421.41        13.12755
421.85        13.13449
422.30         13.1901
422.74         13.2723
423.19        13.36339
423.64        13.44767
424.08        13.53859
424.53        13.59352
424.98        13.56177
425.42        13.44121
425.87        13.25515
426.31        13.05954
426.76        12.95381
427.21        12.95463
427.65         13.0313
428.10        13.15822
428.54        13.28564
428.99        13.39085
429.44        13.50658
429.88        13.57889
430.33        13.53145
430.77        13.36559
431.22        13.12138
431.66        12.88409
432.11        12.81143
432.56        12.88267
433.00        13.01677
433.45        13.08858
433.89         12.8631
434.34        12.36316
434.78        12.38047
435.23        12.94677
435.67        13.16093
436.12        13.00926
436.57        12.96822
437.01        13.05509
437.46         13.0502
437.90        12.95175
438.35        12.84399
438.79        12.74457
439.24        12.64792
439.68        12.58371
440.13        12.63739
440.57        12.76548
441.02        12.82642
441.46        12.80019
441.91        12.71165
442.35        12.59838
442.80        12.64441
443.24        12.79505
443.69        12.75642
444.13         12.5521
444.58        12.47759
445.02        12.53558
445.47        12.56947
445.91        12.57619
446.36        12.62616
446.80        12.71361
447.24        12.81476
447.69         12.9029
448.13        12.93916
448.58        12.91657
449.02        12.84632
449.47        12.75823
449.91        12.69006
450.36        12.65816
450.80        12.64984
451.25        12.65218
451.69        12.63491
452.13        12.59263
452.58        12.53873
453.02        12.48344
453.47        12.45086
453.91        12.44464
454.36        12.46015
454.80        12.48298
455.24        12.48775
455.69        12.47179
456.13        12.43458
456.58        12.40451
457.02        12.40684
457.46        12.44895
457.91        12.52075
458.35        12.58788
458.79        12.57762
459.24         12.4883
459.68        12.37556
460.13         12.3052
460.57        12.12353
461.01        12.19808
461.46        12.24168
461.90        12.33144
462.34        12.36429
462.79         12.3929
463.23        12.37256
463.68        12.34765
464.12        12.35874
464.56         12.4139
465.01        12.51297
465.45        12.59477
465.89        12.59199
466.34        12.50268
466.78        12.34377
467.22        12.17962
467.67        12.14319
468.11        12.20939
468.55        12.38582
468.99        12.58787
469.44        12.70772
469.88        12.72025
470.32        12.65453
470.77        12.55403
471.21        12.48698
471.65        12.47614
472.10        12.49854
472.54        12.53317
472.98        12.55696
473.42        12.56308
473.87        12.57146
474.31        12.57346
474.75        12.56658
475.20        12.55582
475.64        12.52961
476.08        12.50534
476.52        12.54354
476.97        12.65346
477.41        12.76015
477.85        12.79991
478.29        13.03449
478.74        12.89173
479.18         12.8193
479.62        12.70722
480.06        12.72311
480.50        12.88819
480.95         12.9152
481.39        13.18491
481.83        13.24112
482.27         13.2025
482.72        13.10065
483.16         12.9894
483.60        12.96368
484.04        13.02162
484.48        13.14543
484.93        13.37957
485.37        13.58195
485.81        13.58735
486.25        14.17612
486.69        13.34391
487.14        13.07572
487.58        13.59066
488.02        13.95625
488.46        13.71665
488.90        13.68618
489.34        13.71502
489.79        13.72652
490.23        13.96412
490.67        14.19291
491.11        14.41991
491.55         14.4133
491.99        14.22679
492.43         14.1879
492.88        14.32271
493.32        14.42462
493.76        14.48037
494.20        14.58207
494.64        14.73151
495.08        14.88792
495.52        15.03119
495.96        15.18536
496.41        15.32926
496.85        15.33234
497.29        15.25068
497.73        15.37797
498.17        15.68047
498.61        15.78847
499.05         15.7097
499.49        15.75446
499.93        15.92988
500.37        16.05909
500.82        16.13119
501.26        16.20646
501.70        16.28556
502.14        16.35443
502.58        16.41037
503.02        16.45028
503.46        16.47746
503.90        16.49678
504.34        16.52973
504.78        16.60765
505.22        16.73412
505.66        16.89858
506.10        17.06528
506.54        17.17447
506.98        17.21125
507.42        17.19299
507.86        17.15268
508.30        17.14312
508.74        17.17977
509.18        17.24813
509.62         17.3299
510.06        17.39461
510.50        17.43182
510.94        17.45136
511.38        17.46399
511.82        17.48501
512.26        17.51791
512.70        17.55582
513.14        17.58731
513.58         17.5969
514.02        17.58208
514.46        17.54909
514.90        17.51271
515.34        17.49569
515.78        17.50402
516.22        17.53242
516.66        17.56626
517.10        17.58181
517.54        17.57394
517.98        17.54972
518.42        17.52446
518.86        17.52302
519.30        17.54996
519.74         17.5943
520.18        17.63853
520.62        17.65699
521.06         17.6421
521.50        17.60088
521.93         17.5463
522.37        17.49429
522.81         17.4553
523.25        17.42994
523.69        17.41035
524.13        17.38313
524.57        17.34812
525.01        17.30961
525.45        17.28849
525.89        17.31718
526.32        17.39549
526.76        17.50442
527.20        17.60726
527.64         17.6452
528.08        17.60577
528.52        17.51307
528.96        17.39219
529.40        17.28311
529.83        17.19955
530.27        17.13302
530.71        17.09339
531.15        17.10017
531.59        17.14896
532.03        17.23255
532.46        17.30737
532.90        17.30441
533.34        17.21418
533.78        17.04848
534.22        16.85769
534.66        16.74805
535.09        16.72292
535.53        16.70124
535.97        16.67314
536.41        16.68285
536.85         16.7234
537.28         16.7653
537.72        16.80033
538.16        16.83228
538.60        16.85794
539.04        16.87207
539.47        16.88049
539.91        16.90577
540.35         16.9478
540.79        17.01021
541.22        17.08391
541.66        17.12652
542.10        17.18016
542.54        17.21799
542.97        17.26456
543.41        17.34867
543.85        17.46994
544.29        17.61654
544.72         17.7733
545.16        17.92525
545.60        18.06329
546.04        18.19097
546.47        18.30453
546.91        18.40235
547.35        18.48704
547.79        18.55589
548.22        18.61083
548.66          18.695
549.10        18.81484
549.53        18.87495
549.97        19.04078
550.41        19.18599
550.84        19.35261
551.28        19.53817
551.72        19.72377
552.15        19.85844
552.59        19.94583
553.03        20.02741
553.46        20.10354
553.90        20.18829
554.34        20.28846
554.77        20.36681
555.21        20.41889
555.65        20.65928
556.08        20.69584
556.52        20.84803
556.96        20.97514
557.39        21.06458
557.83        21.11831
558.27         21.1127
558.70        21.08169
559.14        21.18393
559.57        21.24076
560.01        21.42136
560.45        21.59941
560.88        21.64859
561.32        21.60246
561.75        21.50303
562.19        21.43307
562.63           21.61
563.06        21.94929
563.50        21.97638
563.93        21.73378
564.37        21.71847
564.80        21.93407
565.24        22.10982
565.68        22.20812
566.11        22.30033
566.55        22.38737
566.98        22.44231
567.42        22.50081
567.85         22.6036
568.29        22.76737
568.72         22.9565
569.16        23.15844
569.60        23.32846
570.03        23.44876
570.47        23.49597
570.90        23.66416
571.34        23.63915
571.77         23.8081
572.21        23.90019
572.64        24.02563
573.08        24.12144
573.51        24.69487
573.95        24.68364
574.38        24.50684
574.82        24.87698
575.25        24.87636
575.69        24.94315
576.12        24.78901
576.56        24.97776
576.99        25.26228
577.42        25.00893
577.86        25.15928
578.29         25.1109
578.73        25.23731
579.16        24.83712
579.60        24.64109
580.03        24.50366
580.47        24.74029
580.90        24.35797
581.33        24.71954
581.77        24.85975
582.20        24.71961
582.64        24.58705
583.07        24.40414
583.51        24.18401
583.94        24.04451
584.37        24.02562
584.81        24.09388
585.24        23.98706
585.68        23.78694
586.11        23.56967
586.54        23.67195
586.98        23.55912
587.41        23.47874
587.85        23.29881
588.28        23.45675
588.71        23.09058
589.15        23.38927
589.58        22.98462
590.01        23.11599
590.45        23.06763
590.88        23.11361
591.31        23.11621
591.75         23.0759
592.18        23.07041
592.61        23.08013
593.05        23.16555
593.48        23.31888
593.91        23.16945
594.35        23.39833
594.78        23.45241
595.21        23.53566
595.65        23.68621
596.08        23.79668
596.51        24.04284
596.94          23.915
597.38        24.08695
597.81        24.46108
598.24        24.35559
598.68        24.87365
599.11        25.02014
599.54        25.38275
599.97        25.55534
600.41        25.88848
600.84        26.29873
601.27        26.52307
601.70        26.96642
602.14        27.32661
602.57        27.62767
603.00        27.82608
603.43        28.01684
603.87        28.43342
604.30        28.75061
604.73        29.06499
605.16        29.45382
605.60        29.89478
606.03        30.35577
606.46        30.74635
606.89        31.05958
607.32         31.3955
607.76        31.69806
608.19        31.98199
608.62        32.52462
609.05        32.90593
609.48        33.16295
609.92        33.27072
610.35          33.541
610.78        34.35227
611.21        34.72127
611.64        34.78802
612.07        35.06542
612.50        35.55964
612.94        35.79467
613.37         35.7726
613.80         36.1367
614.23        36.17963
614.66        36.67352
615.09        36.81936
615.52        37.16682
615.96        37.52454
616.39         37.8904
616.82        38.25537
617.25        38.55597
617.68        38.94349
618.11        39.05151
618.54        38.99782
618.97        39.10832
619.40        39.42247
619.84        39.63556
620.27        39.73293
620.70        40.07297
621.13         40.6241
621.56        40.45369
621.99        40.53295
622.42        40.70693
622.85        40.68376
623.28         40.9785
623.71        40.70318
624.14        41.11547
624.57        41.12871
625.00        41.25028
625.43        41.21803
625.86        41.11417
626.29        40.94931
626.72        40.84567
627.15         40.6481
627.58        40.45533
628.01        40.23813
628.44        40.11189
628.87        40.03432
629.30        39.82346
629.73        39.50201
630.16        39.23857
630.59        39.03315
631.02        38.78762
631.45        38.49171
631.88        38.17425
632.31        37.83337
632.74         37.4603
633.17        37.07059
633.60        36.68763
634.03         36.3156
634.46         35.9525
634.89        35.57693
635.32        35.15385
635.75        34.68264
636.18         34.1811
636.61        33.68471
637.04        33.24565
637.47        32.87721
637.89        32.55744
638.32        32.24714
638.75         31.9348
639.18         31.6178
639.61        31.17803
640.04        30.87337
640.47        30.54661
640.90         30.2771
641.33        30.04546
641.76        29.83871
642.18        29.67864
642.61        29.56214
643.04        29.42139
643.47        29.23741
643.90        29.39075
644.33        29.24607
644.76        29.26606
645.18        29.26775
645.61        29.37336
646.04        29.53362
646.47        29.52387
646.90        29.40078
647.33        29.45185
647.75        29.69745
648.18        29.97801
648.61        30.26932
649.04        30.55971
649.47        30.82803
649.89        31.20089
650.32        31.63031
650.75        31.76262
651.18        31.71594
651.61        32.16216
652.03        33.05825
652.46        33.59114
652.89        33.74036
653.32        34.16964
653.74        34.99066
654.17        35.30505
654.60        35.83123
655.03        36.49252
655.46        36.55778
655.88        37.12102
656.31        41.83776
656.74        41.40146
657.16        38.45616
657.59        38.40953
658.02        39.01418
658.45         39.7006
658.87        40.12819
659.30        40.28009
659.73        40.65348
660.15        41.24651
660.58        41.31453
661.01        41.68292
661.44        42.09312
661.86        42.51765
662.29        42.93429
662.72        43.21523
663.14        43.42318
663.57        43.81091
664.00        44.32908
664.42        44.63967
664.85        44.73841
665.27        44.81298
665.70        44.92717
666.13        45.08989
666.55        45.32984
666.98        45.64497
667.41        46.00175
667.83        46.33451
668.26         46.6084
668.69        46.84097
669.11        47.05209
669.54        47.28301
669.96        47.53448
670.39        47.77925
670.82        48.01462
671.24        48.18593
671.67        48.33185
672.09        48.61563
672.52        48.99743
672.94        49.22414
673.37        49.28846
673.80        49.32278
674.22        49.37688
674.65        49.46695
675.07        49.62581
675.50        49.79298
675.92        49.96905
676.35        50.24481
676.77        50.56268
677.20        50.70481
677.62        50.70268
678.05        50.76411
678.47        50.90126
678.90        51.11357
679.32        51.17577
679.75        51.33409
680.17        51.51426
680.60        51.69711
681.02        51.88694
681.45        52.05596
681.87        52.20527
682.30         52.4137
682.72        52.64072
683.15        52.60798
683.57        52.40325
684.00         52.4584
684.42        52.76679
684.85        52.99419
685.27        53.12075
685.70        53.32925
686.12        53.53523
686.54        53.83207
686.97        53.54068
687.39        53.60266
687.82        53.79423
688.24        53.76477
688.66        53.58289
689.09        53.72813
689.51        54.18726
689.94        54.49683
690.36        54.62848
690.78        54.82538
691.21        55.10422
691.63        55.32814
692.06        55.53076
692.48        55.89807
692.90         56.3433
693.33        56.57224
693.75        56.55466
694.17        56.37062
694.60        56.17163
695.02        56.17068
695.44        56.35529
695.87        56.67111
696.29        56.99752
696.71        56.82381
697.14        56.36273
697.56        56.67872
697.98        57.63694
698.41        58.09264
698.83        57.98263
699.25        57.96064
699.68        58.07415
700.10        58.15393
700.52        58.21449
700.94        58.26229
701.37        58.32126
701.79        58.54034
702.21        58.85524
702.64         59.0814
703.06        59.19148
703.48        59.20813
703.90        59.11673
704.33        59.27888
704.75        58.98903
705.17        58.97585
705.59         59.0439
706.01          59.166
706.44        59.35669
706.86        59.65115
707.28        60.01866
707.70        60.49239
708.12        60.95222
708.55        61.06788
708.97         60.8747
709.39        60.74825
709.81        60.75611
710.23        60.73535
710.66        60.71595
711.08          60.855
711.50        61.10023
711.92        61.29037
712.34        61.39949
712.76        61.48083
713.19        61.53492
713.61        61.60262
714.03        61.67607
714.45        61.73542
714.87        61.80332
715.29        61.92254
715.71         62.0987
716.13        62.32899
716.56        62.54612
716.98        62.70279
717.40        62.75095
717.82        62.72129
718.24        62.69401
718.66        62.71797
719.08        62.94766
719.50         63.2373
719.92         63.5252
720.34        63.64288
720.76        63.55791
721.19        63.32963
721.61        63.06936
722.03        62.94805
722.45         63.0198
722.87        63.24318
723.29        63.54819
723.71        63.81591
724.13        64.00008
724.55        64.12043
724.97        64.22681
725.39        64.39537
725.81        64.64455
726.23         64.9351
726.65        65.17442
727.07        65.21833
727.49        65.05084
727.91         64.7308
728.33        64.39913
728.75         64.2791
729.17        64.41861
729.59        64.74141
730.01        65.13508
730.43        65.40518
730.85        65.49351
731.27        65.47396
731.69        65.38979
732.10        65.32001
732.52        65.30891
732.94        65.26343
733.36        65.23388
733.78        65.42654
734.20        65.86538
734.62        66.02382
735.04        66.80073
735.46        66.73558
735.88        66.24848
736.30        66.08103
736.72        66.28361
737.13        66.34841
737.55         66.2356
737.97        66.22842
738.39        66.35177
738.81        66.60682
739.23        66.94727
739.65        67.15186
740.06        67.15244
740.48         67.1992
740.90         67.2773
741.32        67.12067
741.74        67.03032
742.16        66.91572
742.57        66.88619
742.99         66.9226
743.41        67.03278
743.83        67.13474
744.25        67.24708
744.67        67.54507
745.08        67.94495
745.50        68.07607
745.92        67.91354
746.34        67.60987
746.75        67.28467
747.17        67.10978
747.59        67.12063
748.01        67.30228
748.42        67.57738
748.84         67.7295
749.26        67.75275
749.68        67.78867
750.09        67.86237
750.51        67.98598
750.93        68.11095
751.35        68.16584
751.76        68.20502
752.18        68.23555
752.60        68.22847
753.01        68.86446
753.43        68.83139
753.85        68.94621
754.27        69.11952
754.68        69.15374
755.10        69.17279
755.52        69.24919
755.93        69.39438
756.35        69.55354
756.77        69.70992
757.18        69.77008
757.60        69.72731
758.02         69.8205
758.43        69.94636
758.85        69.60252
759.26        68.98049
759.68        68.97183
760.10        69.57866
760.51        70.02899
760.93        70.12915
761.34        70.16685
761.76        70.23599
762.18        69.68842
762.59        68.90012
763.01        69.12357
763.42        70.24334
763.84        70.69388
764.26        70.37331
764.67        69.97406
765.09        69.74648
765.50        69.93627
765.92        70.43888
766.33        70.46383
766.75        69.95028
767.16         69.7815
767.58        70.01384
768.00        70.11248
768.41        70.19885
768.83        70.89434
769.24        71.95912
769.66        72.54505
770.07        72.52981
770.49        72.08608
770.90        71.46737
771.32        71.36942
771.73         71.7685
772.15        71.82377
772.56        71.53082
772.97        71.49448
773.39        71.69859
773.80        71.83105
774.22         71.8327
774.63        71.85007
775.05        71.85695
775.46        71.87708
775.88        71.89218
776.29        71.91429
776.70        71.94722
777.12        72.03365
777.53        72.18284
777.95        72.34245
778.36         72.4936
778.77        72.54704
779.19        72.49104
779.60        72.47063
780.02        72.45221
780.43        72.19878
780.84        71.87038
781.26         71.8242
781.67        72.06853
782.09        72.61497
782.50        73.16113
782.91        72.76379
783.33        71.69676
783.74        71.41689
784.15        72.04885
784.57        72.71681
784.98        73.30029
785.39        73.91252
785.81        74.46287
786.22        74.76653
786.63        75.17999
787.04        75.04935
787.46         74.6394
787.87        74.37118
788.28        74.37151
788.70        74.39005
789.11        74.41212
789.52        74.78657
789.93        75.30911
790.35        75.22364
790.76        74.61457
791.17        74.24231
791.58        74.20553
792.00        74.10889
792.41        74.00614
792.82        74.11235
793.23         74.3569
793.65        74.67548
794.06        74.91808
794.47         74.6172
794.88          74.028
795.29        73.89207
795.71         74.1864
796.12        74.78883
796.53        75.44561
796.94        75.38603
797.35        74.80645
797.76        74.44012
798.18        74.48166
798.59        74.41691
799.00         74.2936
799.41           74.46
799.82        74.85674
800.23        75.17105
800.64        75.34376
801.06        75.45245
801.47        75.51512
801.88        75.45862
802.29        75.28711
802.70        74.98335
803.11        74.68113
803.52         74.6148
803.93        74.84789
804.34        75.33405
804.75        75.86959
805.17         76.2124
805.58        76.34451
805.99         75.9002
806.40        75.15685
806.81        75.56226
807.22        76.74125
807.63        76.31858
808.04        74.55756
808.45        73.89831
808.86        74.50181
809.27        75.11599
809.68        75.50191
810.09        75.58953
810.50        75.43095
810.91        75.67354
811.32        76.25105
811.73        76.39586
812.14        76.07418
812.55        75.74342
812.96        75.55446
813.37        75.53911
813.78         75.7441
814.19        76.15463
814.60        76.64071
815.01        76.99589
815.42        77.16063
815.83        77.18008
816.24        77.08187
816.65        76.93246
817.05        76.77846
817.46        76.58286
817.87        76.40235
818.28        76.27677
818.69        76.21223
819.10        76.20342
819.51        76.25779
819.92        76.37093
820.33        76.52156
820.74        76.69817
821.14        76.82765
821.55        76.83446
821.96        76.70116
822.37        76.47156
822.78        76.23256
823.19        76.14228
823.60        76.25906
824.00        76.55817
824.41         76.9593
824.82        77.44028
825.23        77.94173
825.64        78.43279
826.04        78.84667
826.45         78.9922
826.86        78.86378
827.27        78.52409
827.68        78.00972
828.08        77.41637
828.49        76.77863
828.90        76.10445
829.31        75.57505
829.72        75.45405
830.12        75.81591
830.53        76.57848
830.94        77.42744
831.35        77.73222
831.75        77.35766
832.16        76.43209
832.57        75.46869
832.97        75.25615
833.38        75.93359
833.79        77.23864
834.20        78.69544
834.60         79.4863
835.01        79.34541
835.42        78.58104
835.82        77.52666
836.23        76.68865
836.64        76.24878
837.04        76.05729
837.45        76.07539
837.86        76.31563
838.26        76.73623
838.67        77.31678
839.08        77.88489
839.48        78.10359
839.89        77.89025
840.29        77.33455
840.70        76.65034
841.11         76.1591
841.51        75.97784
841.92         76.0022
842.33        76.18867
842.73        76.46319
843.14        76.72894
843.54        77.06679
843.95        77.39427
844.35        77.64899
844.76        77.77392
845.17         77.7601
845.57        77.67487
845.98        77.63153
846.38         77.6788
846.79        77.77663
847.19        77.85823
847.60        77.71739
848.00        77.35593
848.41        76.83278
848.81        76.33939
849.22        76.14301
849.62        76.31335
850.03        76.73701
850.43        77.25668
850.84        77.44106
851.24        77.25218
851.65        76.78099
852.05        76.27013
852.46        76.07636
852.86        76.26713
853.27        76.70072
853.67        77.21359
854.07        77.78977
854.48        78.32655
854.88        78.97065
855.29        79.40508
855.69        79.32961
856.10        78.57893
856.50        77.35986
856.90        76.13795
857.31          75.606
857.71        75.89233
858.12        76.75694
858.52        77.90832
858.92        78.54155
859.33        78.37522
859.73        77.70306
860.13        76.73589
860.54        75.83955
860.94        75.16489
861.34        74.58092
861.75        74.17721
862.15        74.17393
862.55        74.56087
862.96        75.29169
863.36        76.10236
863.76        76.44865
864.17        76.20713
864.57        75.52802
864.97        74.71729
865.38         74.3075
865.78        74.46824
866.18        75.01183
866.58        75.69018
866.99        76.05433
867.39        75.99705
867.79        75.68122
868.19         75.2227
868.60        74.74201
869.00        74.29741
869.40        73.83536
869.80        73.51417
870.21        73.62843
870.61        74.26254
871.01        75.26135
871.41        76.24421
871.81        76.63484
872.22        76.31072
872.62        75.43532
873.02        74.35126
873.42        73.63754
873.82        73.49044
874.22        73.78696
874.63        74.29389
875.03        74.62809
875.43        74.68805
875.83        74.57944
876.23        74.54225
876.63        74.94415
877.03        75.82732
877.44        77.01441
877.84        78.14787
878.24        78.59531
878.64        78.22178
879.04        77.25351
879.44        76.10763
879.84        75.41228
880.24        75.32134
880.64        75.64436
881.04        76.15083
881.44        76.45553
881.84        76.44621
882.24        76.27671
882.65        75.99586
883.05        75.80296
883.45        75.72317
883.85        75.66343
884.25        75.70247
884.65        75.98121
885.05        76.49828
885.45        77.23707
885.85        77.94413
886.25        78.17352
886.65        77.82299
887.05         77.0032
887.45        76.08941
887.85        75.68026
888.25        75.90929
888.65         76.6134
889.04        77.40185
889.44        77.61033
889.84        77.10829
890.24        76.11953
890.64         75.0642
891.04        74.53777
891.44        74.67589
891.84         75.3223
892.24        76.11629
892.64        76.44747
893.04        76.17179
893.44        75.48502
893.83        74.81729
894.23        74.84176
894.63        75.64757
895.03        76.99148
895.43        78.39919
895.83        79.01685
896.23        78.62046
896.63        77.56566
897.02         76.2319
897.42        75.26753
897.82        74.79118
898.22        74.66662
898.62        74.86428
899.01        75.37254
899.41        76.07066
899.81        76.97541
900.21        77.99142
900.61        78.92958
901.00        79.68123
901.40        80.20877
901.80         80.4141
902.20        80.19468
902.59        79.59454
902.99        78.68488
903.39        77.72891
903.79        77.14905
904.18        77.03838
904.58        77.30524
904.98        77.75727
905.38        78.08734
905.77        78.19375
906.17        78.19295
906.57        78.07309
906.96        77.83569
907.36        77.50095
907.76         77.0697
908.15        76.72377
908.55        76.72277
908.95        77.12318
909.34        77.85335
909.74        78.64903
910.14        79.14499
910.53         79.2233
910.93        78.99013
911.33        78.58366
911.72        78.23025
912.12        78.02889
912.52         77.8979
912.91        77.80297
913.31        77.68498
913.70        77.53556
914.10        77.40404
914.49        77.30406
914.89        77.21788
915.29        77.15266
915.68        77.10302
916.08         77.0944
916.47        77.19915
916.87        77.41478
917.26        77.71152
917.66        78.01745
918.05        78.21713
918.45        78.28352
918.84        78.29546
919.24        78.28081
919.64        78.38403
920.03         78.6413
920.42        78.94221
920.82        79.27237
921.21        79.63959
921.61        79.98358
922.00        80.33196
922.40        80.48185
922.79        80.17516
923.19        79.39174
923.58        78.27395
923.98        77.14595
924.37        76.37348
924.77        76.07573
925.16        76.15919
925.55        76.49007
925.95        76.76674
926.34        76.90566
926.74        76.93159
927.13        77.03758
927.52        77.43354
927.92        78.12549
928.31        79.02238
928.70        79.85074
929.10        80.21079
929.49        80.04005
929.89        79.46394
930.28        78.76007
930.67        78.33785
931.07        78.30885
931.46        78.53093
931.85        78.90319
932.24        79.25758
932.64        79.51062
933.03        79.78091
933.42        79.89012
933.82        79.57111
934.21        78.82578
934.60        77.71387
934.99        76.70534
935.39        76.49895
935.78        77.25391
936.17        78.81645
936.56        80.54146
936.96        81.21774
937.35         80.5582
937.74        78.89652
938.13        77.03602
938.53        76.04964
938.92        76.11304
939.31        76.96921
939.70        78.09672
940.09        78.54945
940.49        78.07605
940.88        77.03187
941.27        75.95806
941.66        75.65517
942.05        76.29897
942.44        77.60589
942.84        79.13502
943.23        80.18883
943.62        80.43445
944.01        80.12655
944.40        79.49482
944.79        78.90588
945.18        78.52051
945.57        78.20463
945.97        78.04073
946.36         78.2718
946.75        78.86666
947.14        79.79624
947.53        80.75006
947.92        81.14046
948.31        80.81309
948.70        79.93504
949.09        78.86892
949.48        78.17479
949.87         78.0205
950.26        78.29157
950.65        78.79094
951.04        79.16808
951.43        79.29247
951.82        79.22639
952.21        79.17123
952.60        79.43784
952.99        80.04581
953.38        80.86282
953.77        81.50288
954.16        81.31538
954.55        80.21642
954.94        78.53483
955.33        76.78624
955.72        75.73735
956.11         75.5929
956.50         76.0919
956.89        77.05983
957.28        78.21199
957.66        79.41545
958.05        80.60549
958.44        81.50236
958.83         81.5447
959.22        80.66167
959.61        79.08134
960.00        77.29363
960.39          75.998
960.78        75.38585
961.16        75.34776
961.55        75.72693
961.94        76.34785
962.33         77.0847
962.72        77.97507
963.11        78.86555
963.49        79.46531
963.88        79.61523
964.27        79.39269
964.66        78.91004
965.04        78.36835
965.43         77.8403
965.82        77.26611
966.21        76.77223
966.60        76.58083
966.98        76.75891
967.37        77.25603
967.76         77.8129
968.15         77.9463
968.53        77.54642
968.92          76.715
969.31        75.78085
969.69        75.27966
970.08        75.28607
970.47        75.65018
970.86        76.04951
971.24        75.93304
971.63        75.11018
972.02        73.85933
972.40        72.51402
972.79         71.5832
973.17        71.23039
973.56        71.31383
973.95        71.68549
974.33        72.14439
974.72         72.5464
975.11        72.88723
975.49        73.32858
975.88        74.08607
976.26        75.22459
976.65         76.5802
977.04        77.59843
977.42        77.40014
977.81        75.91073
978.19        73.44011
978.58        71.22806
978.96        70.88456
979.35        72.70254
979.74          76.328
980.12        80.77386
980.51        83.36245
980.89        83.36773
981.28        81.33381
981.66        78.48559
982.05        76.93299
982.43        77.23034
982.82        78.67184
983.20        80.75821
983.59        82.45306
983.97        83.43462
984.35        84.01307
984.74        83.95985
985.12        82.99142
985.51        81.17316
985.89         78.5876
986.28        76.01953
986.66        74.60406
987.04        74.72759
987.43        76.07445
987.81        78.03966
988.20        79.32311
988.58        79.53378
988.96        78.83581
989.35        77.75695
989.73         77.1473
990.12        77.18864
990.50        77.70698
990.88        78.03646
991.27        77.15461
991.65        75.04099
992.03        72.16759
992.42        69.59708
992.80        68.67011
993.18        69.76674
993.56        72.37467
993.95        75.60195
994.33        78.17708
994.71        79.36327
995.10        79.51838
995.48        78.76736
995.86        77.38161
996.24        75.66111
996.63        73.55159
997.01        71.56723
997.39        70.47189
997.77         70.3807
998.15        71.19991
998.54        72.41217
998.92          72.994
999.30        72.63407
999.68        71.62082
1000.06        70.43563
1000.45        69.90703
1000.83        70.43295
1001.21        71.64799
1001.59        73.26381
1001.97        74.80068
1002.35        75.99548
1002.73        76.94409
1003.12        77.54777
1003.50        77.60261
1003.88        77.16686
1004.26        76.33727
1004.64        75.34931
1005.02        74.54908
1005.40        74.04974
1005.78        73.80528
1006.16        73.84154
1006.54        74.14878
1006.92        74.65815
1007.30         75.3287
1007.69        75.92294
1008.07        76.29795
1008.45        76.30309
1008.83        75.99317
1009.21        75.43736
1009.59        74.78851
1009.97        74.13583
1010.35         73.4544
1010.73        72.91817
1011.11        72.80267
1011.49        73.22319
1011.86        74.38371
1012.24        75.78139
1012.62        76.89859
1013.00        77.55605
1013.38        77.79874
1013.76        78.19472
1014.14        79.85588
1014.52        82.94733
1014.90        86.96688
1015.28        90.69821
1015.66        91.98018
1016.04        90.44577
1016.41        87.18673
1016.79        83.55875
1017.17        80.48675
1017.55        77.90589
1017.93        75.22605
1018.31        72.56277
1018.69        71.01318
1019.06        71.22207
1019.44        72.85139
1019.82         74.5976
1020.20        75.28639
1020.58        74.91149
1020.95        73.58831
1021.33        71.94814
1021.71        71.59576
1022.09         73.2441
1022.46         76.2383
1022.84        79.29834
1023.22        80.91952
1023.60        80.74973
1023.97        79.44489
1024.35        77.21648
1024.73         74.5448
