SpectraSmart Spectrum 2.9.0.0
--------- Device Information -----------
Spectrum Name :  反射率_0
Saving Time :  2024/05/01 17:24:14
Spectro-Module Model Name : SE2030-DUVN
Spectro-Module Serial Number : OS361AC55029948
Wavelength Start : 200
Wavelength End : 1025
Wavelength Unit : Wavelength(nm)
Spectrum Unit : Reflectance(%)
-----------Spectrum Setting ------------
Integration Time : 20ms
Average : 10
Boxcar : 0
Background removal :  enabled
linearity correction :  enabled
SC :  disabled
Intensity correction :  disabled
DWT denoise :  enabled
savitzky-golay :  disabled
FFT :  disabled
Running average :  disabled
Kalman :  disabled
High pass :  disabled
---------------BEGIN--------------------
Wavelength(nm)             Reflectance(%)
200.29               0
200.75        104.3556
201.21        542.8966
201.67       -245.2982
202.13       -82.92565
202.58       -23.34447
203.04        14.69679
203.50        39.20747
203.96        50.86618
204.42        52.89915
204.88        42.06422
205.34       -284.7697
205.80        96.79007
206.26        57.09803
206.72        3.549277
207.18       -242.5161
207.64        451.5023
208.10        203.9741
208.55        141.9685
209.01        110.9032
209.47        94.46892
209.93        86.17063
210.39        80.20892
210.85        77.73809
211.31        83.79726
211.77        119.3618
212.23       -200.0725
212.69       -4.921495
213.14        20.21918
213.60        58.00916
214.06       -285.6888
214.52       -44.31787
214.98       -28.70299
215.44       -26.52842
215.90        -33.2117
216.36       -146.0536
216.81         3.44624
217.27       -56.71212
217.73        243.5991
218.19        73.84483
218.65          64.278
219.11        78.07516
219.57        134.8437
220.02           378.2
220.48        223.9061
220.94        95.08688
221.40        61.89428
221.86        51.75432
222.32        51.33288
222.77        56.80011
223.23        67.92293
223.69        83.20255
224.15        90.26178
224.61        84.33308
225.06        73.93645
225.52        66.80647
225.98         65.2964
226.44        68.70374
226.90        76.37294
227.36        87.09497
227.81        93.52534
228.27        91.96703
228.73        86.86706
229.19        82.45597
229.65        81.21629
230.10        82.88486
230.56         86.6526
231.02        91.46442
231.48        94.11139
231.93        92.97968
232.39        90.28062
232.85        87.18825
233.31        84.65361
233.77        82.89691
234.22        81.48806
234.68        80.84776
235.14        81.53414
235.60        83.74316
236.05        88.14212
236.51        94.40736
236.97        99.99952
237.43        101.8963
237.88        99.30509
238.34         94.2191
238.80         91.2372
239.26        91.62039
239.71        95.92286
240.17        102.1711
240.63         101.521
241.08        88.09601
241.54         67.9997
242.00        52.09152
242.46        46.62607
242.91        51.86867
243.37        69.09943
243.83        101.3574
244.28         126.514
244.74         119.242
245.20        98.53769
245.66        80.96365
246.11         70.5172
246.57        64.18343
247.03         58.0582
247.48        47.83368
247.94        28.36283
248.40        2.770927
248.85       -20.92817
249.31       -30.12524
249.77       -19.98043
250.22      -0.2694925
250.68        20.29767
251.14        36.15139
251.59        45.01521
252.05         48.8206
252.51        49.00724
252.96        45.60748
253.42        50.68119
253.88        74.17019
254.33        87.29818
254.79         88.4556
255.25        85.42529
255.70        81.12284
256.16        77.68711
256.62         75.1973
257.07        73.78207
257.53        73.75311
257.99        74.24467
258.44        74.83804
258.90        75.85663
259.35        76.80544
259.81        77.94959
260.27        78.92168
260.72        79.28814
261.18        79.31927
261.63         78.7951
262.09        78.13876
262.55        77.27126
263.00         76.1367
263.46        75.01016
263.91         73.7631
264.37         72.7019
264.83        71.76505
265.28        70.90089
265.74        70.18542
266.19        69.35294
266.65         68.5136
267.11        67.61505
267.56        66.80247
268.02         66.4282
268.47        66.45371
268.93        66.72202
269.38        66.90543
269.84        66.44111
270.30        65.25077
270.75         63.5394
271.21        61.66412
271.66        60.00829
272.12        58.77541
272.57        57.77629
273.03        57.04116
273.48        56.51716
273.94        56.18033
274.39        55.97128
274.85        55.74773
275.31        55.17936
275.76        54.21276
276.22        53.03426
276.67        51.76747
277.13        50.77443
277.58        50.01738
278.04        49.44088
278.49        48.88789
278.95        48.28974
279.40        47.55259
279.86        46.80631
280.31        45.98022
280.77        45.11795
281.22        44.17149
281.68        43.22677
282.13        42.29424
282.59        41.52881
283.04        40.89649
283.50        40.41698
283.95        39.99975
284.41        39.58995
284.86        39.14753
285.32        38.72201
285.77        38.34189
286.22         38.1104
286.68        38.02625
287.13        38.01843
287.59        37.99804
288.04        37.77962
288.50        37.37341
288.95        36.80708
289.41        36.24415
289.86        35.80569
290.32         35.5585
290.77        35.43794
291.22        35.37828
291.68         35.2666
292.13        35.06928
292.59        34.85418
293.04        34.67089
293.50         34.6523
293.95        34.80108
294.40        35.08155
294.86        35.41897
295.31        35.70892
295.77        35.91978
296.22        36.07454
296.68        36.21786
297.13        36.39268
297.58        36.62805
298.04        36.92468
298.49        37.24844
298.95        37.59071
299.40        37.92268
299.85         38.2451
300.31        38.59536
300.76        39.01611
301.21        39.50824
301.67        40.05277
302.12        40.53536
302.58        40.81597
303.03        40.85219
303.48        40.72706
303.94        40.59351
304.39        40.59544
304.84        40.79484
305.30        41.12531
305.75         41.5048
306.20        41.83348
306.66        42.07713
307.11        42.24062
307.57        42.33009
308.02        42.28547
308.47        42.13338
308.93        41.90189
309.38        41.63251
309.83        41.45242
310.29        41.39831
310.74        41.43111
311.19        41.51072
311.65        41.55397
312.10        41.52755
312.55        41.45816
313.00        41.37612
313.46        41.32896
313.91        41.31702
314.36        41.31155
314.82        41.27556
315.27        41.17101
315.72        40.98092
316.18        40.73265
316.63        40.43031
317.08         40.0902
317.53        39.72433
317.99        39.33811
318.44        38.95139
318.89        38.60872
319.35        38.32774
319.80         38.1048
320.25        37.92618
320.70         37.7599
321.16        37.58711
321.61        37.42134
322.06        37.26145
322.51        37.11437
322.97        36.97024
323.42        36.83022
323.87        36.67945
324.32        36.50977
324.78        36.31588
325.23        36.12124
325.68        35.91764
326.13        35.69886
326.59        35.46004
327.04        35.21781
327.49        34.99615
327.94        34.84777
328.39        34.77784
328.85         34.7555
329.30        34.74509
329.75        34.64158
330.20        34.41912
330.66        34.10006
331.11        33.74601
331.56        33.42252
332.01        33.16347
332.46        32.95572
332.92        32.79284
333.37        32.69896
333.82        32.65776
334.27         32.6709
334.72        32.71381
335.17        32.74132
335.63        32.72123
336.08        32.66708
336.53        32.58075
336.98        32.48939
337.43        32.40381
337.88        32.32923
338.34        32.23256
338.79         32.0815
339.24        31.87107
339.69        31.61702
340.14        31.41019
340.59         31.3904
341.05        31.56344
341.50        31.88104
341.95        32.20185
342.40        32.29785
342.85        32.12282
343.30        31.76708
343.75         31.3488
344.20        31.05189
344.66        30.93826
345.11        30.94032
345.56        31.05512
346.01         31.2701
346.46        31.54636
346.91        31.87576
347.36        32.15736
347.81        32.23617
348.26         32.0923
348.72        31.78223
349.17        31.39272
349.62        31.11232
350.07        30.99303
350.52        30.97996
350.97        31.02849
351.42        31.05706
351.87        31.03641
352.32        31.00764
352.77        30.94206
353.22        30.79275
353.67        30.56173
354.13        30.25852
354.58        29.96034
355.03        29.83041
355.48        29.89338
355.93        30.11674
356.38        30.35122
356.83        30.34288
357.28        30.04833
357.73        29.55842
358.18        29.07361
358.63        28.89116
359.08        29.06012
359.53        29.47099
359.98        29.94595
360.43        30.18526
360.88         30.0993
361.33        29.79253
361.78        29.37365
362.23        28.99903
362.68         28.7238
363.13        28.49818
363.58        28.32211
364.03        28.20484
364.48        28.13383
364.93        28.10706
365.38        28.08688
365.83        28.00359
366.28         27.8383
366.73        27.60991
367.18        27.32485
367.63        27.00419
368.08        26.67513
368.53         26.3457
368.98        26.06127
369.43        25.88363
369.88        25.81484
370.33        25.83058
370.78         25.8812
371.23        25.87736
371.68        25.78514
372.13        25.62625
372.58        25.41463
373.03        25.17099
373.48        24.91243
373.93         24.6423
374.38         24.3853
374.83        24.18756
375.28        24.06165
375.72        23.98768
376.17        23.96481
376.62        23.97925
377.07        24.01138
377.52        24.05733
377.97        24.05976
378.42        23.93249
378.87        23.67252
379.32         23.3166
379.77        22.95287
380.22        22.71595
380.67        22.63715
381.11        22.68099
381.56         22.7846
382.01        22.84667
382.46        22.83291
382.91        22.77071
383.36        22.68168
383.81        22.60172
384.26        22.53673
384.71        22.46117
385.15         22.3616
385.60        22.24346
386.05        22.10262
386.50        21.95767
386.95        21.80036
387.40        21.61364
387.85        21.40922
388.29        21.18461
388.74        21.02041
389.19        20.96525
389.64        21.01866
390.09        21.14627
390.54        21.28928
390.98        21.35043
391.43        21.31127
391.88         21.2051
392.33        21.05769
392.78        20.91567
393.23        20.79852
393.67        20.66152
394.12        20.54523
394.57        20.52979
395.02        20.58497
395.47        20.55981
395.91        20.46789
396.36        20.44097
396.81        20.48721
397.26        20.53166
397.71        20.53417
398.15        20.48537
398.60        20.40901
399.05        20.22953
399.50        20.02945
399.95        20.07176
400.39        20.30495
400.84        20.34121
401.29         20.1578
401.74        20.04343
402.18        20.00346
402.63        19.84571
403.08        19.61986
403.53        19.49387
403.97        19.48252
404.42        19.53937
404.87        19.60556
405.32        19.58878
405.76        19.46539
406.21        19.27729
406.66        19.07739
407.11        18.94773
407.55        18.91572
408.00        18.95717
408.45          19.034
408.90        19.05296
409.34        19.00033
409.79        18.94527
410.24        18.90864
410.68        18.87606
411.13        18.85646
411.58         18.8633
412.03        18.87254
412.47        18.83623
412.92        18.74439
413.37        18.61921
413.81        18.49625
414.26        18.44244
414.71        18.46093
415.15        18.53617
415.60        18.61544
416.05         18.6302
416.49        18.56096
416.94         18.4301
417.39        18.27554
417.83        18.15656
418.28        18.09214
418.73         18.0637
419.17        18.05605
419.62        18.03781
420.07        18.00464
420.51        17.96738
420.96        17.94253
421.41        17.92749
421.85        17.91712
422.30        17.91397
422.74        17.92238
423.19        17.96982
423.64        18.05116
424.08        18.16521
424.53        18.25638
424.98        18.25872
425.42        18.16162
425.87        17.99129
426.31        17.80159
426.76        17.68694
427.21        17.66587
427.65        17.70869
428.10        17.79599
428.54        17.90239
428.99        18.01731
429.44        18.13574
429.88        18.19954
430.33        18.21751
430.77        18.14268
431.22        17.82574
431.66        17.40632
432.11        17.30244
432.56        17.50054
433.00        17.76668
433.45        17.90978
433.89        17.63561
434.34        16.96924
434.78        16.99434
435.23        17.75845
435.67        18.02692
436.12        17.78838
436.57         17.6992
437.01        17.79557
437.46         17.7995
437.90        17.70969
438.35        17.62935
438.79        17.56473
439.24        17.47986
439.68         17.4115
440.13        17.48996
440.57        17.65276
441.02        17.72355
441.46        17.68423
441.91        17.51029
442.35        17.28846
442.80        17.44037
443.24        17.83744
443.69        17.77258
444.13        17.30793
444.58        17.14298
445.02         17.2887
445.47        17.36901
445.91        17.35964
446.36        17.40166
446.80        17.48616
447.24        17.57501
447.69         17.6522
448.13        17.69388
448.58        17.69643
449.02        17.66354
449.47        17.62345
449.91        17.60643
450.36         17.6248
450.80        17.66621
451.25        17.70371
451.69        17.68219
452.13        17.59517
452.58        17.46436
453.02        17.32609
453.47        17.24806
453.91        17.24333
454.36        17.29811
454.80        17.37059
455.24        17.39219
455.69         17.3509
456.13        17.25598
456.58        17.16468
457.02        17.13979
457.46        17.19635
457.91        17.31108
458.35        17.42051
458.79        17.40012
459.24         17.2436
459.68        17.04229
460.13        16.89957
460.57        16.62796
461.01        16.73405
461.46        16.81452
461.90        16.96873
462.34        17.04912
462.79        17.12285
463.23        17.13219
463.68        17.12179
464.12        17.12295
464.56        17.14596
465.01        17.20079
465.45        17.23608
465.89        17.20853
466.34        17.11984
466.78        16.98063
467.22         16.8427
467.67        16.82342
468.11        16.87424
468.55        17.02911
468.99        17.20968
469.44        17.32746
469.88        17.36208
470.32        17.33188
470.77        17.27971
471.21        17.27419
471.65        17.33227
472.10        17.43336
472.54        17.53208
472.98        17.57053
473.42        17.53972
473.87        17.47118
474.31        17.39667
474.75        17.38099
475.20         17.4416
475.64        17.54391
476.08        17.65265
476.52         17.7592
476.97        17.85669
477.41        17.86287
477.85        17.75761
478.29        18.01045
478.74        17.85294
479.18        17.87385
479.62        17.84724
480.06         17.8903
480.50        18.01366
480.95        17.86465
481.39        18.05117
481.83           18.06
482.27        18.07947
482.72          18.113
483.16        18.16682
483.60        18.25927
484.04        18.36015
484.48        18.45606
484.93        18.64486
485.37        18.84351
485.81        18.87239
486.25        19.50705
486.69        18.56169
487.14        18.12475
487.58        18.68638
488.02        19.19665
488.46        19.11584
488.90        19.31671
489.34         19.0612
489.79        18.89186
490.23        19.42542
490.67        19.67864
491.11        19.82704
491.55        19.83405
491.99        19.75842
492.43        19.79411
492.88        19.95286
493.32        20.07924
493.76        20.15881
494.20        20.28067
494.64        20.44821
495.08        20.60677
495.52         20.7489
495.96        20.92832
496.41        21.11761
496.85        21.17969
497.29        21.14655
497.73        21.23973
498.17        21.45335
498.61        21.56264
499.05         21.5738
499.49        21.66588
499.93        21.84225
500.37        22.00637
500.82         22.1409
501.26        22.25465
501.70        22.34254
502.14        22.40405
502.58        22.44432
503.02        22.47296
503.46        22.49767
503.90        22.51931
504.34        22.55377
504.78        22.62428
505.22        22.73304
505.66        22.87289
506.10        23.01648
506.54        23.11741
506.98        23.16311
507.42        23.16586
507.86        23.14939
508.30        23.15156
508.74        23.18525
509.18        23.24341
509.62        23.31393
510.06        23.37604
510.50         23.4243
510.94        23.46485
511.38        23.51163
511.82        23.58649
512.26        23.68744
512.70        23.79714
513.14        23.89063
513.58        23.93163
514.02        23.91221
514.46         23.8492
514.90         23.7536
515.34        23.64342
515.78        23.53455
516.22        23.42927
516.66         23.3528
517.10        23.34116
517.54        23.39743
517.98        23.50994
518.42        23.64331
518.86        23.73647
519.30        23.77021
519.74        23.75711
520.18        23.71633
520.62        23.68299
521.06        23.66667
521.50        23.65274
521.93        23.63747
522.37        23.61065
522.81        23.57311
523.25        23.53666
523.69        23.49487
524.13        23.43349
524.57        23.35567
525.01        23.26653
525.45        23.19452
525.89        23.18504
526.32        23.24147
526.76        23.34259
527.20        23.44843
527.64        23.49419
528.08        23.46368
528.52        23.38123
528.96        23.26937
529.40        23.16393
529.83        23.07832
530.27        23.00821
530.71        22.96358
531.15         22.9667
531.59        23.01416
532.03         23.0947
532.46        23.17238
532.90        23.19258
533.34        23.14456
533.78        23.03073
534.22        22.87729
534.66        22.76493
535.09        22.68734
535.53        22.55478
535.97        22.39774
536.41        22.34385
536.85        22.40158
537.28        22.51268
537.72        22.63497
538.16        22.72122
538.60        22.75459
539.04        22.74707
539.47        22.73137
539.91        22.77444
540.35        22.88297
540.79        23.04319
541.22        23.22277
541.66         23.3364
542.10        23.42931
542.54        23.47136
542.97        23.50058
543.41        23.56162
543.85        23.66101
544.29        23.78666
544.72        23.92038
545.16        24.04612
545.60        24.15554
546.04        24.25505
546.47        24.35549
546.91        24.47711
547.35         24.6231
547.79        24.77773
548.22        24.91241
548.66         25.0394
549.10        25.15716
549.53        25.15164
549.97        25.26642
550.41        25.37358
550.84        25.54376
551.28        25.76506
551.72        26.00064
552.15        26.16416
552.59         26.2531
553.03         26.3246
553.46         26.3908
553.90        26.48593
554.34         26.6197
554.77        26.73905
555.21        26.80892
555.65        27.06692
556.08        26.99597
556.52        27.03171
556.96        27.04188
557.39        27.08546
557.83        27.17768
558.27        27.26591
558.70        27.33729
559.14        27.50529
559.57        27.51709
560.01        27.62034
560.45        27.70789
560.88        27.70468
561.32        27.67114
561.75        27.62835
562.19        27.63383
562.63        27.90067
563.06         28.3041
563.50        28.23951
563.93        27.80426
564.37        27.73612
564.80        28.03197
565.24        28.23031
565.68        28.28776
566.11        28.38648
566.55        28.52578
566.98        28.61827
567.42         28.6953
567.85        28.80736
568.29        28.97192
568.72        29.14649
569.16        29.33653
569.60        29.48713
570.03        29.57381
570.47        29.62247
570.90        29.88706
571.34        29.66356
571.77        29.89815
572.21        29.96445
572.64        30.16421
573.08        30.12861
573.51        30.43421
573.95        30.93235
574.38        30.41212
574.82        30.78963
575.25        30.91435
575.69        31.01098
576.12        30.91783
576.56        30.66565
576.99        31.19739
577.42        30.94215
577.86        30.93942
578.29        30.95372
578.73        31.21397
579.16        30.82988
579.60        30.57419
580.03         30.4188
580.47        30.73107
580.90        30.31332
581.33        30.82553
581.77        30.95427
582.20        30.57195
582.64        30.38875
583.07        30.22354
583.51        30.01392
583.94        29.87951
584.37        30.00335
584.81        30.29016
585.24        30.23004
585.68        29.89998
586.11         29.5535
586.54        29.52753
586.98        29.34019
587.41        29.26401
587.85        29.49533
588.28        29.58482
588.71        28.94166
589.15        29.64293
589.58        29.12821
590.01        29.28691
590.45        29.16673
590.88        29.16561
591.31        29.19569
591.75        29.24648
592.18        29.23101
592.61        29.04496
593.05        29.47607
593.48         29.0524
593.91        29.08298
594.35        29.16042
594.78        29.38749
595.21        29.70158
595.65        29.79528
596.08        29.68531
596.51         29.9305
596.94        29.92824
597.38        30.17673
597.81        30.51869
598.24        30.33517
598.68        30.70341
599.11         31.0023
599.54        31.40044
599.97        31.68062
600.41        31.72505
600.84        32.02835
601.27        32.31477
601.70        32.78959
602.14        33.11829
602.57        33.33754
603.00        33.41234
603.43        33.61822
603.87        33.89432
604.30        34.23837
604.73        34.52825
605.16        34.60063
605.60        35.11734
606.03        35.48077
606.46        35.78104
606.89        36.10493
607.32         36.1699
607.76        36.38319
608.19        36.64526
608.62        37.21621
609.05        37.57192
609.48        37.73746
609.92        37.69519
610.35        37.77271
610.78        38.53728
611.21        38.90185
611.64        39.00413
612.07        39.38058
612.50        39.71028
612.94         39.9103
613.37        39.90202
613.80        40.05631
614.23        40.00556
614.66        40.35851
615.09        40.37788
615.52        40.58064
615.96        40.75334
616.39         41.1489
616.82        41.38806
617.25        41.58019
617.68        41.63327
618.11        41.73041
618.54        41.87197
618.97        41.91372
619.40        41.92251
619.84        42.02734
620.27        42.23381
620.70        42.65316
621.13        43.21276
621.56        43.10458
621.99        42.87762
622.42        43.23383
622.85        43.12775
623.28        43.25577
623.71        42.88135
624.14        43.51425
624.57        43.31653
625.00        43.51974
625.43          43.575
625.86        43.52798
626.29        43.39405
626.72        43.08751
627.15        43.04037
627.58        42.79028
628.01        42.50479
628.44        42.41793
628.87        42.47426
629.30        42.33415
629.73        42.01563
630.16        41.81211
630.59        41.72374
631.02        41.58501
631.45        41.36512
631.88         41.0952
632.31        40.77421
632.74         40.3952
633.17        40.01595
633.60        39.72842
634.03        39.54911
634.46         39.4542
634.89        39.37194
635.32        39.18171
635.75         38.8549
636.18        38.42897
636.61        37.97049
637.04        37.58509
637.47        37.30376
637.89         37.0884
638.32        36.87986
638.75        36.64229
639.18        36.36746
639.61        35.93014
640.04        35.64476
640.47        35.35535
640.90        35.15779
641.33        35.01897
641.76        34.90359
642.18        34.80393
642.61        34.70822
643.04        34.55022
643.47        34.32038
643.90        34.48663
644.33        34.31202
644.76        34.32994
645.18        34.33324
645.61        34.47857
646.04        34.70386
646.47        34.73604
646.90        34.61321
647.33        34.62999
647.75        34.80932
648.18        34.97527
648.61        35.14022
649.04        35.33006
649.47         35.5369
649.89         35.8132
650.32        36.13873
650.75        36.30109
651.18        36.35164
651.61        36.77859
652.03        37.51013
652.46          37.707
652.89        37.46022
653.32        37.78009
653.74        38.72383
654.17        38.98759
654.60         39.3704
655.03        39.88561
655.46        39.37757
655.88        39.93642
656.31        44.18692
656.74        43.41474
657.16        40.24132
657.59        39.93373
658.02        41.42644
658.45        41.48918
658.87        41.93774
659.30        41.65425
659.73         41.9385
660.15        42.71618
660.58        42.55697
661.01        42.73595
661.44        42.81823
661.86        43.04509
662.29        43.40055
662.72        43.65181
663.14        43.82571
663.57         44.1068
664.00        44.46053
664.42         44.6697
664.85        44.73145
665.27        44.73879
665.70        44.75098
666.13          44.827
666.55        44.99476
666.98        45.22722
667.41        45.49683
667.83        45.75412
668.26        45.96624
668.69        46.14985
669.11        46.29848
669.54        46.42184
669.96        46.51844
670.39        46.53794
670.82        46.52834
671.24         46.6017
671.67        46.77063
672.09        46.98317
672.52        47.19375
672.94        47.30664
673.37        47.31032
673.80        47.23632
674.22        47.14829
674.65        47.12493
675.07        47.20087
675.50        47.34747
675.92        47.54596
676.35        47.71755
676.77         47.8265
677.20        48.05889
677.62        48.19325
678.05        48.25747
678.47        48.15342
678.90        48.48779
679.32        48.26832
679.75        48.38499
680.17        48.54383
680.60        48.74815
681.02        48.95354
681.45        49.09505
681.87        49.17407
682.30        49.19693
682.72        49.19834
683.15        49.20753
683.57        49.24506
684.00        49.29732
684.42         49.3723
684.85        49.48114
685.27        49.60448
685.70        49.77406
686.12        49.94707
686.54        49.97441
686.97        49.87793
687.39        49.92717
687.82        50.08295
688.24        50.00037
688.66        49.74069
689.09        49.73749
689.51        50.00648
689.94        50.18937
690.36         50.2756
690.78        50.48474
691.21        50.79934
691.63        51.00727
692.06        51.13711
692.48        51.44447
692.90        51.85596
693.33        52.04278
693.75        51.98502
694.17         51.8028
694.60        51.60791
695.02        51.56526
695.44        51.66623
695.87        51.77712
696.29         51.8676
696.71        51.81884
697.14        51.73531
697.56        52.05606
697.98        52.66386
698.41        52.95604
698.83        52.88642
699.25        52.78136
699.68        52.71273
700.10        52.71174
700.52        52.80767
700.94        52.95125
701.37        53.11588
701.79        53.35845
702.21        53.60028
702.64        53.70912
703.06        53.69193
703.48        53.61668
703.90        53.48662
704.33        53.60698
704.75        53.34596
705.17        53.37224
705.59        53.50078
706.01         53.7085
706.44        53.95716
706.86        54.18374
707.28        54.34761
707.70        54.53366
708.12        54.71383
708.55        54.65232
708.97        54.43435
709.39         54.5056
709.81        54.80947
710.23        54.90838
710.66        54.77148
711.08        54.67197
711.50        54.65622
711.92        54.68876
712.34         54.7831
712.76        54.94905
713.19        55.12423
713.61        55.24233
714.03        55.26667
714.45        55.21783
714.87        55.15767
715.29        55.18448
715.71        55.31995
716.13        55.53593
716.56        55.75535
716.98        55.91849
717.40        55.97349
717.82        55.94458
718.24        55.89439
718.66        55.92374
719.08         56.0536
719.50        56.24964
719.92        56.44299
720.34        56.52383
720.76         56.4688
721.19        56.31987
721.61        56.14991
722.03         56.0643
722.45        56.09995
722.87        56.23414
723.29        56.42347
723.71        56.59533
724.13         56.7199
724.55        56.80224
724.97        56.88139
725.39        57.02143
725.81        57.22599
726.23        57.46942
726.65        57.65905
727.07        57.65141
727.49        57.43211
727.91        57.06199
728.33        56.68004
728.75        56.50383
729.17        56.58399
729.59        56.85303
730.01        57.20779
730.43        57.46211
730.85        57.55798
731.27        57.56674
731.69        57.51728
732.10        57.45498
732.52        57.40418
732.94        57.32944
733.36        57.30359
733.78        57.41525
734.20        57.66253
734.62        58.14156
735.04        58.67961
735.46        58.69601
735.88        58.28689
736.30        58.21157
736.72        58.48239
737.13        58.55385
737.55        58.37653
737.97        58.22361
738.39        58.16118
738.81        58.22102
739.23        58.40744
739.65        58.64513
740.06        58.83392
740.48        58.98485
740.90        59.05787
741.32        59.04601
741.74        58.97339
742.16        58.89712
742.57        58.83846
742.99        58.81857
743.41        58.86602
743.83        58.88911
744.25        58.94218
744.67        59.30568
745.08        59.84256
745.50        59.98687
745.92        59.68699
746.34        59.19846
746.75         58.6978
747.17         58.3922
747.59        58.33757
748.01        58.53582
748.42        58.87941
748.84        59.03921
749.26        59.02453
749.68        59.13276
750.09        59.36334
750.51         59.5833
750.93        59.73993
751.35        59.74395
751.76        59.65118
752.18        59.67791
752.60        59.84834
753.01        60.05232
753.43        60.21696
753.85         60.3178
754.27        60.34176
754.68        60.30365
755.10         60.2587
755.52        60.29054
755.93        60.40219
756.35        60.55091
756.77        60.70973
757.18        60.78123
757.60        60.75336
758.02        60.82254
758.43        60.89198
758.85        60.61435
759.26        60.05541
759.68        60.06173
760.10        60.54822
760.51        61.16389
760.93        61.12807
761.34         61.0328
761.76        60.78368
762.18        60.44867
762.59        60.20985
763.01        60.38333
763.42        60.92015
763.84        61.17953
764.26        61.10851
764.67        60.98362
765.09         60.9005
765.50         60.8725
765.92        60.91119
766.33        60.78444
766.75        60.44886
767.16        60.49597
767.58        60.63325
768.00        60.66606
768.41        60.64265
768.83         61.4298
769.24        62.72294
769.66        63.09962
770.07        62.58194
770.49        62.24075
770.90        62.22828
771.32        62.22544
771.73        62.19302
772.15        62.09623
772.56         61.9682
772.97        61.68879
773.39        61.80252
773.80        61.82505
774.22        61.87943
774.63        62.02185
775.05        62.18307
775.46         62.2851
775.88        62.28117
776.29        62.22804
776.70        62.15412
777.12         62.1334
777.53        62.19033
777.95        62.26269
778.36        62.35744
778.77         62.4126
779.19        62.41129
779.60        62.54182
780.02        62.69927
780.43        62.40274
780.84        61.84976
781.26        61.73582
781.67        62.06123
782.09        62.62986
782.50         62.9007
782.91        62.63963
783.33        61.95401
783.74        61.81707
784.15        62.31129
784.57        62.82135
784.98        63.24448
785.39        63.65617
785.81        63.99937
786.22         64.0482
786.63        64.18682
787.04        64.14998
787.46        64.09392
787.87        63.96217
788.28        63.85449
788.70         63.8795
789.11        64.02087
789.52        64.32603
789.93        64.65527
790.35        64.62233
790.76        64.27477
791.17        64.00455
791.58        63.87311
792.00        63.72625
792.41        63.61481
792.82        63.53324
793.23         63.5036
793.65        63.84463
794.06        64.37531
794.47        64.24216
794.88        63.62643
795.29        63.48201
795.71        63.79283
796.12        64.13435
796.53        64.36245
796.94        64.47266
797.35        64.40513
797.76        64.17921
798.18        63.93307
798.59        63.84556
799.00        63.97121
799.41        64.25143
799.82        64.61277
800.23        64.92512
800.64        65.13486
801.06        65.26232
801.47        65.33108
801.88        65.29359
802.29        65.15839
802.70        64.92467
803.11        64.67756
803.52        64.56168
803.93        64.61536
804.34        64.80824
804.75        65.04477
805.17        65.18977
805.58        65.24142
805.99        65.05695
806.40        64.73359
806.81        64.82024
807.22        65.17752
807.63        64.88144
808.04        64.07262
808.45        63.79275
808.86        64.11901
809.27        64.47538
809.68         64.7434
810.09        64.97237
810.50        65.10609
810.91         65.1435
811.32        65.07748
811.73        64.90337
812.14        64.64973
812.55        64.32126
812.96        64.06641
813.37         64.1329
813.78        64.55696
814.19        65.25601
814.60        66.00106
815.01        66.43958
815.42         66.4855
815.83        66.22144
816.24        65.79696
816.65        65.51538
817.05        65.49239
817.46        65.61388
817.87         65.7984
818.28        65.88476
818.69        65.82612
819.10        65.68423
819.51        65.50898
819.92        65.37868
820.33        65.32656
820.74        65.32085
821.14        65.32768
821.55        65.32806
821.96        65.30596
822.37        65.29343
822.78        65.31005
823.19        65.38058
823.60        65.51596
824.00        65.71482
824.41        65.94804
824.82         66.2726
825.23        66.66695
825.64        67.08705
826.04        67.46127
826.45        67.60477
826.86        67.50117
827.27         67.2084
827.68        66.77441
828.08        66.30201
828.49        65.82156
828.90        65.33851
829.31        64.95588
829.72        64.81943
830.12        64.98051
830.53        65.38343
830.94         65.8615
831.35        66.05752
831.75        65.89857
832.16        65.43913
832.57         64.9658
832.97        64.91753
833.38          65.361
833.79        66.13622
834.20        66.97843
834.60        67.43787
835.01        67.35944
835.42        66.92548
835.82        66.28972
836.23        65.67922
836.64        65.19898
837.04        64.79337
837.45        64.52277
837.86        64.54918
838.26        64.88806
838.67        65.47139
839.08        66.10279
839.48        66.41683
839.89        66.31259
840.29        65.89169
840.70        65.34594
841.11        64.95857
841.51        64.83209
841.92        64.85668
842.33        65.00163
842.73        65.22113
843.14        65.43285
843.54        65.71266
843.95        65.96542
844.35        66.08764
844.76        66.03255
845.17        65.81443
845.57        65.55967
845.98        65.46732
846.38        65.59841
846.79        65.88949
847.19        66.20621
847.60         66.2407
848.00        65.94854
848.41        65.40992
848.81        64.85045
849.22        64.59062
849.62         64.7189
850.03        65.11688
850.43        65.60351
850.84        65.73691
851.24        65.46379
851.65        64.88849
852.05        64.29258
852.46        64.10388
852.86        64.39951
853.27        65.01036
853.67         65.6862
854.07        66.26249
854.48        66.62467
854.88         66.9191
855.29        66.98177
855.69        66.77359
856.10        66.22731
856.50        65.45377
856.90        64.68049
857.31        64.24944
857.71        64.22897
858.12        64.49249
858.52        64.95517
858.92        65.24358
859.33         65.2228
859.73        65.04082
860.13        64.72477
860.54        64.35453
860.94        63.98592
861.34         63.5733
861.75        63.23717
862.15        63.23819
862.55        63.59423
862.96        64.21301
863.36        64.88151
863.76        65.16095
864.17        64.94927
864.57        64.39603
864.97        63.70634
865.38        63.22974
865.78        63.10397
866.18        63.20776
866.58        63.46337
866.99        63.72695
867.39        63.95419
867.79        64.18739
868.19        64.36408
868.60        64.36068
869.00        64.16532
869.40         63.7936
869.80        63.41802
870.21        63.36831
870.61        63.76116
871.01        64.43592
871.41         65.1096
871.81         65.3542
872.22        65.07494
872.62         64.4173
873.02        63.60456
873.42        63.00227
873.82        62.75351
874.22        62.78648
874.63         63.0006
875.03        63.23128
875.43        63.41916
875.83        63.59427
876.23        63.84716
876.63         64.3137
877.03        64.98637
877.44        65.77182
877.84        66.45428
878.24        66.64393
878.64        66.27567
879.04        65.49666
879.44        64.61762
879.84        64.10567
880.24        64.07106
880.64        64.37952
881.04         64.8426
881.44        65.14138
881.84        65.18111
882.24        65.07342
882.65        64.86763
883.05        64.74983
883.45        64.74291
883.85        64.77292
884.25        64.86481
884.65        65.07478
885.05        65.40046
885.45        65.84501
885.85        66.28144
886.25        66.48365
886.65        66.38881
887.05        66.03156
887.45        65.60555
887.85        65.42131
888.25        65.55034
888.65        65.92986
889.04        66.31298
889.44        66.27261
889.84        65.75172
890.24        64.88908
890.64        64.05108
891.04        63.76159
891.44        64.11503
891.84        64.97173
892.24        65.92057
892.64        66.26132
893.04        65.83036
893.44        64.84348
893.83        63.80272
894.23         63.4765
894.63         63.9963
895.03        65.12826
895.43        66.37875
895.83        66.85671
896.23        66.34042
896.63         65.1898
897.02        63.86927
897.42        63.12353
897.82        63.06442
898.22        63.49563
898.62         64.2032
899.01        64.85489
899.41        65.25817
899.81        65.52425
900.21        65.75747
900.61        66.12087
901.00        66.63602
901.40        67.19207
901.80        67.60446
902.20        67.61991
902.59        67.21822
902.99        66.51099
903.39        65.75023
903.79          65.333
904.18        65.33891
904.58        65.64769
904.98        66.06791
905.38        66.31121
905.77        66.28962
906.17        66.13238
906.57        65.84231
906.96         65.4363
907.36        64.95472
907.76        64.40673
908.15        63.99966
908.55        64.02952
908.95        64.55117
909.34        65.47321
909.74         66.4843
910.14         67.1393
910.53        67.28818
910.93        67.04057
911.33        66.56347
911.72          66.135
912.12        65.87502
912.52        65.70522
912.91        65.55858
913.31        65.32471
913.70        65.00311
914.10        64.67964
914.49        64.46251
914.89        64.47546
915.29        64.73712
915.68        65.16667
916.08        65.67576
916.47         66.1375
916.87        66.47674
917.26        66.71578
917.66        66.80393
918.05        66.67262
918.45        66.33031
918.84        65.83913
919.24        65.33141
919.64         65.1151
920.03        65.28926
920.42        65.75472
920.82        66.35526
921.21        66.87844
921.61        67.21556
922.00        67.40826
922.40        67.45665
922.79        67.43147
923.19        67.34337
923.58        67.18756
923.98        66.91236
924.37        66.39548
924.77        65.68171
925.16        64.82654
925.55        64.07386
925.95         63.8027
926.34        64.12653
926.74        64.89249
927.13        65.90817
927.52        66.76565
927.92        67.29947
928.31        67.58755
928.70        67.66512
929.10         67.6347
929.49        67.56538
929.89        67.43244
930.28        67.21072
930.67          66.837
931.07          66.319
931.46        65.68417
931.85        65.17335
932.24        65.15557
932.64        65.66659
933.03        66.62753
933.42        67.55208
933.82        67.70128
934.21        66.96032
934.60        65.55162
934.99        64.11412
935.39        63.60825
935.78        64.27631
936.17        65.87727
936.56        67.75697
936.96        68.67773
937.35        68.30637
937.74        67.00158
938.13        65.48199
938.53        64.71166
938.92        64.85406
939.31         65.6326
939.70        66.61687
940.09        67.04312
940.49        66.68619
940.88        65.85041
941.27        64.89893
941.66        64.34532
942.05        64.32921
942.44        64.68094
942.84        65.20884
943.23        65.65163
943.62        65.85514
944.01         65.9266
944.40        65.94144
944.79        66.01065
945.18         66.1646
945.57        66.32097
945.97        66.44987
946.36         66.6239
946.75        66.81025
947.14        67.02315
947.53        67.18106
947.92        67.12428
948.31        66.84304
948.70        66.41743
949.09         66.0196
949.48        65.90207
949.87        66.12785
950.26        66.62927
950.65        67.28979
951.04        67.89571
951.43        68.32832
951.82        68.58072
952.21        68.68537
952.60        68.71882
952.99          68.683
953.38        68.54298
953.77        68.19508
954.16        67.47643
954.55        66.44684
954.94        65.29794
955.33        64.25989
955.72        63.64863
956.11        63.53455
956.50        63.76271
956.89        64.32761
957.28        65.22311
957.66        66.39156
958.05         67.7058
958.44        68.72817
958.83        68.63819
959.22        67.33801
959.61        65.19966
960.00        62.94819
960.39        61.60503
960.78        61.39425
961.16        62.04368
961.55        63.22227
961.94        64.45052
962.33        65.47855
962.72        66.44575
963.11        67.12616
963.49        67.13647
963.88        66.40877
964.27        65.08849
964.66        63.65519
965.04        62.80082
965.43        62.64641
965.82        63.02814
966.21        63.68576
966.60        64.08787
966.98        64.05334
967.37        63.74097
967.76        63.28823
968.15        62.90248
968.53        62.67625
968.92        62.49838
969.31        62.40688
969.69        62.50171
970.08         62.7384
970.47        63.10091
970.86        63.43915
971.24         63.4771
971.63        63.11086
972.02        62.48687
972.40        61.74341
972.79        61.11871
973.17        60.73783
973.56        60.55296
973.95        60.61633
974.33        61.01251
974.72        61.67308
975.11        62.51635
975.49         63.5096
975.88        64.52872
976.26        65.48691
976.65        66.30591
977.04        66.63337
977.42        65.92154
977.81        64.18443
978.19        61.66531
978.58        59.39536
978.96        58.66814
979.35        59.71804
979.74        62.26744
980.12        65.59431
980.51        67.62724
980.89        67.81879
981.28        66.58081
981.66        64.73667
982.05        63.77277
982.43         64.0673
982.82        65.10944
983.20        66.65035
983.59         68.1188
983.97        69.33604
984.35        70.44213
984.74        71.07989
985.12         70.7952
985.51        69.54001
985.89         67.4007
986.28        65.12315
986.66         63.7606
987.04        63.70066
987.43        64.70692
987.81        66.13059
988.20        66.63434
988.58        65.91734
988.96        64.23952
989.35        62.51535
989.73        62.18078
990.12        63.47137
990.50        65.94508
990.88        68.40972
991.27        68.95173
991.65        67.25833
992.03        64.05494
992.42        60.61311
992.80        58.62012
993.18        58.63782
993.56        60.07352
993.95        62.27079
994.33        64.37447
994.71        65.74046
995.10        66.61816
995.48        66.82758
995.86        66.06617
996.24        64.46214
996.63        62.18599
997.01        59.75172
997.39         57.9107
997.77        56.87906
998.15        56.53173
998.54        56.88009
998.92         57.8493
999.30        59.30468
999.68        61.20639
1000.06        63.15855
1000.45        64.44136
1000.83        64.94846
1001.21        64.72125
1001.59        63.96163
1001.97        63.16534
1002.35        62.54753
1002.73        61.95105
1003.12        61.61222
1003.50        61.81995
1003.88        62.57795
1004.26        63.85907
1004.64        65.02294
1005.02        65.06741
1005.40        63.87089
1005.78         61.7089
1006.16        59.45086
1006.54        58.67551
1006.92        59.81473
1007.30        62.38033
1007.69         65.3598
1008.07        67.32567
1008.45        67.71032
1008.83        66.89932
1009.21        65.48194
1009.59         64.4501
1009.97        64.17058
1010.35        64.42016
1010.73         64.8438
1011.11        64.84448
1011.49        64.29888
1011.86         63.5712
1012.24        63.05891
1012.62        63.87828
1013.00        66.34992
1013.38        70.14787
1013.76        74.36187
1014.14        77.42384
1014.52        78.69993
1014.90        78.45187
1015.28        77.08973
1015.66        75.57383
1016.04        74.45737
1016.41        73.60825
1016.79        72.99969
1017.17         72.4344
1017.55        71.76887
1017.93        70.94774
1018.31        70.15587
1018.69        69.96527
1019.06        70.51147
1019.44        71.46761
1019.82        72.01509
1020.20        71.38705
1020.58        69.52473
1020.95        66.35004
1021.33        62.52462
1021.71        60.06714
1022.09        60.26808
1022.46        62.76821
1022.84        66.14387
1023.22        68.40184
1023.60        69.00101
1023.97        68.52601
1024.35        67.50098
1024.73        66.87199
