SpectraSmart Spectrum 2.9.0.0
--------- Device Information -----------
Spectrum Name :  反射率_0
Saving Time :  2024/05/01 17:08:10
Spectro-Module Model Name : SE2030-DUVN
Spectro-Module Serial Number : OS361AC55029948
Wavelength Start : 200
Wavelength End : 1025
Wavelength Unit : Wavelength(nm)
Spectrum Unit : Reflectance(%)
-----------Spectrum Setting ------------
Integration Time : 20ms
Average : 10
Boxcar : 0
Background removal :  enabled
linearity correction :  enabled
SC :  disabled
Intensity correction :  disabled
DWT denoise :  enabled
savitzky-golay :  disabled
FFT :  disabled
Running average :  disabled
Kalman :  disabled
High pass :  disabled
---------------BEGIN--------------------
Wavelength(nm)             Reflectance(%)
200.29               0
200.75       -7.935408
201.21        133.6192
201.67       -83.54434
202.13       -19.40465
202.58        13.55083
203.04        38.22749
203.50        56.56587
203.96        69.59877
204.42        82.86771
204.88        114.1222
205.34        904.1159
205.80       -78.04202
206.26       -65.13255
206.72       -126.7094
207.18       -522.4985
207.64        663.1396
208.10        262.0325
208.55        169.5456
209.01        128.6128
209.47        111.8113
209.93        108.6782
210.39        112.7974
210.85        124.1334
211.31        148.9584
211.77        235.1967
212.23        -464.756
212.69       -39.38545
213.14       -7.059082
213.60       -15.25896
214.06        214.3295
214.52        66.98336
214.98        68.55295
215.44        91.12627
215.90        173.0729
216.36         1444.71
216.81       -503.9284
217.27       -596.6792
217.73         1147.95
218.19        223.8869
218.65        161.1168
219.11        194.8957
219.57        378.3855
220.02        1210.541
220.48        713.5303
220.94        270.4109
221.40        153.0793
221.86        114.1731
222.32        106.2915
222.77        114.7465
223.23        136.9242
223.69        167.7245
224.15        178.6746
224.61        161.2968
225.06        135.8385
225.52        119.5869
225.98        118.0242
226.44        129.5275
226.90        153.3282
227.36        185.5561
227.81        203.4831
228.27        196.7524
228.73        179.3866
229.19        164.9448
229.65        161.4794
230.10        168.0755
230.56        181.8522
231.02        199.3618
231.48        209.2386
231.93        205.6695
232.39        195.9838
232.85        184.1307
233.31        173.0773
233.77        163.9834
234.22        155.8564
234.68        150.6245
235.14          150.59
235.60        156.2968
236.05        169.3319
236.51        189.1647
236.97        208.4274
237.43        217.9367
237.88        215.1282
238.34        204.3464
238.80        197.1166
239.26        196.8843
239.71         203.494
240.17        213.0967
240.63        211.9436
241.08        190.5081
241.54        159.0701
242.00        134.4887
242.46        125.3108
242.91         131.257
243.37         153.565
243.83        193.2531
244.28        214.7191
244.74        190.8127
245.20        154.3984
245.66        126.8939
246.11        111.1082
246.57        101.6768
247.03        92.95364
247.48        80.92441
247.94        61.97298
248.40        40.54134
248.85        23.95242
249.31         19.7621
249.77        28.00134
250.22        41.72261
250.68        55.95649
251.14         67.6868
251.59        76.78008
252.05         86.1533
252.51        101.2697
252.96         136.782
253.42        210.5393
253.88        253.2192
254.33        220.7484
254.79        186.2792
255.25        166.0269
255.70         153.045
256.16        145.0065
256.62        138.9795
257.07        133.5402
257.53        130.0413
257.99        127.8218
258.44        126.9366
258.90        128.6484
259.35        131.7493
259.81        136.0402
260.27        140.0508
260.72        141.9141
261.18        141.9745
261.63        140.3518
262.09        138.4595
262.55        136.8294
263.00        135.3482
263.46        134.2339
263.91        132.8233
264.37        131.1905
264.83        129.2259
265.28        127.0803
265.74        125.2794
266.19        123.8709
266.65        123.0754
267.11        122.5894
267.56         122.328
268.02        122.3603
268.47        122.5179
268.93        122.7719
269.38        122.7613
269.84         121.905
270.30        120.1587
270.75        117.6936
271.21        115.1023
271.66        113.0789
272.12        111.8607
272.57        111.0842
273.03        110.4879
273.48         109.479
273.94         108.027
274.39        106.2696
274.85        104.3978
275.31        102.4115
275.76        100.3464
276.22        98.35075
276.67        96.47736
277.13        95.15422
277.58        94.21431
278.04        93.61338
278.49        92.99044
278.95        92.07774
279.40         90.7007
279.86        89.12975
280.31         87.3573
280.77        85.67153
281.22        84.00584
281.68        82.45095
282.13         80.9443
282.59        79.65903
283.04        78.50419
283.50        77.57083
283.95        76.69716
284.41         75.7935
284.86        74.79788
285.32        73.79983
285.77        72.89198
286.22        72.35143
286.68         72.1617
287.13        72.15891
287.59        72.08533
288.04        71.47315
288.50        70.31956
288.95        68.75637
289.41        67.14935
289.86        65.80795
290.32        64.88847
290.77        64.23477
291.22        63.75826
291.68        63.29554
292.13        62.76471
292.59        62.25128
293.04        61.76272
293.50        61.38614
293.95        61.09971
294.40        60.87025
294.86        60.63376
295.31        60.31152
295.77        59.89705
296.22        59.40714
296.68        58.91862
297.13        58.48534
297.58        58.15273
298.04        57.93702
298.49        57.77905
298.95        57.64632
299.40         57.5017
299.85        57.34864
300.31        57.28384
300.76        57.41145
301.21        57.73502
301.67        58.20652
302.12        58.59746
302.58         58.6116
303.03        58.18307
303.48        57.46729
303.94        56.76847
304.39        56.40809
304.84        56.48694
305.30         56.8722
305.75        57.36201
306.20        57.68514
306.66        57.77047
307.11        57.67082
307.57        57.48064
308.02        57.24483
308.47        57.01896
308.93         56.7855
309.38        56.52663
309.83        56.29629
310.29        56.11637
310.74        55.97791
311.19         55.8722
311.65        55.75817
312.10         55.6129
312.55         55.4468
313.00        55.29602
313.46        55.21778
313.91        55.20846
314.36        55.24293
314.82        55.24722
315.27        55.12305
315.72        54.84473
316.18        54.46235
316.63        54.03452
317.08        53.67424
317.53        53.40996
317.99         53.2147
318.44        53.04766
318.89        52.84549
319.35        52.59576
319.80        52.32899
320.25        52.07952
320.70        51.89644
321.16        51.78022
321.61        51.71489
322.06        51.67111
322.51        51.61382
322.97        51.51347
323.42        51.39414
323.87        51.23281
324.32        51.01056
324.78        50.72517
325.23        50.40389
325.68        50.07263
326.13        49.78399
326.59        49.54446
327.04        49.37046
327.49        49.23882
327.94        49.12014
328.39        49.00264
328.85        48.87486
329.30        48.77684
329.75        48.71028
330.20        48.67553
330.66         48.6509
331.11        48.63413
331.56        48.56715
332.01        48.44354
332.46        48.27996
332.92        48.10626
333.37        48.02614
333.82        48.04845
334.27        48.15839
334.72        48.31708
335.17        48.45478
335.63        48.52885
336.08        48.57236
336.53        48.60095
336.98        48.66758
337.43        48.78531
337.88        48.94364
338.34        49.06947
338.79        49.08242
339.24        48.95292
339.69        48.70532
340.14        48.46415
340.59        48.42401
341.05        48.61058
341.50        48.97582
341.95        49.34625
342.40         49.4399
342.85        49.20607
343.30        48.75423
343.75        48.27398
344.20        48.05736
344.66        48.17608
345.11        48.52101
345.56        48.98208
346.01        49.37067
346.46        49.60753
346.91        49.74663
347.36        49.78522
347.81        49.71881
348.26        49.57013
348.72        49.34843
349.17        49.09769
349.62        48.94522
350.07        48.91038
350.52        48.94872
350.97        49.01252
351.42        49.01001
351.87        48.91698
352.32        48.78947
352.77         48.5889
353.22        48.25658
353.67         47.8105
354.13        47.27628
354.58        46.80458
355.03        46.68344
355.48        46.94588
355.93        47.51273
356.38        48.10597
356.83        48.25562
357.28        47.86052
357.73        47.07479
358.18        46.21295
358.63        45.74329
359.08        45.76139
359.53        46.11321
359.98        46.56315
360.43        46.71825
360.88         46.4662
361.33        45.94935
361.78        45.33438
362.23         44.8524
362.68        44.56762
363.13        44.40045
363.58        44.27813
364.03        44.09913
364.48        43.82938
364.93        43.50328
365.38        43.16963
365.83        42.89103
366.28        42.67481
366.73        42.49592
367.18          42.282
367.63        41.92575
368.08         41.4255
368.53        40.84104
368.98        40.27869
369.43        39.88533
369.88        39.68629
370.33        39.62757
370.78        39.64563
371.23        39.62878
371.68        39.53265
372.13        39.39296
372.58        39.20589
373.03        38.96342
373.48        38.67301
373.93        38.32652
374.38        37.98159
374.83        37.74572
375.28        37.63847
375.72        37.62292
376.17         37.6263
376.62        37.51358
377.07         37.2565
377.52        36.90044
377.97        36.50571
378.42        36.16862
378.87        35.91936
379.32        35.72729
379.77        35.57143
380.22        35.41832
380.67        35.25586
381.11        35.10557
381.56        34.95853
382.01        34.80565
382.46        34.65087
382.91        34.49207
383.36        34.34986
383.81         34.2615
384.26          34.222
384.71        34.20538
385.15        34.16825
385.60        34.06913
386.05        33.88995
386.50        33.65974
386.95        33.38503
387.40        33.07909
387.85        32.76385
388.29        32.42049
388.74        32.14842
389.19        31.99749
389.64        31.96716
390.09        32.03095
390.54        32.10941
390.98        32.06713
391.43        31.89807
391.88        31.64852
392.33        31.39219
392.78        31.24842
393.23        31.23713
393.67        31.26072
394.12        31.31193
394.57        31.41432
395.02         31.5022
395.47        31.37841
395.91        31.10563
396.36        30.96367
396.81        30.98889
397.26        31.04181
397.71        31.06613
398.15        31.05318
398.60        31.02636
399.05        30.86968
399.50        30.66339
399.95        30.74329
400.39        31.02246
400.84        30.92354
401.29        30.47165
401.74         30.2089
402.18        30.17356
402.63        30.04542
403.08         29.8465
403.53        29.74545
403.97        29.74114
404.42         29.7921
404.87        29.83978
405.32        29.79284
405.76        29.63044
406.21        29.39591
406.66        29.15169
407.11        28.99677
407.55        28.96433
408.00        29.02623
408.45         29.1386
408.90        29.17928
409.34        29.13261
409.79        29.10201
410.24        29.09868
410.68        29.07355
411.13        29.03632
411.58        29.01163
412.03        28.99543
412.47        28.97053
412.92        28.92732
413.37        28.88062
413.81         28.8277
414.26        28.78498
414.71        28.74644
415.15        28.71804
415.60        28.68253
416.05        28.64066
416.49        28.59122
416.94        28.52809
417.39        28.46322
417.83        28.41339
418.28        28.38027
418.73        28.35966
419.17        28.32743
419.62        28.23977
420.07        28.10099
420.51        27.93137
420.96        27.78924
421.41        27.72856
421.85        27.75005
422.30        27.83971
422.74        27.96952
423.19        28.12905
423.64        28.29647
424.08        28.48678
424.53        28.62753
424.98        28.63774
425.42        28.50869
425.87        28.26168
426.31        27.99292
426.76        27.86402
427.21        27.90606
427.65        28.07278
428.10        28.28913
428.54        28.44489
428.99        28.52094
429.44        28.51948
429.88        28.43178
430.33        28.42098
430.77         28.4221
431.22        28.10971
431.66        27.62482
432.11        27.58659
432.56         27.9505
433.00        28.19125
433.45         28.1269
433.89        27.86045
434.34        27.27688
434.78        27.37381
435.23         28.2539
435.67         28.4154
436.12        27.95931
436.57        27.90458
437.01         28.2602
437.46        28.35189
437.90        28.15604
438.35        28.03517
438.79        27.99516
439.24        27.86869
439.68        27.70703
440.13        27.74125
440.57        27.93351
441.02        28.05875
441.46        28.08339
441.91         28.0737
442.35        28.02023
442.80        28.10054
443.24        28.22897
443.69        28.04385
444.13        27.62382
444.58        27.42746
445.02        27.46977
445.47         27.5285
445.91        27.59107
446.36        27.73576
446.80        27.94029
447.24        28.17943
447.69        28.38857
448.13        28.46421
448.58        28.39337
449.02        28.19753
449.47         27.9667
449.91        27.82648
450.36        27.81754
450.80        27.89973
451.25         28.0067
451.69         28.0127
452.13         27.8947
452.58        27.69834
453.02         27.4894
453.47        27.38517
453.91        27.40664
454.36        27.52163
454.80        27.65721
455.24        27.70177
455.69        27.63654
456.13        27.48472
456.58        27.33327
457.02        27.27473
457.46        27.33697
457.91        27.48842
458.35        27.65413
458.79        27.67764
459.24        27.54591
459.68        27.38329
460.13        27.31273
460.57         26.9753
461.01         27.1721
461.46        27.26556
461.90        27.43346
462.34        27.47281
462.79        27.50921
463.23        27.45125
463.68        27.36605
464.12         27.3006
464.56        27.27511
465.01        27.30573
465.45         27.3362
465.89           27.35
466.34        27.33795
466.78        27.26957
467.22        27.17682
467.67        27.18999
468.11        27.21063
468.55        27.29809
468.99          27.383
469.44        27.42183
469.88         27.4078
470.32        27.35114
470.77        27.28646
471.21        27.27052
471.65        27.31364
472.10        27.40135
472.54        27.49298
472.98        27.54005
473.42        27.53297
473.87        27.50035
474.31        27.45157
474.75        27.42915
475.20        27.44986
475.64        27.48045
476.08        27.50682
476.52        27.57838
476.97        27.70127
477.41        27.72951
477.85        27.60131
478.29        27.99607
478.74        27.70428
479.18        27.66318
479.62        27.55863
480.06        27.57358
480.50        27.72288
480.95        27.55128
481.39        27.98863
481.83        27.75175
482.27        27.90378
482.72        27.83957
483.16         27.8194
483.60         27.8666
484.04        27.96753
484.48        28.05512
484.93        28.25484
485.37        28.50686
485.81        28.70824
486.25        29.25531
486.69          28.908
487.14        28.10244
487.58        28.10549
488.02        28.96707
488.46        28.52284
488.90        28.27165
489.34        28.72619
489.79        28.47746
490.23        28.80267
490.67        29.00917
491.11        29.32473
491.55         29.3883
491.99        29.23493
492.43        29.23326
492.88        29.39727
493.32        29.51391
493.76        29.57087
494.20        29.67584
494.64        29.83566
495.08        29.99289
495.52        30.12284
495.96        30.28167
496.41        30.43151
496.85        30.35274
497.29        30.13393
497.73        30.22471
498.17        30.58878
498.61        30.71724
499.05          30.613
499.49        30.67268
499.93        30.89807
500.37        31.06103
500.82        31.14532
501.26        31.22761
501.70        31.30694
502.14        31.36752
502.58        31.40382
503.02        31.40926
503.46        31.39056
503.90        31.35639
504.34        31.34807
504.78        31.42718
505.22        31.60179
505.66        31.85171
506.10        32.11137
506.54        32.27131
506.98        32.30367
507.42        32.23985
507.86        32.13881
508.30        32.09454
508.74        32.13411
509.18        32.23123
509.62        32.35229
510.06        32.44175
510.50        32.48196
510.94        32.49165
511.38        32.49237
511.82        32.51582
512.26         32.5676
512.70        32.63101
513.14        32.68501
513.58        32.69979
514.02        32.67018
514.46        32.61198
514.90        32.54097
515.34         32.4813
515.78        32.44409
516.22        32.42334
516.66        32.42441
517.10        32.45451
517.54        32.50989
517.98        32.58678
518.42        32.66388
518.86        32.70481
519.30         32.7016
519.74        32.66428
520.18        32.61111
520.62        32.57415
521.06         32.5611
521.50        32.55817
521.93        32.56281
522.37        32.56412
522.81        32.55994
523.25        32.55877
523.69          32.543
524.13        32.48239
524.57        32.37981
525.01        32.24872
525.45        32.13275
525.89        32.10109
526.32        32.16359
526.76        32.29144
527.20         32.4389
527.64        32.53179
528.08        32.54634
528.52        32.50641
528.96        32.42455
529.40        32.32205
529.83        32.20955
530.27        32.08949
530.71        31.98347
531.15        31.93438
531.59        31.94808
532.03        32.01335
532.46        32.08861
532.90        32.11235
533.34        32.07019
533.78        31.95549
534.22        31.80626
534.66        31.73647
535.09        31.73028
535.53        31.65883
535.97        31.52672
536.41        31.45524
536.85         31.4511
537.28        31.45141
537.72        31.45822
538.16        31.50355
538.60        31.58298
539.04        31.67833
539.47        31.77869
539.91        31.88842
540.35        31.99365
540.79         32.1058
541.22        32.20554
541.66        32.21676
542.10        32.22064
542.54        32.16349
542.97        32.10645
543.41        32.12393
543.85        32.22528
544.29        32.39432
544.72        32.58471
545.16        32.73871
545.60        32.83583
546.04        32.89131
546.47        32.94199
546.91        33.05344
547.35        33.23822
547.79        33.46119
548.22        33.65857
548.66        33.80967
549.10        33.90491
549.53        33.80573
549.97        33.86035
550.41        33.93136
550.84        34.12413
551.28        34.41096
551.72        34.73067
552.15        34.94902
552.59        35.05466
553.03         35.1282
553.46        35.18678
553.90        35.27682
554.34        35.41191
554.77        35.52059
555.21        35.55699
555.65        35.83786
556.08        35.68305
556.52         35.6753
556.96        35.64445
557.39        35.67418
557.83         35.7843
558.27        35.89891
558.70        36.00287
559.14        36.24775
559.57        36.29683
560.01        36.47564
560.45        36.61963
560.88         36.5941
561.32        36.47657
561.75         36.3082
562.19        36.20733
562.63        36.50816
563.06         37.0572
563.50        37.06799
563.93        36.61782
564.37        36.54536
564.80        36.85825
565.24        37.09458
565.68        37.19979
566.11        37.30833
566.55         37.4227
566.98        37.49208
567.42        37.55884
567.85        37.65842
568.29        37.81535
568.72          37.987
569.16        38.18592
569.60        38.34231
570.03        38.42422
570.47        38.46955
570.90         38.8067
571.34        38.47909
571.77        38.78608
572.21        38.85298
572.64        39.08165
573.08        39.01725
573.51        39.44049
573.95        39.89962
574.38        39.43819
574.82        39.84899
575.25        40.07232
575.69        40.13651
576.12        39.88882
576.56         39.7464
576.99        40.21581
577.42         40.0754
577.86        39.98893
578.29        40.26902
578.73        40.75681
579.16        39.97824
579.60        39.59691
580.03        39.44279
580.47        39.84443
580.90        39.37665
581.33        40.16909
581.77        40.02727
582.20        40.29332
582.64        39.85511
583.07        39.76441
583.51        39.40453
583.94        39.20511
584.37        39.16062
584.81        39.25048
585.24        39.27402
585.68         39.2136
586.11         38.9203
586.54        38.88776
586.98        38.67006
587.41        38.37541
587.85         38.8023
588.28        38.89457
588.71        38.16328
589.15        38.74038
589.58        38.31332
590.01        38.28059
590.45        38.22065
590.88        38.34451
591.31        38.51735
591.75        38.64536
592.18        38.58803
592.61        38.17277
593.05        38.55481
593.48        38.50718
593.91        38.71546
594.35        38.65044
594.78        38.60326
595.21        38.51487
595.65        38.87779
596.08        39.11078
596.51        39.19535
596.94        39.06476
597.38        39.19847
597.81        39.71898
598.24        39.37735
598.68        39.98584
599.11        40.10384
599.54        40.69822
599.97         40.6373
600.41        41.14059
600.84         41.4162
601.27        41.79173
601.70        42.29215
602.14        42.59574
602.57        42.83793
603.00        42.97611
603.43        43.02522
603.87        43.30899
604.30        43.76585
604.73        43.93743
605.16        44.07212
605.60        44.54408
606.03        45.02189
606.46        45.49665
606.89        45.75986
607.32        45.78423
607.76        45.98261
608.19        46.36222
608.62        47.00774
609.05        47.24159
609.48         47.6703
609.92        47.79455
610.35        47.51755
610.78        48.68147
611.21        48.98434
611.64        48.80737
612.07        49.16475
612.50        49.64051
612.94        49.82032
613.37        49.79252
613.80        50.10313
614.23        50.11556
614.66        50.62317
615.09        50.61076
615.52        50.85577
615.96        51.08837
616.39         51.3534
616.82        51.37326
617.25        51.69613
617.68        52.16412
618.11        52.29757
618.54        52.13696
618.97        52.18059
619.40        52.48385
619.84        52.65051
620.27        52.66168
620.70        52.98244
621.13        53.59095
621.56         53.1694
621.99        53.09182
622.42        53.33912
622.85        53.42542
623.28        53.58124
623.71        53.39176
624.14        53.73602
624.57        53.69853
625.00         53.9418
625.43        54.14086
625.86        54.00282
626.29        53.54098
626.72         53.4136
627.15        53.30356
627.58        53.09674
628.01        52.68645
628.44        52.91049
628.87        52.98755
629.30        52.65012
629.73        52.25538
630.16        51.94905
630.59        51.89355
631.02        51.79129
631.45        51.61171
631.88        51.39876
632.31        51.13308
632.74        50.85554
633.17        50.50222
633.60        50.18867
634.03         49.8992
634.46        49.63183
634.89        49.35952
635.32        49.03758
635.75        48.66265
636.18        48.25398
636.61        47.85157
637.04        47.51577
637.47        47.26048
637.89        47.05511
638.32        46.84258
638.75        46.60593
639.18        46.34187
639.61        45.87744
640.04        45.59124
640.47        45.25494
640.90        44.98694
641.33        44.75492
641.76        44.55082
642.18        44.42297
642.61        44.36821
643.04         44.2859
643.47        44.11287
643.90        44.36902
644.33        44.08953
644.76        43.98675
645.18        43.85024
645.61        43.96824
646.04        44.28493
646.47        44.42449
646.90        44.38748
647.33        44.47631
647.75        44.69667
648.18        44.84467
648.61        44.94472
649.04        45.13082
649.47        45.38941
649.89        45.71671
650.32        46.07367
650.75         46.2357
651.18        46.28828
651.61        46.78157
652.03        47.63183
652.46        48.00997
652.89        47.94221
653.32        48.13416
653.74        48.73198
654.17        49.02884
654.60        49.56407
655.03         50.0733
655.46        49.66136
655.88        50.67046
656.31        56.82796
656.74        56.95094
657.16        52.09253
657.59        50.58612
658.02        52.10363
658.45        52.57493
658.87        53.16476
659.30        52.76369
659.73        53.49138
660.15        53.93381
660.58        53.87704
661.01         53.9753
661.44        54.09808
661.86        54.50761
662.29        55.12814
662.72         55.5206
663.14        55.69599
663.57        56.03803
664.00        56.50583
664.42        56.73751
664.85        56.73477
665.27        56.66287
665.70        56.61362
666.13        56.67204
666.55        56.87752
666.98        57.19232
667.41        57.56512
667.83        57.90453
668.26        58.16097
668.69        58.36412
669.11        58.51109
669.54        58.62283
669.96        58.70364
670.39        58.68729
670.82        58.64691
671.24        58.74437
671.67        58.99817
672.09        59.33658
672.52        59.67799
672.94         59.8658
673.37        59.87585
673.80        59.75561
674.22        59.60646
674.65        59.56628
675.07        59.69317
675.50         59.9296
675.92         60.2206
676.35        60.47048
676.77        60.65063
677.20        60.78453
677.62        60.89612
678.05        61.00737
678.47        61.12879
678.90        61.25695
679.32         61.3782
679.75          61.498
680.17        61.61067
680.60        61.71718
681.02        61.83995
681.45        61.99267
681.87        62.18506
682.30        62.41876
682.72        62.65684
683.15        62.76121
683.57         62.7479
684.00        62.74377
684.42        62.78708
684.85        62.86526
685.27        62.98093
685.70        63.15163
686.12        63.31226
686.54        63.44149
686.97        63.53198
687.39        63.41661
687.82        63.31363
688.24        63.46241
688.66        62.98659
689.09        63.13812
689.51        63.57198
689.94        63.87644
690.36        64.02342
690.78        64.18524
691.21         64.4386
691.63        64.92259
692.06        65.56123
692.48        66.01261
692.90        66.21007
693.33        66.34656
693.75        66.41983
694.17        66.21504
694.60        65.87215
695.02        65.75141
695.44         65.8449
695.87        65.99405
696.29        66.13323
696.71         65.9555
697.14        65.64083
697.56        66.01813
697.98        66.94072
698.41        67.40129
698.83        67.34641
699.25        67.38828
699.68        67.56106
700.10        67.67674
700.52        67.74265
700.94        67.78448
701.37        67.82561
701.79        68.00941
702.21        68.26743
702.64        68.40859
703.06        68.42096
703.48        68.35744
703.90        68.20612
704.33          68.365
704.75        68.03004
705.17        68.05676
705.59        68.21593
706.01        68.47695
706.44        68.78176
706.86        69.07326
707.28        69.31001
707.70         69.5004
708.12         69.6467
708.55        69.74352
708.97        69.79295
709.39        69.80135
709.81        69.79208
710.23        69.81316
710.66        69.87707
711.08        69.98942
711.50        70.11533
711.92        70.21223
712.34         70.2719
712.76        70.30954
713.19        70.33141
713.61        70.39848
714.03        70.49828
714.45        70.61114
714.87        70.73363
715.29        70.86279
715.71        70.99371
716.13        71.13223
716.56        71.23041
716.98        71.29739
717.40        71.30089
717.82        71.24855
718.24         71.1966
718.66        71.23691
719.08        71.38455
719.50        71.61059
719.92        71.84297
720.34         71.9623
720.76        71.93903
721.19        71.81538
721.61        71.66924
722.03        71.57588
722.45        71.56731
722.87        71.70409
723.29        71.96937
723.71        71.93115
724.13        72.20122
724.55         72.2654
724.97        72.36247
725.39        72.55345
725.81        72.84444
726.23        73.20192
726.65        73.49092
727.07        73.51724
727.49        73.25861
727.91        72.79342
728.33        72.31848
728.75        72.14536
729.17        72.34163
729.59          72.805
730.01        73.37291
730.43        73.75813
730.85        73.87089
731.27        73.81657
731.69        73.65523
732.10        73.48029
732.52        73.34235
732.94        73.19327
733.36        73.11926
733.78        73.24614
734.20        73.57235
734.62        74.14567
735.04        74.77483
735.46        74.92186
735.88        74.63386
736.30        74.51984
736.72        74.61624
737.13        74.56598
737.55        74.37337
737.97        74.23695
738.39        74.22138
738.81        74.49226
739.23        74.95384
739.65        75.12347
740.06        74.96687
740.48        74.97594
740.90        75.13129
741.32        75.17889
741.74        75.08589
742.16        74.95988
742.57        74.82062
742.99        74.63673
743.41        74.52558
743.83        74.64115
744.25        75.00179
744.67        75.58249
745.08        76.20941
745.50        76.48362
745.92        76.33182
746.34         75.8664
746.75        75.29192
747.17        74.91836
747.59        74.80964
748.01         75.0246
748.42         75.4219
748.84        75.40146
749.26        75.06546
749.68        75.20821
750.09         75.7766
750.51        76.11727
750.93        76.17649
751.35        76.24354
751.76        76.36265
752.18        76.50504
752.60        76.68393
753.01        76.88928
753.43        77.06817
753.85        77.20897
754.27        77.30657
754.68        77.36675
755.10        77.41643
755.52         77.4974
755.93        77.60356
756.35        77.70376
756.77        77.78802
757.18        77.81522
757.60        77.81767
758.02         77.8783
758.43        77.82919
758.85        77.70898
759.26        77.36462
759.68        76.78677
760.10        77.62511
760.51        78.57534
760.93         78.4248
761.34        77.76533
761.76        78.07534
762.18        77.64682
762.59        77.25169
763.01        77.53939
763.42        78.41138
763.84        78.78136
764.26        78.55477
764.67        78.13815
765.09        77.76524
765.50        77.89275
765.92         78.1041
766.33        78.23798
766.75        78.07795
767.16        78.12256
767.58        78.36663
768.00        78.53067
768.41        78.74744
768.83        79.46025
769.24        80.42772
769.66        80.99295
770.07        81.00785
770.49        80.30948
770.90        79.27833
771.32        79.24421
771.73        80.09229
772.15        80.27426
772.56        79.73977
772.97        79.48504
773.39        79.56323
773.80        79.60896
774.22         79.5844
774.63        79.64263
775.05        79.74261
775.46        79.89404
775.88        80.05618
776.29          80.245
776.70        80.40746
777.12        80.49965
777.53         80.5235
777.95        80.45042
778.36        80.35452
778.77        80.29797
779.19        80.30048
779.60        80.46442
780.02        80.67767
780.43        80.54063
780.84        80.17441
781.26          80.077
781.67        80.28573
782.09         80.6539
782.50        80.99226
782.91        80.76077
783.33        80.14702
783.74        80.09793
784.15        80.69105
784.57        81.32629
784.98        81.90694
785.39        82.47549
785.81        82.95599
786.22        83.10144
786.63        83.36641
787.04         83.2463
787.46        82.98772
787.87        82.75505
788.28        82.65435
788.70        82.63961
789.11        82.69811
789.52        82.93382
789.93        83.22933
790.35        83.31915
790.76         83.1851
791.17        82.89473
791.58         82.5537
792.00        82.35921
792.41         82.3893
792.82        82.43534
793.23         82.4739
793.65        82.86604
794.06        83.41551
794.47         83.2076
794.88        82.49493
795.29        82.37826
795.71        82.83865
796.12        83.42001
796.53        83.89419
796.94        84.10883
797.35        83.95457
797.76        83.49308
798.18        82.94277
798.59        82.63898
799.00        82.68868
799.41        82.80618
799.82        83.24906
800.23        83.61424
800.64        83.93031
801.06        84.20142
801.47        84.41412
801.88        84.41724
802.29        84.19266
802.70        83.76744
803.11        83.28768
803.52        83.00227
803.93        82.99918
804.34        83.23549
804.75        83.59399
805.17        83.95811
805.58        84.32472
805.99        84.32435
806.40        84.08804
806.81        84.69519
807.22        85.77814
807.63        85.32949
808.04         83.6196
808.45        82.88097
808.86        83.30401
809.27        83.66095
809.68        83.81538
810.09        84.09724
810.50        84.44726
810.91        84.79221
811.32        85.06139
811.73        85.13767
812.14        85.00989
812.55        84.70473
812.96        84.40708
813.37        84.43347
813.78         84.8475
814.19        85.55138
814.60        86.29851
815.01        86.70714
815.42        86.68475
815.83        86.32864
816.24        85.81464
816.65        85.48688
817.05        85.47637
817.46        85.65748
817.87        85.91467
818.28        86.02391
818.69        85.92608
819.10        85.69218
819.51         85.4315
819.92        85.33191
820.33        85.44276
820.74        85.68375
821.14        85.92121
821.55        85.99613
821.96        85.86031
822.37        85.59624
822.78        85.29666
823.19        85.11991
823.60        85.13766
824.00        85.32687
824.41        85.63155
824.82        86.08911
825.23        86.65102
825.64        87.26861
826.04         87.8513
826.45        88.15015
826.86        88.14021
827.27        87.89796
827.68        87.44365
828.08        86.85192
828.49        86.15928
828.90        85.38025
829.31        84.75537
829.72        84.64571
830.12        85.15156
830.53        86.16417
830.94        87.29795
831.35        87.78128
831.75         87.4333
832.16        86.41021
832.57        85.30281
832.97         85.0225
833.38        85.73597
833.79        87.14275
834.20        88.69807
834.60        89.47375
835.01        89.17064
835.42        88.14104
835.82        86.79546
836.23        85.74998
836.64        85.22089
837.04        85.04757
837.45        85.12356
837.86        85.35423
838.26        85.67849
838.67        86.10136
839.08        86.56382
839.48        86.90868
839.89         87.0703
840.29        87.05775
840.70        86.91183
841.11        86.69097
841.51        86.45108
841.92        86.16562
842.33        85.93233
842.73        85.91296
843.14        86.08559
843.54        86.47977
843.95        86.93116
844.35         87.2486
844.76          87.328
845.17        87.20967
845.57        87.02152
845.98        86.96135
846.38        87.09676
846.79        87.34704
847.19        87.57697
847.60          87.458
848.00        86.96909
848.41        86.21331
848.81        85.46851
849.22        85.13126
849.62        85.30512
850.03        85.83948
850.43        86.52448
850.84        86.81167
851.24        86.63985
851.65        86.13304
852.05        85.58353
852.46        85.41796
852.86        85.71379
853.27        86.28328
853.67        86.93361
854.07        87.65381
854.48         88.3176
854.88        89.08177
855.29        89.55025
855.69        89.32251
856.10        88.20773
856.50        86.49002
856.90        84.74132
857.31         83.7835
857.71        83.78098
858.12        84.47404
858.52         85.5902
858.92        86.32258
859.33        86.37259
859.73        86.02155
860.13        85.42587
860.54        84.87933
860.94        84.50435
861.34        84.16202
861.75        83.92684
862.15        84.02412
862.55        84.44203
862.96        85.13259
863.36        85.86008
863.76        86.12181
864.17        85.81409
864.57        85.09904
864.97        84.27177
865.38        83.83492
865.78         83.9584
866.18         84.4579
866.58        85.11866
866.99        85.54572
867.39        85.64028
867.79         85.5356
868.19        85.27065
868.60        84.85706
869.00        84.33145
869.40         83.6618
869.80        83.08916
870.21         83.0673
870.61        83.72909
871.01        84.86243
871.41        85.98003
871.81        86.33686
872.22        85.78238
872.62        84.55789
873.02        83.09462
873.42        82.11537
873.82        81.86641
874.22        82.16721
874.63        82.78148
875.03         83.3207
875.43        83.65202
875.83        83.87819
876.23        84.13042
876.63        84.60331
877.03        85.31319
877.44         86.1281
877.84         86.8433
878.24         87.0854
878.64        86.78809
879.04        86.09975
879.44        85.30972
879.84        84.84916
880.24        84.81615
880.64         85.0761
881.04        85.46696
881.44        85.70927
881.84        85.72402
882.24        85.63386
882.65        85.42779
883.05        85.22387
883.45        85.02851
883.85        84.79357
884.25        84.68719
884.65        84.97323
885.05        85.66727
885.45        86.70325
885.85        87.73956
886.25        88.17899
886.65        87.86531
887.05        86.94963
887.45        85.85753
887.85        85.26836
888.25        85.35278
888.65        85.93484
889.04        86.62068
889.44        86.74619
889.84        86.17654
890.24        85.12971
890.64        84.04444
891.04        83.53478
891.44        83.73061
891.84        84.47557
892.24        85.32294
892.64        85.52576
893.04        84.92661
893.44         83.7662
893.83        82.64182
894.23        82.47484
894.63        83.39673
895.03        85.11146
895.43        86.95902
895.83         87.7402
896.23         87.1541
896.63        85.68528
897.02         83.9361
897.42        82.88134
897.82        82.68592
898.22        83.09583
898.62        83.92617
899.01        84.90007
899.41        85.78993
899.81        86.69897
900.21        87.58965
900.61        88.37708
901.00        89.00449
901.40         89.3871
901.80        89.47227
902.20        89.23242
902.59        88.71941
902.99        88.00745
903.39        87.26152
903.79        86.73003
904.18        86.47363
904.58        86.45191
904.98        86.61199
905.38        86.86536
905.77        87.15433
906.17        87.53419
906.57        87.83942
906.96        87.82212
907.36        87.43618
907.76        86.75001
908.15        86.11019
908.55        86.04131
908.95        86.65918
909.34        87.80403
909.74        89.02443
910.14        89.66122
910.53        89.52612
910.93        88.82605
911.33        87.88091
911.72        87.19518
912.12        86.94693
912.52        86.98241
912.91        87.13707
913.31        87.13058
913.70        86.89821
914.10        86.56011
914.49        86.25688
914.89         86.1654
915.29         86.3259
915.68        86.65297
916.08        87.02958
916.47        87.30536
916.87        87.42001
917.26        87.42815
917.66        87.37278
918.05         87.3043
918.45        87.24287
918.84        87.21509
919.24        87.22864
919.64        87.40002
920.03         87.7531
920.42        88.21509
920.82        88.70959
921.21        89.14063
921.61        89.42854
922.00        89.58979
922.40        89.57592
922.79        89.42423
923.19        89.14569
923.58        88.77924
923.98        88.32174
924.37        87.66061
924.77        86.85816
925.16        85.94901
925.55        85.19407
925.95        84.99072
926.34         85.4598
926.74        86.42989
927.13        87.64175
927.52        88.56547
927.92        89.02395
928.31         89.1517
928.70        89.07988
929.10        89.07874
929.49        89.25705
929.89         89.4913
930.28        89.71385
930.67        89.77556
931.07        89.61948
931.46        89.30791
931.85        88.94022
932.24        88.66779
932.64        88.54446
933.03        88.59166
933.42        88.62254
933.82        88.36789
934.21        87.78959
934.60        86.95089
934.99        86.24944
935.39         86.2461
935.78        87.07472
936.17        88.61597
936.56        90.22668
936.96         90.7392
937.35        89.90553
937.74        88.02419
938.13        86.01446
938.53        85.10588
938.92        85.47656
939.31        86.86147
939.70        88.50396
940.09        89.01759
940.49        88.06964
940.88        86.16687
941.27        84.23254
941.66         83.6376
942.05        84.68175
942.44        86.93611
942.84        89.62601
943.23        91.43255
943.62        91.77901
944.01        91.08807
944.40        89.87104
944.79        88.95677
945.18        88.62982
945.57        88.58924
945.97        88.74881
946.36        89.09645
946.75        89.54257
947.14        90.19495
947.53        90.82787
947.92        90.97869
948.31        90.55814
948.70        89.67067
949.09        88.73772
949.48        88.42343
949.87        88.87916
950.26        89.95607
950.65        91.22574
951.04        91.93095
951.43        91.83157
951.82        91.08773
952.21        90.19033
952.60        89.89615
952.99        90.33611
953.38        91.28916
953.77        92.14533
954.16        91.84485
954.55        90.23717
954.94        87.84223
955.33        85.46696
955.72         84.3114
956.11        84.64758
956.50        85.99615
956.89        87.97044
957.28        89.96586
957.66        91.71422
958.05        93.23455
958.44        94.13142
958.83        93.65357
959.22        91.80442
959.61        88.94904
960.00         85.9863
960.39         84.1926
960.78        83.84293
961.16        84.64826
961.55        86.16216
961.94        87.68744
962.33        88.89783
962.72        89.97412
963.11        90.74621
963.49        90.93774
963.88        90.47957
964.27        89.45808
964.66         88.2701
965.04        87.52253
965.43        87.33135
965.82        87.54214
966.21        87.98569
966.60        88.28942
966.98        88.32986
967.37        88.22057
967.76        87.96133
968.15        87.50523
968.53        86.90997
968.92        86.16122
969.31        85.52573
969.69         85.4532
970.08        85.96399
970.47        86.94189
970.86        88.02937
971.24        88.56993
971.63        88.28459
972.02         87.4363
972.40        86.29196
972.79        85.32203
973.17        84.70323
973.56        84.31781
973.95        84.17598
974.33        84.32095
974.72        84.65034
975.11        85.13216
975.49        85.73419
975.88        86.25517
976.26        86.67976
976.65        86.96962
977.04        86.91843
977.42        86.16883
977.81        84.76197
978.19        82.84711
978.58        81.32813
978.96        81.31463
979.35        82.96878
979.74        86.04301
980.12        89.84695
980.51           92.26
980.89        92.75703
981.28        91.68956
981.66         89.8719
982.05        88.75599
982.43        88.75881
982.82        89.38683
983.20        90.55266
983.59        91.89388
983.97        93.29832
984.35        94.84026
984.74        95.98782
985.12        95.99102
985.51         94.7282
985.89         92.3764
986.28        89.81522
986.66        88.33138
987.04        88.37853
987.43        89.62466
987.81        91.36195
988.20        92.11341
988.58         91.5247
988.96        89.85513
989.35        88.02048
989.73        87.46053
990.12        88.41742
990.50         90.4799
990.88        92.42613
991.27        92.31461
991.65        89.87711
992.03        85.87569
992.42         81.7593
992.80        79.45669
993.18        79.56389
993.56         81.4261
993.95        84.14021
994.33        86.43887
994.71        87.56345
995.10         87.9308
995.48        87.61722
995.86        86.72598
996.24        85.48855
996.63        83.86266
997.01        82.31042
997.39        81.57953
997.77        81.81148
998.15        82.89974
998.54        84.45664
998.92        85.72701
999.30        86.40485
999.68        86.65227
1000.06        86.67512
1000.45        86.83375
1000.83        87.37701
1001.21        88.01169
1001.59        88.56619
1001.97        88.81955
1002.35        88.66754
1002.73         88.2049
1003.12          87.481
1003.50        86.49615
1003.88        85.39513
1004.26        84.33103
1004.64        83.38616
1005.02        82.62305
1005.40        82.09616
1005.78        81.79048
1006.16        81.93184
1006.54        82.89064
1006.92        84.60291
1007.30        86.77332
1007.69        88.76778
1008.07        89.85887
1008.45        89.72395
1008.83        88.62915
1009.21        86.82184
1009.59        84.73972
1009.97        82.72597
1010.35         80.8343
1010.73        79.51446
1011.11        79.49651
1011.49        80.99091
1011.86        84.02172
1012.24        87.94315
1012.62        91.92499
1013.00        95.41114
1013.38        98.29757
1013.76        100.2804
1014.14        101.1246
1014.52        100.8026
1014.90          99.328
1015.28        96.92334
1015.66        94.29065
1016.04        92.01731
1016.41        90.18807
1016.79        89.03846
1017.17        88.43182
1017.55        88.13024
1017.93        87.99722
1018.31        87.71532
1018.69        86.65183
1019.06        84.87141
1019.44        83.15874
1019.82        81.52406
1020.20        79.54165
1020.58        77.04759
1020.95        73.84573
1021.33        70.88868
1021.71        70.77043
1022.09        74.63508
1022.46        81.46273
1022.84         88.8956
1023.22        94.01122
1023.60        96.03867
1023.97        95.79653
1024.35         93.3941
1024.73        89.40269
