SpectraSmart Spectrum 2.9.0.0
--------- Device Information -----------
Spectrum Name :  反射率_0
Saving Time :  2024/05/01 17:20:38
Spectro-Module Model Name : SE2030-DUVN
Spectro-Module Serial Number : OS361AC55029948
Wavelength Start : 200
Wavelength End : 1025
Wavelength Unit : Wavelength(nm)
Spectrum Unit : Reflectance(%)
-----------Spectrum Setting ------------
Integration Time : 20ms
Average : 10
Boxcar : 0
Background removal :  enabled
linearity correction :  enabled
SC :  disabled
Intensity correction :  disabled
DWT denoise :  enabled
savitzky-golay :  disabled
FFT :  disabled
Running average :  disabled
Kalman :  disabled
High pass :  disabled
---------------BEGIN--------------------
Wavelength(nm)             Reflectance(%)
200.29               0
200.75        284.8265
201.21        1047.841
201.67        -392.832
202.13       -134.8163
202.58       -58.81744
203.04       -16.80989
203.50         6.57729
203.96        12.07159
204.42       -1.190921
204.88       -63.76844
205.34       -1750.978
205.80        296.3557
206.26        198.9198
206.72        166.7614
207.18        169.8678
207.64        48.38682
208.10        52.71746
208.55         36.6438
209.01        21.75282
209.47        15.97516
209.93        17.06119
210.39        19.73791
210.85        20.22245
211.31        9.840704
211.77       -46.18111
212.23        417.6401
212.69        145.9509
213.14        150.9662
213.60        256.3751
214.06       -995.5521
214.52       -133.5294
214.98       -78.50102
215.44       -69.46004
215.90       -90.07298
216.36       -522.0905
216.81         137.811
217.27        148.1965
217.73       -321.3056
218.19       -82.35912
218.65        -78.2998
219.11       -114.0708
219.57       -241.6362
220.02       -751.4976
220.48       -368.0195
220.94       -98.20694
221.40       -30.66885
221.86       -6.273708
222.32         5.42453
222.77        13.88601
223.23         22.9444
223.69        32.68605
224.15        36.55729
224.61        32.55777
225.06        25.81627
225.52        21.28136
225.98        20.86356
226.44        24.18753
226.90        31.08344
227.36        40.85167
227.81         47.4536
228.27        47.31879
228.73        43.80059
229.19        40.38122
229.65        39.17365
230.10        40.06959
230.56        42.54386
231.02        45.88579
231.48        47.95145
231.93        47.63211
232.39        46.22604
232.85        44.82517
233.31        44.41634
233.77          44.978
234.22        46.01949
234.68        47.19016
235.14        48.26707
235.60        49.24623
236.05        50.36338
236.51        51.64793
236.97        52.92451
237.43        53.65537
237.88        53.52515
238.34        52.08212
238.80        49.26398
239.26        44.53503
239.71        36.87649
240.17        24.91653
240.63        11.39268
241.08        3.250778
241.54        3.018672
242.00        7.436069
242.46         12.1481
242.91        17.18267
243.37        24.31909
243.83        36.34253
244.28        50.65203
244.74        55.52705
245.20        52.06995
245.66        46.79325
246.11        42.35289
246.57        37.98119
247.03        32.29432
247.48        20.50514
247.94       -3.265273
248.40       -34.92063
248.85       -66.35522
249.31        -79.3838
249.77       -64.11275
250.22       -34.91487
250.68       -4.976507
251.14         16.7492
251.59        25.09049
252.05        20.81008
252.51       0.2781727
252.96       -55.48719
253.42       -139.1811
253.88       -132.9444
254.33       -55.49522
254.79       -4.361266
255.25         20.0126
255.70        32.08537
256.16        39.48565
256.62        43.76287
257.07        45.26606
257.53        45.38529
257.99        44.67649
258.44        43.87688
258.90        43.92187
259.35        44.50324
259.81        45.54678
260.27        46.48712
260.72        46.60809
261.18        46.12296
261.63        45.15578
262.09        44.24871
262.55        43.67321
263.00        43.33472
263.46        43.15063
263.91        42.83438
264.37        42.28123
264.83        41.45904
265.28        40.50879
265.74        39.56102
266.19         38.5631
266.65        37.63829
267.11        36.71003
267.56        35.97218
268.02        35.81698
268.47        36.22362
268.93        37.03279
269.38        37.82381
269.84        37.85469
270.30        37.00326
270.75        35.50261
271.21        33.82005
271.66        32.55817
272.12        31.93054
272.57        31.68586
273.03        31.66586
273.48        31.57163
273.94        31.32239
274.39        31.00788
274.85        30.63366
275.31        30.13708
275.76        29.52744
276.22        28.85161
276.67        28.17852
277.13        27.71217
277.58        27.41938
278.04        27.27575
278.49        27.13969
278.95        26.90148
279.40        26.48769
279.86        25.98281
280.31        25.41457
280.77        24.90081
281.22        24.43046
281.68        24.03268
282.13        23.62808
282.59        23.17964
283.04        22.66661
283.50        22.15078
283.95        21.71294
284.41         21.5235
284.86        21.57609
285.32        21.79378
285.77        22.04528
286.22        22.17641
286.68        22.15164
287.13        22.00868
287.59        21.76997
288.04         21.4389
288.50        21.07748
288.95        20.65971
289.41        20.31175
289.86        20.14863
290.32        20.19233
290.77        20.39549
291.22         20.6237
291.68         20.6596
292.13        20.46502
292.59        20.13711
293.04        19.79584
293.50        19.68029
293.95        19.82713
294.40        20.16142
294.86        20.59205
295.31        20.98896
295.77        21.29683
296.22        21.55822
296.68        21.76844
297.13        21.90694
297.58        21.99778
298.04        22.06274
298.49        22.15411
298.95        22.39431
299.40         22.7834
299.85        23.26996
300.31        23.80263
300.76        24.30854
301.21        24.75161
301.67        25.15384
302.12        25.44696
302.58        25.55176
303.03        25.46363
303.48         25.2478
303.94        25.04472
304.39        25.01003
304.84        25.19262
305.30        25.52896
305.75        25.94127
306.20        26.31851
306.66        26.61151
307.11        26.82389
307.57        26.94392
308.02        26.91464
308.47        26.75405
308.93        26.49196
309.38        26.16881
309.83        25.89768
310.29        25.71876
310.74        25.60778
311.19        25.55667
311.65        25.53293
312.10        25.51668
312.55        25.51803
313.00        25.52684
313.46        25.52443
313.91        25.49663
314.36        25.43473
314.82        25.33633
315.27        25.21898
315.72        25.08071
316.18        24.91989
316.63        24.72476
317.08        24.47597
317.53        24.17529
317.99        23.84455
318.44        23.49927
318.89        23.18108
319.35        22.91081
319.80         22.6803
320.25        22.49917
320.70        22.37321
321.16        22.29056
321.61        22.25184
322.06        22.22081
322.51        22.14132
322.97          21.995
323.42        21.80118
323.87        21.58554
324.32        21.40547
324.78        21.27291
325.23        21.17711
325.68        21.09724
326.13        21.00432
326.59        20.88119
327.04        20.75035
327.49        20.59826
327.94        20.40951
328.39        20.18546
328.85         19.9228
329.30        19.66439
329.75        19.46611
330.20        19.34376
330.66        19.28167
331.11         19.2449
331.56        19.15067
332.01        18.97852
332.46        18.75096
332.92        18.50673
333.37        18.33474
333.82        18.25328
334.27        18.24682
334.72        18.27973
335.17        18.29102
335.63        18.25065
336.08         18.1794
336.53        18.11551
336.98        18.12938
337.43        18.23177
337.88        18.40332
338.34        18.55126
338.79        18.53528
339.24         18.3247
339.69        17.96353
340.14        17.59329
340.59         17.4379
341.05        17.53691
341.50        17.82706
341.95        18.15427
342.40        18.26695
342.85        18.10883
343.30        17.77502
343.75         17.3955
344.20        17.16919
344.66        17.15532
345.11         17.2754
345.56        17.48143
346.01        17.69267
346.46        17.86299
346.91        18.01028
347.36        18.10327
347.81        18.09319
348.26        17.98194
348.72        17.79358
349.17        17.55703
349.62        17.36189
350.07        17.23444
350.52        17.15238
350.97        17.11135
351.42        17.09486
351.87        17.09357
352.32        17.12448
352.77        17.14097
353.22        17.07087
353.67        16.90757
354.13        16.66919
354.58        16.43869
355.03        16.37397
355.48        16.49903
355.93        16.77482
356.38        17.06141
356.83        17.12172
357.28        16.91236
357.73        16.52018
358.18        16.11939
358.63        15.96895
359.08        16.11584
359.53         16.4643
359.98        16.87906
360.43        17.12964
360.88        17.14191
361.33        16.99855
361.78         16.7593
362.23        16.50948
362.68        16.28836
363.13         16.0643
363.58        15.87719
364.03        15.80091
364.48        15.83625
364.93         15.9589
365.38        16.08581
365.83        16.07922
366.28        15.90955
366.73        15.62339
367.18        15.27625
367.63        14.96616
368.08        14.73901
368.53        14.57427
368.98        14.47879
369.43        14.46106
369.88        14.50651
370.33        14.60398
370.78        14.71644
371.23        14.77283
371.68        14.74632
372.13        14.65491
372.58        14.49813
373.03        14.27997
373.48        14.01755
373.93        13.71733
374.38        13.44558
374.83        13.31193
375.28        13.33721
375.72        13.48658
376.17        13.67689
376.62         13.7766
377.07        13.74924
377.52        13.62798
377.97        13.45658
378.42        13.30807
378.87        13.20652
379.32        13.13081
379.77        13.06344
380.22        12.97876
380.67        12.87321
381.11         12.7665
381.56        12.67611
382.01        12.62968
382.46        12.63317
382.91        12.67219
383.36        12.72488
383.81        12.76229
384.26        12.76906
384.71        12.74222
385.15        12.68413
385.60        12.61586
386.05        12.53936
386.50        12.46189
386.95        12.36434
387.40        12.21791
387.85         12.0323
388.29        11.81501
388.74        11.65193
389.19        11.61672
389.64        11.71278
390.09        11.90199
390.54        12.10667
390.98        12.20088
391.43        12.15626
391.88        12.02267
392.33        11.85213
392.78        11.72463
393.23        11.66265
393.67        11.61917
394.12        11.60659
394.57        11.65313
395.02        11.73433
395.47        11.77197
395.91        11.76195
396.36        11.75441
396.81        11.75473
397.26        11.72482
397.71         11.6684
398.15        11.62276
398.60        11.60658
399.05         11.5591
399.50         11.5001
399.95        11.54151
400.39        11.64557
400.84        11.60436
401.29        11.42007
401.74        11.28281
402.18        11.20637
402.63        11.07715
403.08        10.92958
403.53        10.86719
403.97        10.89631
404.42        10.98722
404.87        11.08428
405.32        11.09734
405.76        11.00487
406.21        10.84141
406.66        10.66254
407.11        10.55826
407.55        10.55478
408.00        10.62607
408.45        10.72685
408.90        10.76271
409.34        10.71488
409.79        10.63529
410.24        10.55809
410.68        10.50553
411.13        10.49025
411.58        10.51064
412.03        10.53854
412.47        10.52275
412.92        10.45118
413.37        10.34161
413.81        10.23066
414.26           10.18
414.71        10.19626
415.15        10.26859
415.60        10.34186
416.05         10.3383
416.49        10.24013
416.94        10.07238
417.39        9.901063
417.83        9.830622
418.28        9.882222
418.73        10.01912
419.17        10.17229
419.62        10.22378
420.07        10.15237
420.51        9.999392
420.96        9.830918
421.41        9.728373
421.85        9.711665
422.30        9.754544
422.74        9.833683
423.19        9.925252
423.64        10.01271
424.08        10.10694
424.53        10.17724
424.98        10.18797
425.42        10.13392
425.87        10.03048
426.31        9.900352
426.76         9.79473
427.21        9.723328
427.65        9.671661
428.10        9.655311
428.54         9.69618
428.99        9.787971
429.44         9.93717
429.88        10.06532
430.33        10.05775
430.77        9.905652
431.22         9.65714
431.66        9.404077
432.11         9.31179
432.56        9.378351
433.00        9.534244
433.45        9.660787
433.89        9.526198
434.34        9.137341
434.78        9.115935
435.23         9.50087
435.67        9.642408
436.12         9.53915
436.57        9.539177
437.01        9.642056
437.46        9.659898
437.90        9.583213
438.35        9.481586
438.79        9.380546
439.24        9.295184
439.68        9.252957
440.13        9.310935
440.57        9.422693
441.02        9.469346
441.46        9.435706
441.91        9.318886
442.35         9.17315
442.80        9.233278
443.24         9.43261
443.69        9.393023
444.13        9.148048
444.58        9.072447
445.02        9.170462
445.47        9.239286
445.91        9.262135
446.36        9.308128
446.80        9.370652
447.24        9.430057
447.69        9.471898
448.13        9.478253
448.58        9.446951
449.02        9.382301
449.47         9.31359
449.91         9.27875
450.36        9.289037
450.80        9.333583
451.25        9.379861
451.69        9.368369
452.13        9.290696
452.58        9.169365
453.02        9.045705
453.47        8.992406
453.91        9.022712
454.36        9.113738
454.80        9.221859
455.24        9.273637
455.69        9.252789
456.13         9.17672
456.58        9.088455
457.02        9.039317
457.46        9.044966
457.91        9.086807
458.35        9.131681
458.79        9.114408
459.24        9.031757
459.68        8.929952
460.13        8.861999
460.57        8.719826
461.01        8.770892
461.46        8.805711
461.90        8.879717
462.34        8.916172
462.79        8.952104
463.23        8.954362
463.68        8.956024
464.12        8.987051
464.56        9.051376
465.01        9.144667
465.45        9.218702
465.89        9.217748
466.34        9.141188
466.78        9.004548
467.22        8.858302
467.67        8.805698
468.11        8.831984
468.55        8.943159
468.99        9.082434
469.44        9.178558
469.88         9.21319
470.32        9.202817
470.77        9.169009
471.21        9.141475
471.65        9.133011
472.10        9.134005
472.54        9.134653
472.98        9.128597
473.42        9.115665
473.87        9.106667
474.31        9.102789
474.75        9.114116
475.20        9.143521
475.64        9.178985
476.08        9.214391
476.52        9.263774
476.97        9.328905
477.41         9.36533
477.85        9.348814
478.29        9.506223
478.74        9.429265
479.18        9.431849
479.62        9.416953
480.06        9.482904
480.50        9.635591
480.95         9.66424
481.39        9.863267
481.83        9.902774
482.27        9.877262
482.72        9.811427
483.16          9.7343
483.60        9.706555
484.04        9.717752
484.48         9.76277
484.93        9.914363
485.37        10.08713
485.81        10.11951
486.25         10.8169
486.69        9.953931
487.14        9.790685
487.58        10.37013
488.02        10.38197
488.46        10.21765
488.90        10.50461
489.34        10.31251
489.79        10.32056
490.23        10.61984
490.67        10.83935
491.11         11.0286
491.55        11.00777
491.99        10.84498
492.43        10.82544
492.88        10.97493
493.32        11.11147
493.76        11.20746
494.20        11.31897
494.64        11.44247
495.08        11.55029
495.52        11.64133
495.96        11.75858
496.41         11.8916
496.85         11.9313
497.29        11.90733
497.73        12.02847
498.17        12.26416
498.61        12.33267
499.05        12.25058
499.49        12.27583
499.93        12.41848
500.37        12.53536
500.82        12.61298
501.26        12.68897
501.70        12.76093
502.14         12.8203
502.58        12.86644
503.02        12.89845
503.46        12.92065
503.90        12.93816
504.34        12.96697
504.78        13.03042
505.22        13.13218
505.66         13.2639
506.10        13.40522
506.54        13.52183
506.98        13.60082
507.42        13.64809
507.86        13.67333
508.30        13.69302
508.74         13.7154
509.18        13.74032
509.62        13.76384
510.06        13.78024
510.50         13.7895
510.94        13.79235
511.38        13.80697
511.82         13.8602
512.26        13.95182
512.70        14.07061
513.14        14.17594
513.58         14.2048
514.02        14.14693
514.46        14.02391
514.90        13.88387
515.34        13.80577
515.78        13.81132
516.22        13.87782
516.66        13.97084
517.10        14.03455
517.54        14.05237
517.98          14.042
518.42        14.01937
518.86        14.00959
519.30        14.01999
519.74        14.03764
520.18        14.05473
520.62        14.06254
521.06        14.05732
521.50        14.04346
521.93        14.02244
522.37        13.99093
522.81        13.95267
523.25        13.91026
523.69         13.8676
524.13        13.83023
524.57        13.80112
525.01        13.78012
525.45        13.76866
525.89        13.76858
526.32        13.77783
526.76        13.79091
527.20        13.80314
527.64         13.8067
528.08        13.79891
528.52        13.78374
528.96        13.75722
529.40        13.71396
529.83        13.65465
530.27         13.5855
530.71        13.52355
531.15        13.49895
531.59         13.5156
532.03        13.56283
532.46        13.61303
532.90        13.62292
533.34        13.58424
533.78        13.50095
534.22        13.39826
534.66        13.33756
535.09        13.31595
535.53         13.2761
535.97        13.21796
536.41        13.18968
536.85        13.19272
537.28        13.20341
537.72        13.21767
538.16        13.24279
538.60        13.27568
539.04        13.30891
539.47         13.3467
539.91        13.40543
540.35        13.48205
540.79        13.57982
541.22        13.67692
541.66        13.71725
542.10        13.73254
542.54        13.70703
542.97         13.6888
543.41        13.74584
543.85          13.886
544.29        14.08824
544.72        14.30454
545.16        14.46627
545.60        14.55452
546.04        14.58688
546.47         14.5999
546.91        14.65794
547.35        14.77515
547.79        14.92577
548.22        15.06476
548.66        15.15758
549.10        15.19723
549.53        15.13276
549.97        15.14078
550.41        15.18778
550.84        15.32827
551.28        15.54128
551.72        15.78253
552.15        15.96478
552.59        16.07397
553.03        16.15289
553.46        16.22068
553.90        16.31728
554.34        16.45244
554.77        16.58539
555.21        16.68148
555.65        16.86982
556.08        16.82597
556.52        16.83074
556.96        16.81695
557.39        16.84306
557.83        16.92336
558.27         17.0179
558.70         17.1101
559.14        17.25646
559.57        17.29249
560.01        17.37881
560.45        17.44697
560.88        17.44841
561.32        17.42226
561.75        17.38154
562.19        17.36974
562.63        17.53014
563.06        17.78646
563.50        17.77032
563.93        17.53027
564.37        17.48571
564.80        17.64611
565.24        17.78767
565.68        17.88265
566.11        17.99352
566.55        18.11705
566.98         18.2262
567.42        18.33649
567.85        18.46226
568.29        18.61072
568.72        18.75645
569.16        18.89288
569.60        18.99561
570.03        19.05998
570.47        19.06119
570.90        19.15676
571.34        19.14921
571.77        19.26446
572.21        19.33314
572.64        19.43799
573.08        19.55747
573.51        20.08079
573.95        20.14396
574.38        20.06317
574.82        20.19408
575.25         20.1446
575.69        20.19278
576.12          20.186
576.56        20.50048
576.99        20.56806
577.42        20.55086
577.86         20.5556
578.29        20.52542
578.73         20.4709
579.16        20.15123
579.60        20.04675
580.03        20.03774
580.47         20.1495
580.90        19.88543
581.33        20.25554
581.77        20.30769
582.20        20.06741
582.64        19.81304
583.07        19.86181
583.51        19.76642
583.94        19.69552
584.37        19.64378
584.81        19.59591
585.24        19.49794
585.68        19.41336
586.11        19.14703
586.54        19.13764
586.98        19.12977
587.41        19.23712
587.85        19.10861
588.28        19.12219
588.71        18.81893
589.15        19.02349
589.58        18.85561
590.01        18.90871
590.45        18.78113
590.88        18.62661
591.31        18.65727
591.75        18.86008
592.18        18.86519
592.61        18.59092
593.05        18.98898
593.48        18.71131
593.91        18.66447
594.35        18.81435
594.78        18.92892
595.21        19.07977
595.65         19.1374
596.08        19.11339
596.51        19.30235
596.94        19.31533
597.38        19.49805
597.81        19.82079
598.24        19.83209
598.68        20.08071
599.11         20.3611
599.54        20.60943
599.97        20.58498
600.41        21.00893
600.84        21.44902
601.27        21.49357
601.70        21.81163
602.14        22.07623
602.57        22.33707
603.00        22.54757
603.43        22.73126
603.87         23.0709
604.30        23.35685
604.73        23.67207
605.16        23.95445
605.60        24.31424
606.03        24.71979
606.46         25.1057
606.89        25.31263
607.32        25.45384
607.76        25.66049
608.19        25.95771
608.62        26.47854
609.05        26.88848
609.48        27.13251
609.92        27.18785
610.35        27.48347
610.78        28.02692
611.21         28.4501
611.64        28.61504
612.07        28.88388
612.50        29.21538
612.94        29.43644
613.37        29.57441
613.80        29.73993
614.23        29.91082
614.66        30.26463
615.09        30.32947
615.52        30.52748
615.96        30.71891
616.39        31.14998
616.82        31.40812
617.25        31.73481
617.68        31.98268
618.11        32.11285
618.54        32.15562
618.97        32.24903
619.40        32.44371
619.84        32.61609
620.27        32.79019
620.70        33.14532
621.13        33.64528
621.56        33.62918
621.99        33.58065
622.42        33.79894
622.85        33.68684
623.28        33.65941
623.71        33.78173
624.14        33.92376
624.57        34.11339
625.00        34.19392
625.43        34.14893
625.86        34.07663
626.29        34.00008
626.72        33.73946
627.15        33.70104
627.58        33.48341
628.01        33.24978
628.44         33.2443
628.87         33.3861
629.30        33.24022
629.73        32.82304
630.16         32.5264
630.59        32.35997
631.02        32.09649
631.45        31.74456
631.88        31.42965
632.31        31.16119
632.74        30.90577
633.17        30.65616
633.60        30.39709
634.03        30.12015
634.46        29.83391
634.89        29.53029
635.32        29.19549
635.75        28.83156
636.18        28.44317
636.61        28.05112
637.04        27.68727
637.47        27.35988
637.89        27.05795
638.32        26.75068
638.75        26.43014
639.18         26.0993
639.61          25.663
640.04        25.34663
640.47        25.04023
640.90        24.81076
641.33        24.63514
641.76        24.48651
642.18        24.35463
642.61        24.22968
643.04        24.06634
643.47        23.85688
643.90        23.92447
644.33        23.75849
644.76        23.73064
645.18        23.70176
645.61        23.78904
646.04        23.95017
646.47         23.9929
646.90        23.94026
647.33        23.98971
647.75        24.15243
648.18        24.31348
648.61        24.46259
649.04        24.62508
649.47        24.79814
649.89        25.01722
650.32        25.26851
650.75        25.45393
651.18        25.59899
651.61        25.91013
652.03        26.37317
652.46        26.68994
652.89        26.87396
653.32        27.20356
653.74        27.69806
654.17        28.03316
654.60        28.28701
655.03        28.69937
655.46        28.64412
655.88        29.57092
656.31        32.96569
656.74        32.50986
657.16        29.87267
657.59        30.03917
658.02         30.9819
658.45        31.24412
658.87        31.61324
659.30        31.37585
659.73        31.78323
660.15        32.02821
660.58        32.55658
661.01        32.80404
661.44        32.89233
661.86        33.23092
662.29        33.79433
662.72        34.14462
663.14        34.28944
663.57        34.56833
664.00        34.95716
664.42        35.18746
664.85        35.26375
665.27        35.31225
665.70        35.39005
666.13        35.53129
666.55        35.75999
666.98        36.06443
667.41        36.40238
667.83        36.69728
668.26        36.91707
668.69        37.08358
669.11         37.2286
669.54        37.42316
669.96        37.67527
670.39        37.91911
670.82        38.14413
671.24        38.36267
671.67        38.56488
672.09          38.735
672.52        38.87389
672.94        38.96189
673.37        39.00971
673.80        39.02594
674.22        39.05227
674.65        39.13541
675.07        39.29755
675.50        39.51441
675.92        39.76148
676.35        39.99097
676.77        40.18867
677.20        40.36063
677.62        40.50974
678.05         40.6326
678.47        40.73241
678.90        40.81217
679.32        40.88231
679.75        40.97636
680.17        41.09712
680.60        41.24023
681.02        41.39531
681.45        41.52922
681.87         41.6418
682.30        41.74875
682.72        41.86195
683.15        41.94683
683.57         42.0252
684.00        42.16174
684.42        42.34276
684.85        42.48775
685.27        42.57786
685.70        42.67725
686.12        42.77934
686.54        42.81335
686.97        42.79734
687.39        42.89479
687.82        43.06908
688.24        43.07243
688.66        42.95332
689.09        43.04977
689.51        43.37415
689.94        43.63114
690.36         43.8071
690.78        44.08397
691.21        44.44011
691.63        44.67909
692.06        44.82651
692.48         45.1239
692.90        45.52497
693.33        45.70611
693.75         45.6337
694.17          45.523
694.60        45.52384
695.02        45.22132
695.44        45.55172
695.87        45.77236
696.29        46.06188
696.71        45.84851
697.14        45.36979
697.56        45.75175
697.98        46.82044
698.41        47.33881
698.83        47.22953
699.25        47.18763
699.68         47.2898
700.10        47.38727
700.52        47.50349
700.94        47.64286
701.37        47.79063
701.79        48.01675
702.21        48.25846
702.64        48.38654
703.06        48.41285
703.48        48.41011
703.90        48.38273
704.33         48.6097
704.75        48.49552
705.17        48.60967
705.59        48.77464
706.01        48.96997
706.44        49.20543
706.86        49.49096
707.28        49.79724
707.70        50.19982
708.12        50.59105
708.55        50.58429
708.97        50.26392
709.39        50.18179
709.81          50.373
710.23        50.44967
710.66        50.41568
711.08        50.54241
711.50        50.80037
711.92        51.01238
712.34        51.15738
712.76        51.28852
713.19        51.38757
713.61        51.45919
714.03        51.49491
714.45        51.49081
714.87         51.4937
715.29        51.58379
715.71        51.77496
716.13        52.04716
716.56        52.32846
716.98        52.55637
717.40        52.67843
717.82        52.71825
718.24        52.72377
718.66        52.77403
719.08        52.88971
719.50        53.04974
719.92        53.21952
720.34        53.32689
720.76        53.36525
721.19        53.39758
721.61        53.43758
722.03        53.46054
722.45         53.4797
722.87        53.52158
723.29        53.59245
723.71        53.69298
724.13        53.81923
724.55        53.95586
724.97        54.11082
725.39        54.29682
725.81         54.5041
726.23        54.72841
726.65        54.89807
727.07        54.90008
727.49         54.7289
727.91        54.43157
728.33        54.13719
728.75        54.05046
729.17        54.21632
729.59        54.57117
730.01        55.00586
730.43        55.32574
730.85        55.46645
731.27        55.49023
731.69        55.43902
732.10        55.38428
732.52        55.36241
732.94        55.32738
733.36        55.31221
733.78        55.40171
734.20        55.60621
734.62        55.79702
735.04        56.24173
735.46        56.30906
735.88        56.17887
736.30        56.32687
736.72        56.71458
737.13        56.94213
737.55        56.92003
737.97        56.72095
738.39        56.46337
738.81        56.45959
739.23        56.71656
739.65        56.92484
740.06        57.00266
740.48        57.13468
740.90          57.286
741.32        57.37266
741.74        57.37814
742.16        57.34246
742.57        57.27985
742.99        57.16409
743.41         57.0811
743.83        57.16727
744.25        57.42962
744.67        57.80517
745.08          58.189
745.50        58.36224
745.92        58.28531
746.34        58.01116
746.75        57.64862
747.17        57.40306
747.59        57.32132
748.01        57.36993
748.42         57.5048
748.84        57.61901
749.26        57.70219
749.68        57.77569
750.09        57.87335
750.51        58.11945
750.93         58.4649
751.35        58.68773
751.76        58.77561
752.18        58.88123
752.60         59.0023
753.01        59.06701
753.43        59.07261
753.85         59.0586
754.27         59.0349
754.68        59.19648
755.10        59.20036
755.52        59.34926
755.93        59.51564
756.35        59.67803
756.77        59.80782
757.18         59.8656
757.60        59.86232
758.02        59.90297
758.43        59.83996
758.85         59.8071
759.26        58.75636
759.68        58.82758
760.10        59.61295
760.51        60.14298
760.93        60.19873
761.34        60.21594
761.76        60.21673
762.18        59.75726
762.59        59.13289
763.01        59.34733
763.42        60.31656
763.84        60.74293
764.26        60.52805
764.67        60.33451
765.09        60.30167
765.50        60.30332
765.92        60.34139
766.33        60.33488
766.75        60.22603
767.16         60.1379
767.58        60.05618
768.00        60.38894
768.41        60.16729
768.83        61.01519
769.24        62.27208
769.66        62.68227
770.07        62.23763
770.49        61.67817
770.90        61.45416
771.32        61.49664
771.73        61.78839
772.15        61.78527
772.56        61.47606
772.97        61.29641
773.39        61.28969
773.80        61.32688
774.22        61.38353
774.63         61.5476
775.05        61.75001
775.46        61.92316
775.88        62.02218
776.29        62.08846
776.70        62.12966
777.12        62.18826
777.53         62.2751
777.95        62.33146
778.36        62.37821
778.77        62.36542
779.19        62.28393
779.60        62.36704
780.02        62.50442
780.43        62.08773
780.84         61.3638
781.26        61.28231
781.67        61.80824
782.09         62.3785
782.50        62.77825
782.91        62.37388
783.33        61.77493
783.74        61.93483
784.15        62.17384
784.57        62.64624
784.98        63.03677
785.39        63.51533
785.81        64.02588
786.22        64.32208
786.63        64.71635
787.04        64.80869
787.46        64.73383
787.87        64.47702
788.28         64.1995
788.70         64.1209
789.11        64.26176
789.52        64.59098
789.93        64.94841
790.35        65.05573
790.76        64.87315
791.17        64.47319
791.58        64.02843
792.00        63.81732
792.41        63.91907
792.82        64.17802
793.23        64.45623
793.65        64.71471
794.06        64.81492
794.47        64.39829
794.88        63.71745
795.29        63.45501
795.71        63.61135
796.12        63.96473
796.53        64.35392
796.94        64.55473
797.35        64.54093
797.76        64.32363
798.18        64.07082
798.59         63.9691
799.00        64.07962
799.41        64.32629
799.82        64.63946
800.23        64.91006
800.64        65.08904
801.06        65.19542
801.47        65.24895
801.88        65.19063
802.29        65.03056
802.70        64.78114
803.11        64.53257
803.52        64.43549
803.93        64.53372
804.34         64.7906
804.75        65.12555
805.17        65.43687
805.58        65.71496
805.99        65.76752
806.40        65.64178
806.81        65.87116
807.22        66.27151
807.63        65.81253
808.04        64.70126
808.45        64.20808
808.86        64.45973
809.27        64.79299
809.68        65.07278
810.09        65.35334
810.50        65.56315
810.91        65.68964
811.32        65.73929
811.73        65.72755
812.14        65.67203
812.55        65.56176
812.96        65.45872
813.37        65.47375
813.78        65.62778
814.19        65.89465
814.60        66.18648
815.01        66.35954
815.42          66.381
815.83        66.28938
816.24        66.14133
816.65        66.04958
817.05        66.05739
817.46        66.10136
817.87        66.17255
818.28        66.22183
818.69        66.22951
819.10         66.2122
819.51        66.16612
819.92        66.08219
820.33        65.96611
820.74        65.82308
821.14        65.66882
821.55         65.5506
821.96        65.47292
822.37        65.45295
822.78         65.4893
823.19        65.56818
823.60        65.69138
824.00        65.87542
824.41        66.11249
824.82        66.49366
825.23        66.99967
825.64        67.55831
826.04        68.07751
826.45        68.34208
826.86        68.31922
827.27        68.07918
827.68        67.64095
828.08        67.06266
828.49        66.38074
828.90        65.62022
829.31        64.97541
829.72        64.73539
830.12        64.98497
830.53        65.64001
830.94        66.43315
831.35        66.81617
831.75        66.65698
832.16        66.06026
832.57        65.41327
832.97        65.31571
833.38        65.87285
833.79        66.86924
834.20        67.96129
834.60        68.56842
835.01        68.49097
835.42        67.95409
835.82        67.17086
836.23         66.4536
836.64        65.93903
837.04         65.5581
837.45        65.33195
837.86        65.36101
838.26        65.64559
838.67        66.12806
839.08        66.68943
839.48        67.08526
839.89        67.22602
840.29        67.17095
840.70        66.96474
841.11        66.66195
841.51        66.33043
841.92        65.93972
842.33        65.63765
842.73        65.67348
843.14        66.04012
843.54        66.71906
843.95        67.47362
844.35        67.95328
844.76        68.01903
845.17        67.75735
845.57        67.34451
845.98        67.05916
846.38        67.00258
846.79        67.08202
847.19        67.19705
847.60        67.10827
848.00        66.78986
848.41        66.31925
848.81        65.87683
849.22        65.69986
849.62        65.85485
850.03        66.24076
850.43        66.70345
850.84        66.84909
851.24         66.6415
851.65        66.16642
852.05        65.68235
852.46        65.58097
852.86        65.92324
853.27        66.54469
853.67        67.22128
854.07         67.8295
854.48        68.26213
854.88        68.66749
855.29        68.82961
855.69        68.61206
856.10        67.92665
856.50         66.9253
856.90        65.94053
857.31        65.46412
857.71        65.58356
858.12        66.11594
858.52        66.88059
858.92        67.31666
859.33        67.21742
859.73        66.79262
860.13        66.11967
860.54        65.35158
860.94        64.59186
861.34        63.79594
861.75        63.14286
862.15        62.99028
862.55        63.38124
862.96        64.19859
863.36        65.18241
863.76         65.8083
864.17        65.92152
864.57        65.66152
864.97        65.19273
865.38         64.8138
865.78        64.65555
866.18        64.60933
866.58        64.62539
866.99        64.62873
867.39        64.62291
867.79        64.65337
868.19        64.70354
868.60        64.70036
869.00         64.6304
869.40        64.50258
869.80        64.40556
870.21        64.50548
870.61         64.8726
871.01        65.38628
871.41        65.85678
871.81        66.00971
872.22         65.7821
872.62        65.26054
873.02        64.61279
873.42        64.11181
873.82        63.87137
874.22        63.86805
874.63        64.00088
875.03        64.09684
875.43        64.11822
875.83        64.10118
876.23        64.21673
876.63         64.7317
877.03        65.65157
877.44        66.82928
877.84        67.93366
878.24        68.37964
878.64        68.03504
879.04        67.09398
879.44        65.92942
879.84        65.10741
880.24        64.78341
880.64        64.81744
881.04        65.02393
881.44        65.08118
881.84        64.91105
882.24         64.6561
882.65        64.41956
883.05        64.46033
883.45        64.79481
883.85         65.2792
884.25        65.85403
884.65        66.48074
885.05        67.11239
885.45        67.75111
885.85        68.23995
886.25        68.30907
886.65        67.91676
887.05        67.15922
887.45         66.2924
887.85        65.71661
888.25        65.55225
888.65        65.71871
889.04        66.06263
889.44        66.29037
889.84        66.31155
890.24        66.17702
890.64        66.00637
891.04        65.96552
891.44        66.09234
891.84        66.36624
892.24        66.57911
892.64        66.39866
893.04        65.79655
893.44        64.88831
893.83        64.09975
894.23        64.08222
894.63        64.90797
895.03         66.3738
895.43        67.92848
895.83        68.56001
896.23        68.01437
896.63        66.68042
897.02        65.08066
897.42        64.05195
897.82        63.74168
898.22        63.94618
898.62        64.49059
899.01        65.10396
899.41         65.6076
899.81        66.10328
900.21        66.64047
900.61        67.27646
901.00        67.98719
901.40        68.66579
901.80        69.13961
902.20         69.1925
902.59        68.81303
902.99         68.0926
903.39        67.27908
903.79        66.76711
904.18        66.64677
904.58        66.82648
904.98        67.12204
905.38        67.24532
905.77        67.11833
906.17        66.87283
906.57        66.55191
906.96        66.23539
907.36        65.96381
907.76          65.715
908.15        65.61167
908.55        65.81865
908.95        66.34962
909.34        67.13544
909.74        67.93304
910.14        68.41486
910.53        68.47601
910.93        68.21906
911.33        67.74874
911.72        67.24082
912.12        66.80077
912.52        66.37604
912.91        66.03046
913.31        65.86416
913.70        65.89549
914.10        66.12142
914.49        66.42722
914.89        66.59328
915.29        66.57436
915.68        66.41399
916.08        66.23156
916.47        66.25538
916.87        66.53031
917.26        66.97335
917.66        67.43809
918.05        67.71169
918.45        67.73475
918.84        67.60258
919.24        67.40923
919.64        67.38527
920.03        67.60853
920.42        67.98828
920.82        68.40295
921.21        68.70622
921.61        68.82197
922.00        68.78794
922.40        68.65893
922.79        68.59854
923.19        68.62481
923.58        68.69329
923.98        68.65835
924.37        68.25626
924.77        67.50525
925.16        66.50719
925.55        65.54146
925.95        65.05976
926.34        65.21998
926.74        65.84997
927.13        66.80718
927.52         67.7583
927.92        68.54094
928.31        69.21777
928.70        69.71454
929.10        69.94864
929.49        69.93622
929.89        69.67862
930.28        69.26303
930.67        68.82231
931.07        68.41178
931.46        68.00687
931.85        67.71223
932.24        67.67624
932.64        67.89736
933.03        68.38422
933.42        68.82159
933.82        68.72688
934.21        68.03848
934.60        66.89205
934.99        65.77547
935.39        65.41634
935.78        65.99166
936.17        67.32072
936.56        68.84914
936.96        69.53695
937.35        69.12391
937.74        67.90501
938.13        66.51077
938.53        65.78163
938.92        65.85875
939.31        66.52184
939.70        67.39783
940.09        67.81873
940.49        67.58517
940.88        66.94424
941.27        66.22861
941.66        65.92503
942.05        66.14862
942.44        66.72851
942.84        67.40636
943.23        67.80667
943.62        67.75342
944.01        67.40472
944.40         66.9357
944.79        66.61183
945.18        66.52068
945.57        66.55659
945.97        66.67992
946.36        66.93309
946.75        67.26156
947.14        67.68598
947.53        68.07777
947.92        68.19444
948.31        67.98471
948.70        67.51218
949.09        66.99622
949.48        66.77348
949.87        66.93488
950.26        67.42597
950.65        68.04945
951.04        68.45153
951.43        68.51582
951.82        68.29456
952.21        68.04178
952.60        68.16144
952.99        68.69526
953.38        69.49637
953.77        70.15195
954.16        69.95248
954.55        68.79005
954.94        67.00831
955.33        65.12093
955.72        63.89064
956.11        63.52403
956.50        63.75984
956.89         64.4366
957.28        65.29086
957.66        66.19522
958.05        67.10879
958.44        67.76507
958.83        67.63059
959.22        66.65623
959.61         65.0741
960.00        63.36737
960.39        62.22558
960.78        61.82281
961.16        62.02266
961.55        62.65781
961.94        63.52806
962.33        64.48822
962.72        65.57816
963.11        66.58097
963.49        67.10786
963.88        67.00113
964.27         66.3669
964.66        65.46558
965.04        64.69508
965.43        64.14931
965.82        63.73679
966.21        63.42993
966.60        63.16004
966.98        62.93028
967.37           62.82
967.76        62.79497
968.15         62.7424
968.53        62.65128
968.92        62.49945
969.31        62.43837
969.69        62.74802
970.08        63.41054
970.47        64.30779
970.86        65.13678
971.24        65.36652
971.63         64.8138
972.02        63.73528
972.40        62.38733
972.79        61.18337
973.17        60.32014
973.56          59.702
973.95        59.42954
974.33        59.65067
974.72        60.29062
975.11        61.28288
975.49        62.45082
975.88        63.37923
976.26        63.93497
976.65        64.15909
977.04        63.96247
977.42        63.22267
977.81        62.01556
978.19        60.37363
978.58        59.14849
978.96        59.40213
979.35        61.28688
979.74        64.63176
980.12        68.55993
980.51        70.66352
980.89        70.35429
981.28        68.12759
981.66        65.27024
982.05        64.03149
982.43        64.93998
982.82        67.23756
983.20        70.24879
983.59        72.62406
983.97        73.91488
984.35        74.52048
984.74        74.19104
985.12        72.64693
985.51        70.01913
985.89        66.38807
986.28        62.84295
986.66        60.99443
987.04        61.32692
987.43         63.4636
987.81        66.34962
988.20        67.89694
988.58        67.51418
988.96        65.58758
989.35        63.21626
989.73        62.18061
990.12         62.8711
990.50        64.79504
990.88        66.71326
991.27        66.65973
991.65        64.34634
992.03        60.54641
992.42        56.76088
992.80        54.99457
993.18        55.81701
993.56        58.53225
993.95        62.01511
994.33        64.55867
994.71        65.31804
995.10        64.83697
995.48        63.51388
995.86        62.03623
996.24        60.81305
996.63        59.64499
997.01        58.76163
997.39        58.53119
997.77        58.97155
998.15        60.03906
998.54        61.48518
998.92        62.74573
999.30        63.55786
999.68        63.97786
1000.06        63.95663
1000.45        63.44491
1000.83        62.63232
1001.21        61.51693
1001.59        60.33138
1001.97        59.50305
1002.35        59.19242
1002.73        59.30488
1003.12         59.9123
1003.50        60.98198
1003.88        62.40083
1004.26        64.13233
1004.64        65.62039
1005.02        66.07904
1005.40        65.40434
1005.78        63.72096
1006.16        61.81499
1006.54         61.1416
1006.92        62.04613
1007.30        64.10552
1007.69          66.199
1008.07        66.67901
1008.45        65.08577
1008.83        62.07814
1009.21        58.64262
1009.59        56.39562
1009.97          55.897
1010.35          56.675
1010.73        58.41788
1011.11        60.56262
1011.49        62.80776
1011.86        65.49638
1012.24        68.06545
1012.62        69.87302
1013.00        70.64521
1013.38        70.21899
1013.76        69.19107
1014.14        68.89503
1014.52        69.71198
1014.90        71.38053
1015.28        72.96349
1015.66        72.73454
1016.04        70.56879
1016.41        67.47157
1016.79        64.55989
1017.17         62.7276
1017.55        61.92629
1017.93         61.7153
1018.31        61.93036
1018.69        62.12122
1019.06        62.04515
1019.44        62.05373
1019.82          61.884
1020.20          61.152
1020.58        59.84846
1020.95        57.75339
1021.33        55.68586
1021.71        55.61916
1022.09        58.41705
1022.46        63.41505
1022.84        68.67133
1023.22        71.69643
1023.60        71.94982
1023.97        70.18463
1024.35        67.14892
1024.73        64.36169
