SpectraSmart Spectrum 2.9.0.0
--------- Device Information -----------
Spectrum Name :  反射率_0
Saving Time :  2024/05/01 16:59:15
Spectro-Module Model Name : SE2030-DUVN
Spectro-Module Serial Number : OS361AC55029948
Wavelength Start : 200
Wavelength End : 1025
Wavelength Unit : Wavelength(nm)
Spectrum Unit : Reflectance(%)
-----------Spectrum Setting ------------
Integration Time : 20ms
Average : 10
Boxcar : 0
Background removal :  enabled
linearity correction :  enabled
SC :  disabled
Intensity correction :  disabled
DWT denoise :  enabled
savitzky-golay :  disabled
FFT :  disabled
Running average :  disabled
Kalman :  disabled
High pass :  disabled
---------------BEGIN--------------------
Wavelength(nm)             Reflectance(%)
200.29               0
200.75        296.7168
201.21        1014.671
201.67       -345.8661
202.13       -107.4488
202.58       -40.17513
203.04       -4.176028
203.50        16.15878
203.96        23.33421
204.42        18.82482
204.88       -12.09936
205.34       -881.0067
205.80        172.7195
206.26        121.0289
206.72        103.2606
207.18        99.72222
207.64         53.4314
208.10        49.94792
208.55        41.08002
209.01        30.76359
209.47        20.61147
209.93        10.27356
210.39        -2.11257
210.85       -18.50396
211.31       -47.28436
211.77       -140.8705
212.23         582.377
212.69        143.3733
213.14        119.4936
213.60        169.9184
214.06       -531.7581
214.52       -54.07109
214.98       -25.68944
215.44       -24.61383
215.90       -49.57502
216.36       -511.8683
216.81        208.3556
217.27        268.5539
217.73       -548.2667
218.19       -113.7115
218.65       -89.22659
219.11        -116.772
219.57       -233.6179
220.02       -709.2775
220.48       -346.8698
220.94       -94.75884
221.40       -32.31882
221.86       -10.78702
222.32       -2.241564
222.77         1.77687
223.23        3.980474
223.69        5.417439
224.15        6.629094
224.61        7.559259
225.06        7.981734
225.52        8.319303
225.98        8.995752
226.44        10.13128
226.90        11.66679
227.36        13.83907
227.81         16.0462
228.27        17.25893
228.73        17.75286
229.19        17.42919
229.65        16.02942
230.10        13.61174
230.56         10.2858
231.02        7.036969
231.48        6.907791
231.93        10.57993
232.39        15.93936
232.85         21.2199
233.31        25.10909
233.77        27.61513
234.22        29.38734
234.68        30.41807
235.14        30.81727
235.60        30.71802
236.05        29.88692
236.51        28.80579
236.97        29.28132
237.43        32.38102
237.88        37.73728
238.34        42.80001
238.80        44.88647
239.26        43.23543
239.71        37.15192
240.17        25.51226
240.63        12.50238
241.08        6.080492
241.54        8.088066
242.00        14.52297
242.46        20.92066
242.91         27.8603
243.37        37.81696
243.83        55.42729
244.28        77.95164
244.74        88.16519
245.20        86.41759
245.66        80.76777
246.11        74.97452
246.57        68.30833
247.03        57.91634
247.48        38.79461
247.94         8.60996
248.40       -23.07004
248.85       -47.53489
249.31       -52.76623
249.77       -36.45159
250.22        -11.1072
250.68        13.94751
251.14        32.97969
251.59        43.96897
252.05        49.26553
252.51        50.34743
252.96         44.3731
253.42        30.87374
253.88        24.64645
254.33         29.9794
254.79        35.20761
255.25        37.39014
255.70        38.11266
256.16         38.9763
256.62        40.51977
257.07        42.90222
257.53        45.79417
257.99         48.4948
258.44        50.38238
258.90        51.34246
259.35        51.30687
259.81        50.81069
260.27        50.12733
260.72        49.67683
261.18        49.70418
261.63        49.75446
262.09        49.71373
262.55        49.13586
263.00        47.99469
263.46        46.64354
263.91        45.23446
264.37        44.20739
264.83        43.54342
265.28        43.10012
265.74        42.74949
266.19        42.09701
266.65        41.20074
267.11        40.12138
267.56        39.11955
268.02        38.68462
268.47        38.83645
268.93        39.35752
269.38        39.89309
269.84        39.82274
270.30        39.03026
270.75        37.72832
271.21        36.22181
271.66        34.85159
272.12        33.80235
272.57        32.91528
273.03         32.2461
273.48         31.8255
273.94        31.63269
274.39        31.63002
274.85        31.63867
275.31        31.33444
275.76         30.6741
276.22        29.80561
276.67        28.89561
277.13        28.28119
277.58        27.95786
278.04         27.8477
278.49        27.77584
278.95        27.58976
279.40         27.2038
279.86        26.73129
280.31        26.19955
280.77        25.72332
281.22        25.29206
281.68        24.92742
282.13        24.57312
282.59         24.2317
283.04        23.88129
283.50        23.57487
283.95        23.33832
284.41        23.25706
284.86        23.31346
285.32        23.46309
285.77        23.64745
286.22        23.82348
286.68         23.9706
287.13        24.08438
287.59        24.11844
288.04        23.95901
288.50        23.64225
288.95        23.19123
289.41        22.78195
289.86        22.59151
290.32        22.67072
290.77        22.95227
291.22        23.31487
291.68        23.56133
292.13         23.6443
292.59          23.651
293.04        23.66283
293.50        23.85728
293.95        24.25336
294.40        24.79238
294.86        25.39553
295.31        25.95711
295.77        26.43309
296.22        26.85008
296.68        27.22492
297.13        27.56813
297.58        27.90491
298.04        28.24892
298.49        28.60218
298.95        29.00766
299.40         29.4514
299.85        29.91566
300.31         30.4131
300.76        30.95771
301.21        31.54276
301.67        32.17036
302.12         32.7337
302.58        33.09343
303.03         33.2173
303.48        33.18208
303.94        33.16093
304.39        33.34566
304.84         33.7935
305.30        34.41986
305.75        35.09441
306.20        35.63414
306.66         35.9805
307.11        36.16083
307.57        36.22353
308.02         36.1854
308.47        36.08758
308.93        35.93739
309.38        35.73778
309.83        35.55077
310.29        35.40355
310.74        35.28732
311.19        35.21388
311.65        35.17767
312.10        35.16431
312.55        35.17532
313.00        35.19274
313.46        35.18741
313.91        35.14265
314.36         35.0566
314.82        34.93335
315.27        34.80025
315.72        34.65755
316.18        34.50389
316.63        34.31935
317.08        34.08094
317.53        33.78898
317.99        33.46478
318.44        33.12751
318.89         32.8217
319.35         32.5667
319.80        32.35095
320.25        32.17866
320.70        32.04945
321.16        31.94822
321.61        31.88021
322.06        31.80887
322.51        31.67886
322.97        31.47278
323.42        31.21552
323.87        30.93933
324.32        30.71398
324.78         30.5545
325.23        30.45041
325.68        30.37038
326.13        30.27016
326.59        30.12354
327.04        29.95483
327.49        29.75601
327.94        29.52501
328.39        29.26497
328.85        28.96643
329.30        28.65907
329.75        28.36293
330.20        28.09078
330.66        27.83845
331.11        27.61711
331.56        27.40636
332.01        27.20423
332.46        27.01925
332.92        26.84642
333.37        26.70828
333.82        26.59688
334.27        26.50748
334.72         26.4403
335.17        26.39975
335.63        26.37226
336.08        26.36449
336.53         26.3579
336.98        26.33848
337.43        26.29951
337.88        26.24542
338.34        26.16047
338.79        26.03726
339.24        25.87627
339.69        25.68925
340.14        25.51896
340.59        25.43105
341.05        25.42885
341.50        25.49289
341.95        25.57939
342.40        25.61642
342.85        25.58301
343.30        25.50952
343.75        25.40069
344.20        25.26373
344.66         25.1143
345.11        24.93929
345.56        24.79924
346.01        24.79037
346.46         24.9192
346.91        25.14871
347.36        25.37331
347.81        25.43137
348.26        25.29325
348.72        25.02118
349.17        24.68572
349.62        24.44049
350.07         24.3273
350.52        24.29636
350.97        24.30853
351.42        24.29612
351.87        24.24014
352.32        24.18293
352.77        24.10679
353.22        23.98148
353.67        23.80922
354.13        23.58784
354.58        23.38921
355.03        23.36184
355.48        23.52133
355.93        23.83598
356.38        24.13632
356.83        24.13718
357.28        23.79316
357.73        23.20696
358.18        22.61694
358.63        22.37651
359.08        22.54771
359.53        23.00946
359.98        23.55575
360.43        23.83496
360.88        23.74426
361.33        23.40647
361.78        22.95673
362.23        22.59067
362.68        22.37212
363.13        22.23548
363.58        22.16051
364.03        22.12589
364.48        22.10589
364.93         22.1033
365.38        22.09209
365.83        22.02034
366.28        21.87599
366.73        21.67893
367.18        21.41932
367.63        21.09138
368.08        20.72353
368.53        20.33586
368.98        20.01555
369.43        19.88844
369.88        19.96316
370.33        20.18969
370.78        20.46373
371.23        20.59517
371.68        20.51924
372.13        20.29393
372.58        19.96696
373.03        19.61324
373.48         19.2732
373.93        18.93126
374.38        18.64253
374.83        18.50156
375.28        18.52009
375.72        18.66694
376.17        18.85987
376.62         18.9613
377.07        18.93151
377.52         18.8026
377.97         18.6075
378.42        18.40556
378.87        18.22346
379.32        18.04813
379.77        17.88733
380.22        17.75333
380.67        17.64868
381.11        17.58096
381.56        17.54372
382.01        17.52402
382.46        17.51724
382.91        17.52417
383.36        17.53429
383.81        17.53702
384.26        17.52329
384.71        17.47968
385.15        17.41578
385.60        17.36769
386.05        17.33389
386.50        17.31715
386.95         17.2686
387.40        17.11309
387.85        16.85624
388.29        16.52155
388.74        16.23819
389.19        16.13225
389.64        16.21679
390.09          16.435
390.54        16.68185
390.98        16.78605
391.43        16.71095
391.88        16.52086
392.33        16.28329
392.78         16.1009
393.23        16.00123
393.67        15.92131
394.12        15.87171
394.57        15.88398
395.02        15.92537
395.47        15.89436
395.91        15.79971
396.36        15.73533
396.81        15.71327
397.26        15.67674
397.71          15.621
398.15        15.57942
398.60        15.57099
399.05        15.51908
399.50        15.45067
399.95        15.51823
400.39        15.67165
400.84        15.62647
401.29        15.38869
401.74        15.22069
402.18        15.14262
402.63        15.00083
403.08        14.82791
403.53        14.74196
403.97        14.74884
404.42        14.81455
404.87        14.89174
405.32        14.90358
405.76        14.82805
406.21        14.69659
406.66        14.54411
407.11        14.42727
407.55         14.3679
408.00        14.35067
408.45        14.35902
408.90        14.34399
409.34        14.30247
409.79        14.28054
410.24        14.28359
410.68        14.28378
411.13        14.28249
411.58        14.29315
412.03         14.3012
412.47        14.27674
412.92        14.21393
413.37        14.12538
413.81        14.03364
414.26        13.98398
414.71        13.97957
415.15        14.01538
415.60        14.05592
416.05        14.05788
416.49        14.00922
416.94        13.92239
417.39        13.83031
417.83        13.78517
418.28        13.79771
418.73        13.84848
419.17        13.90346
419.62        13.90123
420.07        13.83541
420.51        13.72936
420.96        13.62434
421.41        13.56118
421.85        13.54614
422.30        13.56511
422.74        13.61076
423.19        13.68649
423.64        13.78071
424.08        13.90014
424.53        13.98838
424.98        13.97112
425.42        13.84003
425.87        13.62672
426.31         13.4002
426.76        13.28048
427.21         13.2883
427.65        13.38277
428.10        13.53185
428.54        13.67515
428.99        13.78549
429.44        13.90237
429.88        13.96452
430.33        13.88373
430.77        13.66415
431.22        13.35252
431.66        13.05558
432.11        12.96483
432.56        13.06782
433.00        13.27917
433.45        13.45151
433.89        13.28997
434.34         12.8048
434.78        12.84898
435.23        13.46052
435.67         13.6871
436.12        13.51758
436.57        13.45956
437.01        13.53454
437.46        13.51658
437.90        13.40682
438.35        13.29349
438.79        13.19751
439.24        13.11533
439.68        13.07906
440.13         13.1774
440.57         13.3539
441.02        13.45671
441.46        13.46216
441.91        13.35265
442.35        13.19224
442.80        13.30251
443.24        13.58683
443.69        13.50807
444.13        13.12162
444.58        12.97299
445.02        13.07391
445.47        13.13487
445.91        13.14398
446.36        13.21741
446.80        13.34485
447.24        13.48977
447.69          13.616
448.13        13.66989
448.58        13.64161
449.02         13.5464
449.47        13.42757
449.91        13.34333
450.36        13.31516
450.80        13.32569
451.25        13.34823
451.69        13.32969
452.13        13.26054
452.58        13.16229
453.02        13.06137
453.47        13.00676
453.91        13.00761
454.36        13.05172
454.80        13.10819
455.24        13.12605
455.69         13.0968
456.13        13.02737
456.58        12.96222
457.02        12.95022
457.46        13.00281
457.91        13.10069
458.35        13.19384
458.79        13.18462
459.24        13.06724
459.68        12.90983
460.13        12.79215
460.57        12.57104
461.01        12.63252
461.46        12.67387
461.90        12.77106
462.34        12.81151
462.79         12.8469
463.23        12.83234
463.68        12.81286
464.12        12.82893
464.56        12.88737
465.01        12.98634
465.45        13.06288
465.89        13.04835
466.34        12.94185
466.78        12.76382
467.22        12.57915
467.67        12.52263
468.11        12.57017
468.55        12.72994
468.99        12.92641
469.44        13.06645
469.88        13.12463
470.32        13.12381
470.77        13.08601
471.21        13.04409
471.65        13.01375
472.10          12.985
472.54        12.95815
472.98        12.94463
473.42        12.94668
473.87        12.97194
474.31        13.00484
474.75        13.03189
475.20        13.05284
475.64        13.06186
476.08        13.06531
476.52        13.10734
476.97        13.19618
477.41        13.25631
477.85        13.24903
478.29        13.48904
478.74        13.39205
479.18        13.40971
479.62        13.38998
480.06        13.44832
480.50        13.59511
480.95        13.54657
481.39        13.74772
481.83        13.78597
482.27        13.80286
482.72        13.81646
483.16        13.83017
483.60        13.87537
484.04        13.94723
484.48        13.96599
484.93        14.03278
485.37        14.29789
485.81         14.6134
486.25        14.97101
486.69        14.32802
487.14          13.986
487.58        14.51602
488.02        14.76594
488.46        14.64439
488.90        14.88163
489.34         14.7826
489.79         14.6622
490.23        14.96305
490.67        15.22982
491.11        15.55824
491.55        15.62142
491.99        15.47159
492.43        15.49048
492.88        15.69755
493.32        15.84212
493.76        15.91641
494.20        16.05129
494.64        16.25267
495.08        16.46531
495.52        16.66302
495.96        16.85999
496.41        17.02938
496.85        17.05383
497.29        16.99448
497.73          17.123
498.17        17.42756
498.61        17.61698
499.05        17.67226
499.49        17.79268
499.93        17.97517
500.37        18.09581
500.82        18.16196
501.26        18.24166
501.70        18.34241
502.14        18.44855
502.58        18.54133
503.02        18.59235
503.46        18.60201
503.90        18.58574
504.34        18.58641
504.78        18.66945
505.22        18.84561
505.66        19.09077
506.10        19.34968
506.54        19.53078
506.98        19.60757
507.42        19.60626
507.86        19.56518
508.30        19.54609
508.74        19.57052
509.18        19.62219
509.62        19.69019
510.06        19.75698
510.50         19.8146
510.94        19.86952
511.38         19.9244
511.82        19.98039
512.26        20.03432
512.70        20.07988
513.14        20.10633
513.58        20.09948
514.02        20.06048
514.46        20.00078
514.90         19.9345
515.34        19.88358
515.78         19.8576
516.22        19.85116
516.66           19.87
517.10        19.92126
517.54         19.9997
517.98        20.09932
518.42        20.19262
518.86        20.23492
519.30        20.21581
519.74        20.14667
520.18        20.05421
520.62        19.98287
521.06        19.94558
521.50        19.93114
521.93        19.92739
522.37        19.90823
522.81        19.86969
523.25        19.82326
523.69        19.77554
524.13         19.7346
524.57        19.70298
525.01        19.67426
525.45        19.64927
525.89        19.63128
526.32        19.61793
526.76         19.6059
527.20        19.58458
527.64        19.53684
528.08        19.46162
528.52        19.36825
528.96        19.26956
529.40        19.18489
529.83        19.11818
530.27        19.06873
530.71        19.03346
531.15        19.01223
531.59        19.00015
532.03        18.99275
532.46        18.97723
532.90        18.93719
533.34        18.87214
533.78        18.77674
534.22         18.6613
534.66        18.57312
535.09        18.50213
535.53        18.38244
535.97        18.24304
536.41        18.19406
536.85        18.24435
537.28          18.342
537.72        18.45266
538.16        18.54045
538.60        18.58888
539.04        18.60411
539.47        18.60615
539.91        18.63961
540.35        18.70889
540.79        18.80935
541.22        18.91854
541.66        18.97242
542.10        19.01463
542.54        19.02355
542.97        19.04182
543.41        19.12279
543.85        19.27289
544.29        19.47523
544.72        19.69953
545.16        19.90899
545.60        20.08813
546.04        20.24373
546.47        20.38865
546.91        20.54767
547.35        20.72533
547.79        20.90712
548.22        21.06356
548.66        21.19818
549.10        21.31232
549.53        21.31404
549.97         21.4277
550.41        21.57106
550.84        21.80736
551.28         22.1172
551.72        22.44445
552.15         22.6747
552.59        22.79585
553.03        22.86943
553.46        22.92567
553.90        23.02628
554.34         23.1881
554.77        23.35377
555.21        23.48376
555.65        23.77183
556.08        23.75916
556.52        23.83599
556.96        23.88431
557.39         23.9528
557.83         24.0567
558.27        24.14855
558.70        24.23059
559.14        24.42564
559.57        24.51097
560.01        24.69967
560.45        24.87146
560.88        24.92006
561.32        24.89304
561.75        24.82271
562.19        24.78928
562.63        25.02214
563.06        25.41883
563.50        25.44113
563.93        25.14667
564.37        25.12105
564.80        25.37216
565.24        25.58045
565.68         25.7058
566.11        25.83682
566.55        25.97264
566.98        26.07995
567.42         26.1849
567.85        26.30707
568.29        26.46216
568.72        26.63065
569.16        26.83046
569.60        26.99311
570.03        27.09052
570.47        27.23785
570.90        27.56856
571.34        27.34774
571.77        27.71022
572.21        27.83666
572.64        28.06273
573.08        28.06014
573.51        28.40695
573.95        28.69699
574.38        28.27445
574.82        28.72496
575.25        28.79322
575.69        28.81641
576.12        28.53769
576.56        28.75311
576.99        28.91289
577.42        29.04696
577.86         28.8711
578.29        28.91253
578.73        28.89247
579.16        28.88743
579.60        28.24003
580.03        28.06849
580.47        28.34599
580.90        27.94973
581.33         28.3805
581.77        28.52931
582.20         28.1153
582.64        27.90282
583.07        27.69236
583.51        27.50003
583.94        27.41057
584.37        27.44837
584.81        27.55882
585.24        27.40549
585.68        27.05422
586.11        26.97261
586.54        26.76914
586.98        26.71273
587.41        26.63748
587.85        26.74861
588.28        26.66225
588.71        26.14273
589.15        26.56419
589.58        26.16119
590.01        26.38423
590.45        26.27581
590.88        26.18231
591.31        26.20747
591.75         26.3347
592.18        26.35032
592.61        26.20655
593.05        26.48726
593.48          26.405
593.91        26.46227
594.35        26.37115
594.78        26.48622
595.21        26.75857
595.65        26.86021
596.08        26.79309
596.51        27.10838
596.94        27.24701
597.38         27.5469
597.81        27.83576
598.24         27.8815
598.68        28.29768
599.11        28.45519
599.54        29.18874
599.97        29.31036
600.41        29.66539
600.84        29.83511
601.27        30.27504
601.70        30.77724
602.14         31.2032
602.57        31.43189
603.00        31.77327
603.43        32.06824
603.87        32.64095
604.30        33.04252
604.73        33.37788
605.16        33.72159
605.60        34.08777
606.03        34.62955
606.46        35.20353
606.89        35.52414
607.32        35.72675
607.76        35.99865
608.19        36.36349
608.62        37.01691
609.05        37.45913
609.48        37.67708
609.92        37.64157
610.35        38.00234
610.78        38.80283
611.21        39.19797
611.64        39.20568
612.07        39.45166
612.50        39.96496
612.94        39.99625
613.37        39.96321
613.80        40.35721
614.23        40.24425
614.66        40.73193
615.09        40.86082
615.52        41.21392
615.96        41.51519
616.39         41.9592
616.82        41.98885
617.25        42.22087
617.68        42.73064
618.11        42.91422
618.54         42.8601
618.97        42.86738
619.40        43.03755
619.84        43.15927
620.27        43.21985
620.70        43.66927
621.13        44.46795
621.56        43.84737
621.99        43.92884
622.42        44.03293
622.85        44.07253
623.28        44.18061
623.71        44.14301
624.14        44.69014
624.57        44.26635
625.00        44.29952
625.43        44.33286
625.86        44.26318
626.29        44.06128
626.72        43.87315
627.15        43.65802
627.58        43.35984
628.01        43.02074
628.44        42.91528
628.87        42.96555
629.30        42.74206
629.73        42.28238
630.16        41.98589
630.59        41.85849
631.02        41.66871
631.45        41.38463
631.88        41.06366
632.31        40.70148
632.74        40.28585
633.17        39.84996
633.60        39.44641
634.03        39.08764
634.46        38.76285
634.89        38.44816
635.32        38.10173
635.75        37.71404
636.18        37.30195
636.61        36.87896
637.04        36.46379
637.47        36.06505
637.89        35.66924
638.32        35.26472
638.75        34.89255
639.18        34.56622
639.61        34.14488
640.04        33.88792
640.47        33.58486
640.90        33.31229
641.33        33.06081
641.76        32.83458
642.18        32.68618
642.61        32.61908
643.04        32.54824
643.47        32.43044
643.90        32.65568
644.33        32.51122
644.76        32.51986
645.18        32.50418
645.61        32.64151
646.04        32.88599
646.47        32.97339
646.90        32.93652
647.33        33.04916
647.75        33.32744
648.18        33.61235
648.61        33.90108
649.04        34.23329
649.47        34.59943
649.89        35.07682
650.32          35.611
650.75        35.91466
651.18          36.058
651.61        36.54513
652.03         37.3456
652.46        37.85536
652.89        38.05938
653.32        38.43002
653.74        39.08906
654.17        39.49231
654.60        39.84628
655.03         40.7375
655.46        40.56702
655.88        41.31694
656.31        46.93023
656.74        46.19127
657.16        42.61313
657.59        42.35662
658.02        43.55107
658.45        43.67315
658.87        44.47028
659.30        43.81368
659.73         44.1424
660.15         45.1955
660.58        45.29391
661.01        45.66177
661.44        45.70818
661.86        45.95107
662.29        46.38439
662.72        46.72659
663.14        46.98012
663.57        47.22595
664.00        47.45846
664.42        47.62217
664.85        47.72678
665.27        47.77079
665.70        47.79628
666.13        47.88362
666.55        48.05782
666.98        48.27023
667.41        48.49777
667.83        48.74908
668.26        48.97082
668.69        49.06433
669.11        49.07016
669.54        49.16114
669.96        49.34613
670.39        49.52169
670.82         49.6755
671.24         49.7463
671.67        49.84192
672.09        49.97335
672.52        50.15052
672.94        50.22137
673.37        50.18627
673.80        50.12209
674.22        50.07637
674.65         50.0716
675.07        50.13749
675.50        50.25855
675.92        50.41593
676.35        50.56876
676.77        50.70554
677.20        50.82866
677.62        50.94595
678.05         51.0591
678.47        51.16885
678.90        51.27639
679.32        51.36999
679.75        51.45346
680.17        51.52053
680.60        51.57037
681.02        51.62333
681.45        51.68857
681.87        51.77995
682.30        51.92167
682.72        52.07957
683.15        52.10535
683.57        52.01857
684.00         51.9753
684.42        52.03056
684.85         52.1165
685.27        52.21863
685.70        52.51554
686.12        52.88675
686.54        52.81494
686.97        52.40152
687.39        52.44376
687.82        52.87936
688.24        52.88373
688.66        52.50751
689.09        52.48434
689.51        52.82702
689.94        53.04918
690.36        53.14338
690.78        53.28796
691.21        53.51427
691.63        53.88136
692.06        54.33157
692.48        54.65015
692.90         54.7949
693.33        54.89125
693.75        54.94241
694.17        54.80799
694.60        54.59405
695.02        54.51341
695.44        54.53984
695.87        54.64268
696.29        54.84397
696.71        54.43032
697.14        54.57219
697.56        54.90128
697.98        55.58812
698.41        55.87228
698.83        55.73466
699.25        55.67188
699.68        55.71918
700.10        55.72819
700.52        55.71728
700.94        55.74583
701.37        55.81669
701.79         55.9943
702.21        56.20938
702.64        56.31531
703.06        56.32852
703.48         56.3307
703.90        56.31762
704.33        56.61058
704.75        56.47932
705.17        56.52922
705.59        56.54727
706.01        56.53175
706.44        56.54716
706.86        56.69524
707.28        56.96888
707.70        57.43475
708.12        57.93439
708.55        57.95298
708.97        57.57219
709.39        57.47127
709.81        57.68177
710.23        57.71478
710.66         57.5762
711.08        57.59974
711.50        57.77185
711.92        57.91563
712.34        58.01476
712.76         58.1209
713.19        58.20968
713.61        58.27765
714.03        58.30609
714.45        58.29166
714.87         58.2644
715.29        58.27778
715.71        58.34537
716.13        58.45918
716.56        58.57446
716.98        58.68809
717.40        58.76278
717.82        58.80191
718.24        58.84169
718.66         58.9434
719.08          59.111
719.50        59.31758
719.92        59.49636
720.34        59.54079
720.76        59.43513
721.19        59.22766
721.61        58.99432
722.03        58.84688
722.45        58.82745
722.87        58.90981
723.29        59.07749
723.71        59.29947
724.13         59.5453
724.55        59.80435
724.97        60.04754
725.39         60.2298
725.81        60.33531
726.23        60.37426
726.65        60.33429
727.07        60.20425
727.49        60.00591
727.91        59.76048
728.33        59.55064
728.75        59.50388
729.17        59.63894
729.59        59.91082
730.01        60.23672
730.43        60.46346
730.85        60.54517
731.27        60.54259
731.69        60.46724
732.10        60.34114
732.52        60.18845
732.94        59.98731
733.36        59.84975
733.78          59.921
734.20        60.20992
734.62        60.80685
735.04         61.4883
735.46        61.55489
735.88        61.09497
736.30        60.98021
736.72        61.24321
737.13        61.25843
737.55        61.00113
737.97        60.89788
738.39        60.98591
738.81        61.06707
739.23         61.1669
739.65        61.48057
740.06        61.85333
740.48        62.02304
740.90        61.93479
741.32        61.71081
741.74        61.44681
742.16        61.25688
742.57        61.19254
742.99        61.29037
743.41        61.51284
743.83        61.59385
744.25        61.59607
744.67        61.98738
745.08        62.63706
745.50        62.83856
745.92        62.53662
746.34        62.06409
746.75         61.5906
747.17        61.28507
747.59        61.20716
748.01         61.3525
748.42        61.61518
748.84        61.75286
749.26        61.75657
749.68        61.70928
750.09        61.68051
750.51        61.92502
750.93        62.33035
751.35        62.35712
751.76        62.07395
752.18        62.02796
752.60        62.24855
753.01        62.48578
753.43        62.66963
753.85        62.58589
754.27        62.68858
754.68        62.59297
755.10        62.51631
755.52        62.56781
755.93        62.75483
756.35        63.02075
756.77        63.27282
757.18        63.35165
757.60        63.24113
758.02        63.11139
758.43        62.92196
758.85        62.73778
759.26        62.02832
759.68        62.21237
760.10        62.98284
760.51        63.55424
760.93        63.72346
761.34        63.46209
761.76        63.49027
762.18        62.92376
762.59        62.26875
763.01         62.4785
763.42        63.45753
763.84        63.87538
764.26        63.62945
764.67        63.39845
765.09        63.31982
765.50        63.33654
765.92        63.44899
766.33        63.34721
766.75        62.99442
767.16        63.13559
767.58        63.22385
768.00        63.42945
768.41        63.60812
768.83        63.98057
769.24        64.46039
769.66        64.73683
770.07        64.77563
770.49        64.67342
770.90        64.50291
771.32        64.41985
771.73        64.41984
772.15         64.3221
772.56         64.1515
772.97        64.00525
773.39        63.89426
773.80        64.09137
774.22        64.10723
774.63         64.3614
775.05        64.60471
775.46        64.72732
775.88        64.67054
776.29        64.49575
776.70        64.30521
777.12        64.28109
777.53        64.47546
777.95        64.79793
778.36        65.14307
778.77        65.30369
779.19        65.23232
779.60        65.05112
780.02        64.81395
780.43        64.53681
780.84        64.33354
781.26        64.28758
781.67        64.39663
782.09        64.73296
782.50        65.11344
782.91        64.93734
783.33        64.36901
783.74          64.305
784.15        64.81812
784.57        65.35648
784.98        65.84059
785.39        66.34147
785.81        66.79545
786.22        66.96354
786.63        67.19291
787.04        67.11873
787.46        66.90205
787.87        66.53247
788.28         66.1683
788.70        66.01833
789.11        66.10369
789.52        66.39515
789.93        66.76009
790.35        66.97006
790.76         66.9789
791.17        66.80686
791.58        66.55936
792.00          66.451
792.41        66.51693
792.82        66.56493
793.23        66.53193
793.65        66.52596
794.06        66.50053
794.47        66.19799
794.88        65.79976
795.29        65.72733
795.71        65.94729
796.12        66.46009
796.53        67.04232
796.94        67.09321
797.35        66.59218
797.76        66.20604
798.18        66.10143
798.59        66.01797
799.00        66.01318
799.41        66.29747
799.82        66.77956
800.23        67.15324
800.64        67.34239
801.06        67.41671
801.47        67.40733
801.88         67.2845
802.29        67.07249
802.70        66.74112
803.11        66.39561
803.52        66.27956
803.93        66.41967
804.34        66.64041
804.75        66.86897
805.17        67.17506
805.58        67.56467
805.99        67.65939
806.40        67.52262
806.81         67.9622
807.22        68.69447
807.63         68.2066
808.04        66.75004
808.45        66.09069
808.86        66.39389
809.27        66.71478
809.68        66.90929
810.09          67.153
810.50        67.37713
810.91        67.54474
811.32        67.63863
811.73        67.62948
812.14        67.52628
812.55        67.33395
812.96        67.15433
813.37        67.16451
813.78         67.3998
814.19        67.80869
814.60        68.25735
815.01        68.53512
815.42        68.58784
815.83        68.46648
816.24        68.24903
816.65        68.08975
817.05        68.05439
817.46        68.07993
817.87        68.13545
818.28        68.13528
818.69        68.05531
819.10        67.91908
819.51        67.78926
819.92        67.76938
820.33        67.88162
820.74        68.09055
821.14        68.28084
821.55         68.3092
821.96        68.14115
822.37        67.83592
822.78        67.52718
823.19         67.4505
823.60        67.67928
824.00        68.16081
824.41        68.73241
824.82        69.22671
825.23        69.55518
825.64        69.73067
826.04        69.79871
826.45        69.77165
826.86        69.69328
827.27        69.56454
827.68        69.32318
828.08          68.894
828.49        68.26376
828.90         67.5012
829.31        66.82812
829.72        66.57338
830.12        66.83579
830.53        67.50381
830.94        68.30198
831.35         68.6776
831.75        68.49786
832.16        67.87997
832.57        67.21128
832.97         67.0845
833.38        67.60726
833.79          68.567
834.20        69.64256
834.60        70.28884
835.01        70.31225
835.42        69.92883
835.82        69.30959
836.23        68.70708
836.64        68.23685
837.04        67.82489
837.45        67.53977
837.86        67.56751
838.26        67.92453
838.67        68.53938
839.08        69.18502
839.48        69.43932
839.89        69.19764
840.29        68.59244
840.70        67.86069
841.11        67.35445
841.51        67.19544
841.92        67.24857
842.33        67.47441
842.73        67.81132
843.14        68.15999
843.54        68.60261
843.95        68.99743
844.35         69.1669
844.76         69.0498
845.17        68.67818
845.57        68.25345
845.98        68.09775
846.38        68.30135
846.79        68.76834
847.19        69.29455
847.60        69.44109
848.00        69.12571
848.41        68.46786
848.81        67.75418
849.22        67.39928
849.62        67.51498
850.03        67.95038
850.43        68.48896
850.84        68.62027
851.24        68.28171
851.65        67.61771
852.05        66.94013
852.46        66.71946
852.86        67.04568
853.27          67.716
853.67        68.49876
854.07        69.27728
854.48        69.93146
854.88        70.60899
855.29        71.02635
855.69        70.90965
856.10        70.11956
856.50        68.85344
856.90        67.53371
857.31        66.77776
857.71        66.71028
858.12        67.12868
858.52        67.84775
858.92        68.28671
859.33        68.23248
859.73        67.90778
860.13        67.38356
860.54        66.80284
860.94        66.25237
861.34        65.65752
861.75        65.17709
862.15        65.14758
862.55        65.59861
862.96        66.42891
863.36        67.35004
863.76         67.7906
864.17        67.61489
864.57         66.9981
864.97        66.22066
865.38        65.76604
865.78         65.7972
866.18        66.13641
866.58        66.61842
866.99        66.94431
867.39        67.03306
867.79        67.00389
868.19        66.85065
868.60        66.51784
869.00         66.0257
869.40        65.36337
869.80         64.7813
870.21        64.74915
870.61         65.3972
871.01        66.51583
871.41        67.63866
871.81        68.06064
872.22        67.62914
872.62        66.55775
873.02        65.23913
873.42        64.33141
873.82        64.06239
874.22        64.28352
874.63          64.754
875.03        65.08043
875.43        65.15401
875.83        65.09205
876.23        65.11383
876.63        65.55152
877.03         66.4375
877.44        67.59026
877.84        68.68501
878.24        69.15655
878.64        68.87753
879.04        68.05466
879.44        67.03257
879.84        66.32803
880.24        66.08664
880.64         66.1665
881.04        66.43288
881.44        66.65273
881.84        66.75317
882.24        66.83996
882.65        66.89703
883.05         66.9842
883.45        67.06706
883.85        67.07396
884.25        67.09607
884.65        67.29758
885.05        67.69531
885.45        68.27417
885.85         68.7937
886.25        68.83711
886.65         68.3294
887.05        67.39427
887.45         66.4444
887.85        66.12537
888.25        66.56448
888.65        67.56609
889.04        68.67115
889.44        69.10374
889.84        68.69434
890.24        67.69136
890.64        66.53515
891.04        65.85983
891.44        65.81902
891.84        66.24097
892.24        66.80055
892.64        66.95386
893.04        66.57372
893.44        65.85407
893.83        65.16666
894.23        65.07104
894.63        65.64771
895.03        66.69966
895.43        67.83244
895.83        68.34277
896.23        68.03925
896.63        67.19196
897.02        66.13757
897.42        65.45696
897.82        65.24265
898.22        65.37873
898.62        65.74046
899.01        66.14547
899.41        66.46442
899.81         66.7661
900.21        67.15616
900.61        67.79417
901.00        68.66331
901.40        69.62896
901.80        70.40601
902.20        70.59048
902.59        70.12856
902.99        69.16935
903.39        68.04086
903.79        67.27612
904.18        67.01986
904.58        67.14756
904.98         67.4687
905.38        67.68144
905.77        67.69724
906.17        67.66092
906.57        67.58621
906.96        67.49804
907.36        67.41304
907.76        67.29578
908.15         67.2951
908.55        67.63163
908.95        68.32204
909.34        69.27574
909.74        70.17782
910.14        70.58929
910.53        70.39434
910.93        69.74717
911.33        68.86304
911.72        68.08347
912.12        67.56117
912.52        67.20764
912.91        67.01086
913.31        66.93774
913.70        66.96507
914.10        67.12296
914.49        67.35287
914.89        67.52549
915.29        67.60893
915.68         67.6031
916.08        67.55867
916.47        67.59898
916.87        67.74744
917.26        67.97065
917.66         68.1883
918.05        68.27732
918.45         68.2131
918.84        68.07744
919.24        67.95493
919.64        68.05559
920.03        68.43614
920.42        68.99052
920.82        69.59138
921.21        70.09484
921.61        70.40511
922.00        70.53529
922.40        70.47533
922.79        70.28685
923.19        69.99512
923.58        69.64634
923.98        69.17314
924.37        68.40207
924.77        67.38506
925.16        66.18749
925.55        65.17502
925.95        64.94257
926.34        65.63176
926.74        66.99918
927.13        68.64667
927.52        69.83487
927.92        70.32487
928.31        70.31302
928.70        69.96682
929.10        69.62386
929.49        69.43572
929.89        69.27383
930.28        69.16035
930.67        69.10538
931.07        69.08663
931.46        69.13425
931.85        69.20344
932.24        69.18996
932.64        69.07002
933.03        68.91563
933.42        68.68698
933.82        68.35089
934.21        67.92918
934.60        67.41736
934.99        67.03542
935.39        67.08321
935.78        67.63056
936.17        68.62772
936.56        69.68453
936.96        70.08585
937.35        69.68472
937.74        68.63395
938.13        67.48626
938.53        66.99049
938.92        67.24734
939.31        68.09959
939.70        69.07993
940.09        69.33629
940.49        68.66858
940.88        67.39587
941.27        66.09445
941.66        65.61477
942.05        66.14635
942.44        67.43719
942.84        69.01298
943.23        70.06093
943.62        70.23705
944.01        69.80659
944.40        69.10725
944.79        68.68772
945.18        68.70659
945.57        68.92654
945.97        69.23348
946.36        69.57099
946.75        69.84128
947.14         70.1271
947.53        70.25095
947.92        69.87576
948.31          68.985
948.70        67.71151
949.09        66.46267
949.48        65.84484
949.87        66.00031
950.26        66.80109
950.65        67.91482
951.04        68.72736
951.43         69.0196
951.82        68.90678
952.21         68.6786
952.60        68.80872
952.99        69.37145
953.38        70.17979
953.77        70.86414
954.16        70.80012
954.55        69.88937
954.94        68.45991
955.33        66.92818
955.72        65.90482
956.11        65.55639
956.50        65.63999
956.89        66.10606
957.28        66.87208
957.66        67.86751
958.05        69.04616
958.44        69.97081
958.83        69.79816
959.22        68.43464
959.61        66.21498
960.00        63.96792
960.39        62.88656
960.78        63.18586
961.16        64.53024
961.55        66.32874
961.94        67.66171
962.33         68.1784
962.72        68.14924
963.11        67.67976
963.49        67.01141
963.88        66.30032
964.27         65.5237
964.66        64.89053
965.04        64.72122
965.43        65.02998
965.82        65.72993
966.21        66.65285
966.60        67.41186
966.98        67.83928
967.37         68.0108
967.76        67.85607
968.15        67.28083
968.53        66.35812
968.92        65.12325
969.31        63.97088
969.69        63.51857
970.08        63.85528
970.47        64.85674
970.86        66.08916
971.24        66.72881
971.63        66.45463
972.02        65.52035
972.40        64.31172
972.79         63.4662
973.17        63.17796
973.56        63.25659
973.95        63.48498
974.33        63.54124
974.72        63.29062
975.11        62.81759
975.49        62.42313
975.88        62.62961
976.26        63.60809
976.65        65.09868
977.04        66.50821
977.42        66.88084
977.81        66.02741
978.19        64.24644
978.58        62.49774
978.96        61.99134
979.35        62.96667
979.74        65.13347
980.12        67.88067
980.51        69.40312
980.89        69.30309
981.28        68.00274
981.66        66.27685
982.05        65.47695
982.43        65.93409
982.82        67.15612
983.20        68.96031
983.59        70.86871
983.97        72.68299
984.35        74.47386
984.74        75.66302
985.12        75.47183
985.51        73.81331
985.89        70.89589
986.28         67.7765
986.66        66.00539
987.04        66.11278
987.43        67.74678
987.81        70.01388
988.20        71.13474
988.58        70.63572
988.96        68.83772
989.35        66.84277
989.73        66.39584
990.12        67.80899
990.50         70.5753
990.88        73.19624
991.27        73.28565
991.65        70.48722
992.03        65.70617
992.42        60.78419
992.80        58.25063
993.18        58.83372
993.56        61.75271
993.95        65.68285
994.33        68.53994
994.71        69.34097
995.10        68.70203
995.48        67.24036
995.86        66.00009
996.24        65.40386
996.63        65.05194
997.01        64.79233
997.39        64.46436
997.77        64.00513
998.15        63.57191
998.54        63.25254
998.92        63.12342
999.30        63.20366
999.68        63.43359
1000.06        63.67657
1000.45        63.66725
1000.83         63.4815
1001.21        63.19893
1001.59         62.9132
1001.97        62.80537
1002.35        62.92662
1002.73        63.10175
1003.12        63.55086
1003.50        64.56448
1003.88        66.09409
1004.26        68.05402
1004.64        69.63235
1005.02        69.62524
1005.40        67.92402
1005.78        64.86724
1006.16          61.682
1006.54        60.59615
1006.92        62.17095
1007.30        65.68752
1007.69        69.65808
1008.07        71.84193
1008.45        71.48384
1008.83        69.32478
1009.21        66.19518
1009.59        63.49583
1009.97        61.81999
1010.35         60.7782
1010.73        60.43395
1011.11        60.90815
1011.49        62.19266
1011.86         64.6114
1012.24         67.5467
1012.62        70.09966
1013.00        71.86864
1013.38        72.75276
1013.76        73.26768
1014.14        74.60484
1014.52        77.03028
1014.90        80.18119
1015.28        82.84882
1015.66        82.94646
1016.04        80.35738
1016.41        76.28336
1016.79        72.42079
1017.17        70.18275
1017.55        69.55945
1017.93        70.05881
1018.31        71.15839
1018.69        71.28425
1019.06        69.87133
1019.44        68.03567
1019.82        66.25253
1020.20        64.54842
1020.58        62.82425
1020.95        60.71413
1021.33        58.92326
1021.71        59.17688
1022.09        62.18389
1022.46        67.29929
1022.84         72.7684
1023.22        76.43427
1023.60        77.77705
1023.97        77.39621
1024.35         75.5639
1024.73        73.00293
