SpectraSmart Spectrum 2.9.0.0
--------- Device Information -----------
Spectrum Name :  反射率_0
Saving Time :  2024/05/01 17:00:41
Spectro-Module Model Name : SE2030-DUVN
Spectro-Module Serial Number : OS361AC55029948
Wavelength Start : 200
Wavelength End : 1025
Wavelength Unit : Wavelength(nm)
Spectrum Unit : Reflectance(%)
-----------Spectrum Setting ------------
Integration Time : 20ms
Average : 10
Boxcar : 0
Background removal :  enabled
linearity correction :  enabled
SC :  disabled
Intensity correction :  disabled
DWT denoise :  enabled
savitzky-golay :  disabled
FFT :  disabled
Running average :  disabled
Kalman :  disabled
High pass :  disabled
---------------BEGIN--------------------
Wavelength(nm)             Reflectance(%)
200.29               0
200.75        207.9601
201.21        904.1122
201.67       -379.7047
202.13       -137.6752
202.58       -60.04994
203.04        -14.7027
203.50        12.29867
203.96        22.13033
204.42        16.31877
204.88       -23.13377
205.34       -1115.361
205.80        204.3825
206.26         132.651
206.72        92.66645
207.18        -10.4645
207.64        233.0728
208.10        131.2093
208.55        98.57727
209.01        78.85069
209.47        67.94083
209.93         62.2718
210.39        57.51533
210.85        52.33827
211.31        43.18059
211.77         11.3967
212.23        249.6323
212.69         110.413
213.14        119.3134
213.60        200.1621
214.06       -739.3284
214.52       -91.86495
214.98       -51.38372
215.44       -46.84489
215.90       -68.81329
216.36       -508.7394
216.81        182.1914
217.27        247.8799
217.73       -595.0118
218.19       -143.6131
218.65       -112.5939
219.11       -126.7775
219.57       -199.0058
220.02       -452.3594
220.48       -163.7392
220.94       -29.54704
221.40       -1.630905
221.86        7.887617
222.32        14.23098
222.77        21.48617
223.23        31.49122
223.69        43.72816
224.15        49.25961
224.61        44.74397
225.06        36.71117
225.52        31.28203
225.98        30.71469
226.44        34.50771
226.90        42.31879
227.36        52.82152
227.81        58.44879
228.27        55.81905
228.73        49.69428
229.19        44.43137
229.65        42.36276
230.10        43.12835
230.56        46.04362
231.02        50.21562
231.48        52.90158
231.93        52.64755
232.39        50.97072
232.85        49.23503
233.31        48.70008
233.77        49.34368
234.22        50.54879
234.68        51.87111
235.14        52.95627
235.60        53.78326
236.05        54.64344
236.51        55.64381
236.97        56.99021
237.43         58.4405
237.88        59.57118
238.34        59.66285
238.80        58.60692
239.26        56.11622
239.71        51.69237
240.17        44.12204
240.63         34.5421
241.08        27.45412
241.54        25.43812
242.00        27.35298
242.46        30.91311
242.91        36.54172
243.37        45.82453
243.83        62.50322
244.28        82.11571
244.74        88.71069
245.20        84.83054
245.66         78.2391
246.11        71.88502
246.57        64.64178
247.03        53.44687
247.48        33.13927
247.94        1.922337
248.40       -30.13892
248.85       -54.78642
249.31       -60.36575
249.77       -44.91219
250.22       -20.62953
250.68        3.698495
251.14         21.8336
251.59          30.834
252.05        32.34964
252.51        25.68854
252.96        4.049244
253.42       -22.62164
253.88       -6.760829
254.33        29.04959
254.79         47.2458
255.25        51.96286
255.70        51.28479
256.16          49.651
256.62        48.90339
257.07        50.17184
257.53        52.91134
257.99        55.75592
258.44        57.81334
258.90        58.81039
259.35         58.6487
259.81        58.06814
260.27        57.24376
260.72        56.47106
261.18        56.08781
261.63        55.65561
262.09        55.36285
262.55        55.05888
263.00        54.61016
263.46        54.19767
263.91        53.59108
264.37        52.80493
264.83        51.82617
265.28        50.73484
265.74        49.72929
266.19        48.81703
266.65        48.12205
267.11        47.52508
267.56        47.11062
268.02        47.11079
268.47        47.46145
268.93        48.04964
269.38        48.54037
269.84        48.34174
270.30        47.37898
270.75        45.85075
271.21        44.17104
271.66        42.84512
272.12        42.07681
272.57        41.64607
273.03        41.46765
273.48         41.3326
273.94        41.17352
274.39        41.01293
274.85        40.78521
275.31        40.30831
275.76        39.56697
276.22        38.67162
276.67        37.72788
277.13        37.02283
277.58        36.52924
278.04        36.21202
278.49        35.92027
278.95        35.55275
279.40        35.02948
279.86        34.45916
280.31        33.83842
280.77        33.26753
281.22        32.71575
281.68        32.21993
282.13        31.72363
282.59        31.25388
283.04        30.77629
283.50        30.33776
283.95        29.94024
284.41        29.65015
284.86        29.45143
285.32        29.33238
285.77        29.24662
286.22        29.17178
286.68        29.09584
287.13        29.00948
287.59        28.88912
288.04          28.657
288.50        28.34672
288.95        27.94661
289.41        27.59221
289.86        27.39322
290.32        27.38675
290.77        27.51916
291.22        27.67592
291.68         27.6685
292.13         27.4674
292.59        27.17469
293.04        26.90505
293.50        26.89126
293.95        27.16205
294.40        27.63663
294.86        28.22509
295.31        28.79833
295.77        29.29141
296.22        29.73049
296.68         30.0825
297.13        30.28034
297.58        30.34895
298.04        30.33348
298.49        30.32133
298.95        30.49638
299.40        30.87671
299.85         31.3994
300.31         32.0116
300.76        32.62361
301.21        33.19695
301.67        33.76249
302.12        34.22807
302.58        34.48107
303.03        34.50189
303.48        34.35624
303.94        34.22502
304.39        34.31232
304.84        34.67596
305.30         35.2308
305.75           35.84
306.20        36.30691
306.66        36.57456
307.11        36.68159
307.57        36.67918
308.02        36.58683
308.47        36.44807
308.93        36.26421
309.38        36.05577
309.83        35.91279
310.29        35.86021
310.74        35.87761
311.19         35.9304
311.65        35.94123
312.10        35.88458
312.55        35.78536
313.00        35.68118
313.46        35.63268
313.91        35.64293
314.36        35.67948
314.82        35.70073
315.27        35.65815
315.72        35.52925
316.18        35.34036
316.63        35.09377
317.08        34.79908
317.53        34.47121
317.99        34.12257
318.44        33.77989
318.89        33.50048
319.35        33.30561
319.80        33.18434
320.25        33.12654
320.70        33.10661
321.16        33.09977
321.61        33.10957
322.06        33.10916
322.51        33.06339
322.97        32.95558
323.42        32.80238
323.87        32.60992
324.32        32.40721
324.78        32.20398
325.23        32.00878
325.68        31.82987
326.13        31.68385
326.59        31.56513
327.04        31.49004
327.49        31.42605
327.94        31.32576
328.39        31.17725
328.85        30.97867
329.30        30.78368
329.75        30.65084
330.20        30.59427
330.66        30.58374
331.11        30.58547
331.56        30.50811
332.01        30.33139
332.46        30.08635
332.92        29.80633
333.37        29.58169
333.82        29.43115
334.27        29.33964
334.72        29.30199
335.17        29.30731
335.63        29.33451
336.08        29.40113
336.53        29.48344
336.98         29.5569
337.43        29.61143
337.88        29.64774
338.34        29.64925
338.79          29.615
339.24         29.5421
339.69         29.4347
340.14        29.33288
340.59        29.30055
341.05        29.33907
341.50        29.43115
341.95        29.52748
342.40        29.54606
342.85        29.47054
343.30        29.34352
343.75        29.18799
344.20        29.03698
344.66        28.91404
345.11        28.79914
345.56        28.74989
346.01         28.8546
346.46        29.10913
346.91        29.47222
347.36         29.8195
347.81        29.96367
348.26        29.87117
348.72        29.61033
349.17        29.26959
349.62          29.035
350.07        28.95712
350.52        28.97739
350.97        29.04508
351.42        29.07221
351.87         29.0332
352.32        28.97764
352.77        28.89222
353.22        28.75264
353.67        28.56423
354.13        28.32436
354.58        28.10459
355.03        28.05748
355.48        28.20056
355.93         28.5045
356.38        28.79931
356.83         28.7978
357.28        28.45392
357.73        27.86919
358.18        27.28611
358.63        27.06471
359.08        27.26655
359.53        27.76772
359.98        28.34864
360.43        28.63604
360.88        28.52213
361.33        28.13495
361.78         27.6289
362.23        27.22822
362.68        27.00219
363.13        26.87863
363.58        26.81706
364.03        26.76233
364.48        26.68431
364.93        26.60054
365.38        26.51151
365.83        26.40509
366.28        26.27687
366.73        26.13044
367.18        25.93571
367.63        25.65399
368.08        25.30117
368.53        24.90698
368.98        24.56126
369.43        24.39349
369.88        24.41629
370.33        24.57765
370.78        24.78441
371.23         24.8689
371.68        24.77287
372.13         24.5495
372.58        24.23321
373.03        23.87625
373.48        23.51102
373.93        23.12573
374.38        22.78049
374.83        22.57953
375.28        22.53995
375.72           22.63
376.17        22.76542
376.62        22.80288
377.07        22.70335
377.52        22.50183
377.97         22.2471
378.42        22.02068
378.87         21.8525
379.32        21.72443
379.77        21.61644
380.22        21.49894
380.67        21.36607
381.11        21.23268
381.56        21.12863
382.01        21.10302
382.46        21.15957
382.91        21.27523
383.36        21.38545
383.81        21.39656
384.26        21.28687
384.71        21.07788
385.15        20.83034
385.60        20.66246
386.05        20.59415
386.50        20.59725
386.95        20.60365
387.40        20.50808
387.85        20.29949
388.29        20.01021
388.74        19.75099
389.19        19.61217
389.64         19.6087
390.09        19.69522
390.54        19.81256
390.98         19.8653
391.43        19.83307
391.88        19.75114
392.33        19.64271
392.78        19.54806
393.23        19.48182
393.67        19.39778
394.12        19.32932
394.57        19.34596
395.02        19.41928
395.47        19.41101
395.91        19.33372
396.36        19.31234
396.81        19.35577
397.26        19.38932
397.71        19.38813
398.15         19.3626
398.60        19.33442
399.05        19.22617
399.50        19.08606
399.95        19.12162
400.39        19.27827
400.84         19.1993
401.29        18.90743
401.74        18.74913
402.18        18.74785
402.63        18.70091
403.08        18.60778
403.53        18.55363
403.97        18.53506
404.42        18.53269
404.87        18.52068
405.32        18.45797
405.76        18.33726
406.21        18.18301
406.66        18.03436
407.11         17.9541
407.55        17.96081
408.00        18.03511
408.45        18.14101
408.90        18.18779
409.34        18.15936
409.79        18.11893
410.24        18.08054
410.68        18.02248
411.13        17.95678
411.58        17.90552
412.03        17.86061
412.47        17.80221
412.92        17.72878
413.37        17.64972
413.81        17.59717
414.26        17.63239
414.71        17.75275
415.15         17.9458
415.60        18.13087
416.05        18.19132
416.49        18.10033
416.94        17.89273
417.39        17.65828
417.83        17.54147
418.28        17.57703
418.73        17.71777
419.17        17.89234
419.62        17.97778
420.07        17.94832
420.51        17.84969
420.96        17.73621
421.41         17.6626
421.85        17.64341
422.30        17.66117
422.74        17.71639
423.19        17.83353
423.64        18.00036
424.08         18.2168
424.53        18.40932
424.98        18.47491
425.42        18.39289
425.87        18.20031
426.31        17.96438
426.76        17.80357
427.21        17.74563
427.65        17.75512
428.10        17.82921
428.54        17.95308
428.99        18.11262
429.44        18.33729
429.88        18.52764
430.33        18.54526
430.77        18.38209
431.22        18.10079
431.66        17.83013
432.11        17.80305
432.56        17.99547
433.00         18.2812
433.45        18.46823
433.89        18.20809
434.34        17.52145
434.78        17.52033
435.23        18.26964
435.67        18.54819
436.12        18.35067
436.57        18.32658
437.01        18.50156
437.46        18.56977
437.90        18.52148
438.35         18.4733
438.79        18.43091
439.24        18.35667
439.68        18.28905
440.13        18.35743
440.57        18.52024
441.02        18.61922
441.46        18.63298
441.91        18.56433
442.35        18.44415
442.80        18.54992
443.24        18.77854
443.69        18.61611
444.13        18.15436
444.58        17.98225
445.02        18.11823
445.47        18.26233
445.91        18.37214
446.36        18.51663
446.80        18.67138
447.24        18.81414
447.69         18.9224
448.13        18.96289
448.58        18.93438
449.02        18.84227
449.47         18.7304
449.91        18.65538
450.36         18.6397
450.80        18.66896
451.25         18.7123
451.69        18.70497
452.13         18.6365
452.58        18.52919
453.02        18.42086
453.47        18.38223
453.91        18.42294
454.36        18.52391
454.80        18.63104
455.24        18.65831
455.69        18.59348
456.13        18.45569
456.58        18.31715
457.02        18.26136
457.46         18.3101
457.91        18.43272
458.35        18.56622
458.79        18.58443
459.24        18.47447
459.68        18.32764
460.13         18.2321
460.57        17.95179
461.01        18.02821
461.46        18.03822
461.90        18.11106
462.34        18.12644
462.79        18.16993
463.23        18.17409
463.68        18.17917
464.12        18.20428
464.56        18.25306
465.01         18.3377
465.45        18.40576
465.89        18.41547
466.34        18.36749
466.78        18.26943
467.22        18.16233
467.67        18.14928
468.11        18.17305
468.55        18.27681
468.99        18.39888
469.44        18.47913
469.88        18.50457
470.32        18.48839
470.77        18.45549
471.21        18.44409
471.65        18.46428
472.10        18.50549
472.54         18.5447
472.98        18.55808
473.42        18.54315
473.87        18.52052
474.31        18.49644
474.75        18.49785
475.20          18.533
475.64         18.5825
476.08        18.63915
476.52        18.72367
476.97        18.83671
477.41        18.94484
477.85        18.88527
478.29        19.19537
478.74        19.01349
479.18        18.98202
479.62        18.90069
480.06        18.95936
480.50         19.1772
480.95        19.14944
481.39        19.47078
481.83        19.51037
482.27        19.45708
482.72        19.34602
483.16        19.23295
483.60        19.21564
484.04        19.28047
484.48        19.39176
484.93        19.65033
485.37        19.91589
485.81        19.96919
486.25        20.79803
486.69        19.80014
487.14        19.29081
487.58        19.70924
488.02         20.3249
488.46        20.11249
488.90        20.56528
489.34        20.30874
489.79        20.12248
490.23        20.56862
490.67        20.86953
491.11        21.19004
491.55        21.22698
491.99        21.04819
492.43        21.05225
492.88        21.26027
493.32        21.40071
493.76        21.46276
494.20        21.59278
494.64        21.79806
495.08        22.01153
495.52        22.20395
495.96        22.40813
496.41        22.59087
496.85        22.57966
497.29        22.45058
497.73        22.58034
498.17        22.93681
498.61        23.08096
499.05        23.01092
499.49        23.07082
499.93        23.26574
500.37        23.39711
500.82        23.46656
501.26        23.56708
501.70        23.70132
502.14        23.84294
502.58        23.96968
503.02        24.04859
503.46        24.07709
503.90        24.07196
504.34        24.07012
504.78        24.12772
505.22        24.25709
505.66        24.43983
506.10         24.6377
506.54        24.78632
506.98        24.86598
507.42        24.89535
507.86         24.8974
508.30        24.90877
508.74        24.94253
509.18        24.98771
509.62        25.03975
510.06        25.09213
510.50        25.14204
510.94        25.19474
511.38        25.24834
511.82        25.29753
512.26        25.33892
512.70        25.36807
513.14        25.38818
513.58        25.40626
514.02        25.42411
514.46        25.44395
514.90        25.45304
515.34        25.43047
515.78        25.37723
516.22        25.30304
516.66        25.24141
517.10        25.24307
517.54        25.31606
517.98        25.44349
518.42         25.5849
518.86        25.67257
519.30        25.68835
519.74        25.65163
520.18        25.59274
520.62        25.56203
521.06        25.57178
521.50         25.6012
521.93        25.63685
522.37         25.6522
522.81        25.64178
523.25        25.62105
523.69        25.58401
524.13        25.51804
524.57         25.4286
525.01        25.31993
525.45        25.22632
525.89        25.20336
526.32        25.25533
526.76        25.35737
527.20         25.4631
527.64         25.4963
528.08        25.43889
528.52        25.32209
528.96        25.16954
529.40        25.01846
529.83        24.88503
530.27         24.7643
530.71        24.67934
531.15          24.673
531.59        24.74379
532.03        24.87465
532.46        25.00408
532.90        25.03703
533.34        24.95413
533.78        24.76743
534.22        24.53438
534.66        24.38566
535.09        24.32377
535.53        24.24144
535.97        24.13814
536.41        24.09913
536.85        24.12323
537.28        24.16226
537.72        24.21209
538.16        24.28741
538.60        24.38018
539.04        24.47742
539.47        24.56406
539.91        24.63619
540.35        24.68633
540.79        24.72865
541.22        24.77084
541.66        24.78867
542.10        24.85199
542.54        24.91036
542.97        24.98594
543.41        25.09669
543.85        25.23863
544.29        25.40798
544.72        25.58808
545.16        25.76555
545.60        25.93004
546.04        26.07996
546.47        26.22203
546.91        26.37281
547.35        26.53537
547.79        26.69903
548.22         26.8328
548.66        26.94895
549.10        27.04916
549.53        27.01182
549.97        27.11617
550.41        27.25221
550.84        27.49905
551.28         27.8362
551.72         28.1933
552.15        28.42664
552.59         28.5238
553.03        28.56257
553.46        28.58977
553.90        28.69556
554.34        28.90141
554.77        29.13049
555.21        29.31768
555.65        29.68016
556.08         29.6385
556.52        29.68543
556.96        29.68788
557.39         29.7288
557.83        29.83114
558.27        29.92851
558.70        30.00964
559.14        30.20445
559.57         30.2353
560.01        30.37688
560.45        30.49702
560.88        30.48879
561.32        30.41598
561.75        30.30932
562.19         30.2599
562.63        30.53621
563.06        31.00825
563.50        31.02343
563.93        30.64915
564.37          30.593
564.80        30.86554
565.24        31.07904
565.68        31.19566
566.11        31.34229
566.55        31.52028
566.98        31.67524
567.42        31.82798
567.85        31.99473
568.29        32.17664
568.72        32.34087
569.16        32.51255
569.60        32.63593
570.03        32.68176
570.47        32.92619
570.90        33.01414
571.34          33.009
571.77        33.15474
572.21        33.27013
572.64        33.48555
573.08        33.41891
573.51        33.77493
573.95        34.09226
574.38        33.90079
574.82        34.23217
575.25        34.25169
575.69        34.30244
576.12        34.22971
576.56        34.21741
576.99        34.63161
577.42        34.32822
577.86        34.47608
578.29        34.41254
578.73        34.52305
579.16        34.28451
579.60        33.95249
580.03        33.76538
580.47        33.94695
580.90        33.43061
581.33        34.03334
581.77        34.25169
582.20         33.9187
582.64        33.62575
583.07        33.38205
583.51        33.18348
583.94        33.18759
584.37        33.24541
584.81        33.32475
585.24        33.18558
585.68        32.85408
586.11        32.87908
586.54        32.82651
586.98          32.391
587.41        32.42936
587.85        32.71255
588.28        32.47533
588.71        31.72378
589.15        32.42916
589.58        32.00564
590.01        32.20792
590.45        32.12801
590.88        32.11978
591.31        32.22131
591.75        32.41169
592.18        32.30488
592.61        31.86974
593.05        32.42472
593.48        32.46818
593.91        32.30915
594.35        32.61748
594.78        32.66722
595.21        32.73491
595.65        32.97373
596.08        33.03432
596.51        33.06514
596.94        33.38105
597.38        33.56644
597.81        33.76099
598.24        33.76191
598.68        34.28479
599.11        34.21497
599.54        34.67619
599.97        34.81211
600.41        35.11735
600.84        35.77054
601.27        35.88046
601.70        36.51315
602.14        37.06783
602.57        37.25055
603.00         37.2051
603.43        37.39503
603.87        38.13088
604.30        38.56704
604.73        38.81923
605.16        39.17632
605.60        39.62974
606.03        40.18971
606.46         40.6955
606.89        40.88081
607.32        40.91894
607.76        41.11873
608.19        41.56187
608.62        42.17728
609.05        42.66328
609.48        43.00913
609.92        43.00829
610.35        42.82937
610.78        44.10314
611.21        44.47335
611.64        44.39434
612.07        44.90134
612.50        45.23181
612.94        45.28004
613.37        45.39257
613.80        45.75917
614.23         45.7355
614.66        46.23365
615.09         46.3869
615.52        46.71881
615.96        46.95314
616.39        47.51334
616.82        47.45047
617.25         47.7379
617.68        48.08347
618.11        48.31741
618.54        48.42983
618.97        48.56385
619.40        48.76862
619.84         48.9151
620.27        48.99189
620.70        49.26914
621.13        49.75864
621.56        49.38357
621.99        49.29452
622.42         49.6609
622.85        49.90702
623.28        49.77814
623.71        49.83362
624.14        49.84827
624.57        49.88024
625.00        49.89711
625.43        49.85064
625.86        49.85226
626.29        49.87249
626.72        49.64066
627.15        49.59191
627.58        49.27231
628.01        48.90096
628.44        48.87053
628.87        49.07817
629.30        48.87441
629.73        48.30364
630.16        47.97582
630.59        47.90738
631.02        47.74984
631.45        47.47918
631.88        47.22014
632.31        46.96736
632.74        46.68565
633.17        46.37668
633.60        46.04288
634.03         45.6853
634.46        45.31026
634.89        44.92164
635.32        44.52432
635.75        44.12403
636.18        43.72331
636.61        43.32679
637.04        42.93761
637.47        42.55859
637.89         42.1852
638.32          41.793
638.75         41.4099
639.18        41.05111
639.61         40.5526
640.04        40.25067
640.47        39.94407
640.90        39.73001
641.33        39.57752
641.76        39.45555
642.18        39.36677
642.61        39.29782
643.04        39.16715
643.47        38.94074
643.90         39.1163
644.33        38.85495
644.76        38.77638
645.18        38.68626
645.61        38.82168
646.04        39.13388
646.47        39.30555
646.90        39.33679
647.33        39.50402
647.75        39.80628
648.18        40.01308
648.61        40.17007
649.04        40.48237
649.47         40.9023
649.89        41.35303
650.32        41.74957
650.75        41.76878
651.18        41.59076
651.61        42.02834
652.03        43.02154
652.46        43.62838
652.89        43.77529
653.32        44.04818
653.74        44.57987
654.17        44.86094
654.60        45.40705
655.03        46.11715
655.46        45.63591
655.88        46.68654
656.31        52.15543
656.74        50.69663
657.16        46.70587
657.59        46.43207
658.02        48.11298
658.45        48.89845
658.87        49.06292
659.30        48.75506
659.73        49.32243
660.15        50.22248
660.58        50.26032
661.01        50.28974
661.44        50.07594
661.86        50.34996
662.29        51.08208
662.72        51.64091
663.14        51.95918
663.57        52.25254
664.00        52.51943
664.42         52.6975
664.85        52.80428
665.27        52.80051
665.70        52.76745
666.13        52.88455
666.55        53.19016
666.98         53.6017
667.41        54.04891
667.83        54.45853
668.26        54.75415
668.69        54.86961
669.11        54.86485
669.54        54.95148
669.96        55.15601
670.39        55.33042
670.82         55.4712
671.24        55.64179
671.67        55.83558
672.09        56.01677
672.52        56.17875
672.94         56.2816
673.37        56.32877
673.80        56.33127
674.22         56.3326
674.65        56.37606
675.07        56.49153
675.50        56.65422
675.92         56.8487
676.35        57.04368
676.77        57.22999
677.20        57.39886
677.62         57.5532
678.05        57.71127
678.47        57.86046
678.90        57.94933
679.32        57.99608
679.75        58.09575
680.17        58.23608
680.60        58.42008
681.02        58.65781
681.45        58.78812
681.87        58.77315
682.30        59.33139
682.72        59.24143
683.15        59.35002
683.57         59.3329
684.00        59.37277
684.42        59.47759
684.85        59.59713
685.27        59.73759
685.70         59.9059
686.12        60.04821
686.54        60.28702
686.97        60.20722
687.39        60.23478
687.82        60.25732
688.24        60.14835
688.66        59.99821
689.09        60.18415
689.51        60.66265
689.94        60.94717
690.36        61.00435
690.78         61.1193
691.21        61.34244
691.63        61.53391
692.06        61.75554
692.48        62.27871
692.90        62.95785
693.33        63.29722
693.75        63.23874
694.17        62.96225
694.60        62.64866
695.02        62.50692
695.44        62.53561
695.87        62.66938
696.29        62.89327
696.71        62.50054
697.14        62.62738
697.56        62.85935
697.98        63.42661
698.41        63.77665
698.83         63.8731
699.25        63.99897
699.68        64.14182
700.10        64.24017
700.52        64.29359
700.94        64.27807
701.37         64.2431
701.79        64.38982
702.21        64.66335
702.64        64.86225
703.06        64.95705
703.48        64.96439
703.90        64.86523
704.33        65.05938
704.75         64.7701
705.17        64.79041
705.59        64.89541
706.01        65.04825
706.44        65.25111
706.86        65.50811
707.28         65.7817
707.70        66.17459
708.12        66.56345
708.55        66.47805
708.97         66.0223
709.39        65.87512
709.81        66.07003
710.23         66.1098
710.66        65.99702
711.08        66.07841
711.50        66.32011
711.92        66.50652
712.34        66.61214
712.76        66.69654
713.19        66.75206
713.61        66.80379
714.03         66.8386
714.45        66.87049
714.87        66.91378
715.29         66.9361
715.71        66.97327
716.13        67.16442
716.56        67.43803
716.98        67.62063
717.40        67.65538
717.82        67.64189
718.24        67.63027
718.66        67.68014
719.08        67.81128
719.50        67.97219
719.92        68.09891
720.34        68.25793
720.76        68.16361
721.19        68.06712
721.61        67.94956
722.03        67.89508
722.45        67.93129
722.87        68.06198
723.29        68.26802
723.71        68.40644
724.13        68.60654
724.55        68.75321
724.97        68.91306
725.39        69.06753
725.81        69.20469
726.23        69.49715
726.65        69.58857
727.07        69.57956
727.49        69.39669
727.91        69.18105
728.33        69.01126
728.75        68.93229
729.17        68.97343
729.59        69.14374
730.01         69.3777
730.43        69.52722
730.85        69.57401
731.27        69.53648
731.69        69.57819
732.10        69.50623
732.52        69.39235
732.94         69.2289
733.36        69.11723
733.78        69.23518
734.20        69.59995
734.62        70.02198
735.04        70.84061
735.46        70.89387
735.88        70.48139
736.30         70.6534
736.72        71.31899
737.13        71.49155
737.55        71.10905
737.97        70.65561
738.39        70.34073
738.81         70.5154
739.23        71.10031
739.65        71.38853
740.06        71.28166
740.48        71.35511
740.90        71.57088
741.32        71.58559
741.74        71.40409
742.16        71.27222
742.57         71.2289
742.99         71.1545
743.41        71.11411
743.83        71.27435
744.25        71.59892
744.67        71.90507
745.08        72.10651
745.50        72.13165
745.92        71.96449
746.34        71.56683
746.75        71.07214
747.17         70.7708
747.59        70.71871
748.01        70.86404
748.42        71.10299
748.84        71.27792
749.26        71.36486
749.68        71.23356
750.09        71.03217
750.51        71.43249
750.93        72.25185
751.35        72.44447
751.76        72.06796
752.18        72.06364
752.60        72.46889
753.01        72.75085
753.43        72.83399
753.85        72.87623
754.27        72.87306
754.68        72.84772
755.10        72.87473
755.52        72.76644
755.93         73.0068
756.35        73.15792
756.77        73.28712
757.18        73.36775
757.60        73.42507
758.02        73.37067
758.43        72.99813
758.85        73.52625
759.26        72.09332
759.68        72.32448
760.10        73.17982
760.51        74.11986
760.93        74.09475
761.34        73.84141
761.76         73.9593
762.18        73.40444
762.59        72.75912
763.01        72.61131
763.42        73.72044
763.84        74.04046
764.26        73.72271
764.67        73.47131
765.09        73.41953
765.50        73.37907
765.92         73.3689
766.33        73.28307
766.75        73.06498
767.16        73.10349
767.58        73.38999
768.00        73.43797
768.41         73.4022
768.83        74.29705
769.24        75.74706
769.66        76.02698
770.07        75.21534
770.49         74.6662
770.90        74.61012
771.32        74.80167
771.73        75.12009
772.15        75.17074
772.56        74.93001
772.97        74.74843
773.39        74.68408
773.80        74.67841
774.22        74.71437
774.63        74.87381
775.05        75.06969
775.46        75.22166
775.88        75.27664
776.29        75.29036
776.70         75.2962
777.12        75.37598
777.53        75.54853
777.95        75.74049
778.36        75.92505
778.77        75.96838
779.19          75.844
779.60        75.81749
780.02        75.83733
780.43        75.37648
780.84        74.71549
781.26        74.81848
781.67        75.58197
782.09        76.31041
782.50        76.51976
782.91        76.04449
783.33        75.13503
783.74        74.89407
784.15        75.44515
784.57        76.13912
784.98        76.81485
785.39        77.32373
785.81        77.59776
786.22        77.70004
786.63        78.10738
787.04        77.85012
787.46        77.84327
787.87        77.68688
788.28        77.66744
788.70        77.70548
789.11        77.78866
789.52         78.0108
789.93        78.24611
790.35        78.25473
790.76        78.01985
791.17        77.59203
791.58        77.14753
792.00        76.94949
792.41        77.07284
792.82        77.43501
793.23        77.85374
793.65        78.06625
794.06        77.99136
794.47        77.60472
794.88        77.14404
795.29        77.01079
795.71        77.18717
796.12        77.67716
796.53        78.27238
796.94        78.45496
797.35        78.15803
797.76        77.87024
798.18         77.7207
798.59        77.54561
799.00        77.40536
799.41        77.42883
799.82        77.60632
800.23        77.82765
800.64        78.06161
801.06         78.3256
801.47        78.57893
801.88        78.63806
802.29        78.47201
802.70        78.10573
803.11        77.70277
803.52        77.54131
803.93        77.70609
804.34        78.13532
804.75        78.65075
805.17        79.04193
805.58        79.28821
805.99        79.05097
806.40        78.54831
806.81        79.02374
807.22        80.13485
807.63        79.77548
808.04        78.18253
808.45        77.57971
808.86        78.12994
809.27        78.59171
809.68        78.79768
810.09        79.04447
810.50        79.26442
810.91        79.37691
811.32        79.37968
811.73        79.27615
812.14        79.08636
812.55        78.82242
812.96        78.57941
813.37        78.51241
813.78        78.65691
814.19        78.97504
814.60        79.35122
815.01        79.59669
815.42        79.66182
815.83        79.59247
816.24        79.44682
816.65        79.34149
817.05         79.3274
817.46        79.34275
817.87        79.38477
818.28        79.40794
818.69        79.39432
819.10        79.35195
819.51        79.31105
819.92        79.31712
820.33        79.37589
820.74        79.47472
821.14        79.53201
821.55        79.45391
821.96        79.22354
822.37        78.89768
822.78        78.59976
823.19        78.54794
823.60        78.80405
824.00        79.30837
824.41        79.91867
824.82         80.5157
825.23         81.0133
825.64        81.42059
826.04        81.68237
826.45         81.6309
826.86        81.29078
827.27         80.7135
827.68        80.03484
828.08        79.51033
828.49        79.18904
828.90        79.03412
829.31        79.03621
829.72        79.14796
830.12        79.37281
830.53         79.7008
830.94        80.01388
831.35        80.04656
831.75        79.77452
832.16        79.21127
832.57        78.69331
832.97        78.73592
833.38        79.40277
833.79        80.52256
834.20        81.70794
834.60        82.29121
835.01        82.05976
835.42        81.26324
835.82        80.20921
836.23        79.36906
836.64        78.91357
837.04        78.73232
837.45        78.76186
837.86        78.96676
838.26        79.29996
838.67        79.73021
839.08         80.1787
839.48        80.46663
839.89        80.52615
840.29        80.39767
840.70        80.10967
841.11        79.69173
841.51        79.21297
841.92        78.66415
842.33        78.22706
842.73        78.19926
843.14        78.58173
843.54        79.34938
843.95        80.22869
844.35        80.82626
844.76        80.97463
845.17        80.76382
845.57        80.38494
845.98        80.14487
846.38        80.15353
846.79        80.30449
847.19        80.47409
847.60        80.36353
848.00        79.95184
848.41        79.34895
848.81        78.79005
849.22        78.59788
849.62        78.85466
850.03        79.41188
850.43        80.09329
850.84        80.43488
851.24        80.37633
851.65        80.01095
852.05        79.54674
852.46        79.28077
852.86        79.29144
853.27        79.48221
853.67        79.75848
854.07        80.19994
854.48        80.71557
854.88         81.4205
855.29        81.98283
855.69        82.06986
856.10        81.47231
856.50        80.40165
856.90        79.25504
857.31        78.63195
857.71         78.6552
858.12         79.1015
858.52        79.79609
858.92        80.16446
859.33        80.00131
859.73        79.53886
860.13        78.86765
860.54        78.15472
860.94         77.4985
861.34        76.83753
861.75        76.30593
862.15         76.2051
862.55        76.55737
862.96         77.2691
863.36        78.11111
863.76        78.60435
864.17        78.61805
864.57        78.28866
864.97        77.79966
865.38         77.4772
865.78        77.45493
866.18        77.60487
866.58        77.83605
866.99        77.98963
867.39        78.05095
867.79        78.09377
868.19        78.10088
868.60        78.00047
869.00        77.79028
869.40        77.46027
869.80        77.20074
870.21         77.3622
870.61        78.04189
871.01        79.04705
871.41        79.96069
871.81        80.15829
872.22        79.52898
872.62        78.29467
873.02        76.86347
873.42        75.91263
873.82        75.67285
874.22        75.97845
874.63        76.60876
875.03        77.19577
875.43        77.60382
875.83        77.91812
876.23         78.2312
876.63        78.68383
877.03        79.28204
877.44        79.91177
877.84        80.41281
878.24        80.49257
878.64        80.11131
879.04        79.40044
879.44        78.61103
879.84        78.11282
880.24        77.98746
880.64        78.11684
881.04        78.37189
881.44        78.52345
881.84        78.50647
882.24        78.43527
882.65         78.2627
883.05        78.03152
883.45        77.74442
883.85        77.38341
884.25        77.18728
884.65        77.52084
885.05        78.41386
885.45        79.76349
885.85        81.15466
886.25        81.86115
886.65        81.67986
887.05        80.78984
887.45        79.66333
887.85        79.06197
888.25        79.17767
888.65        79.80275
889.04        80.51916
889.44         80.6237
889.84        79.98174
890.24        78.85355
890.64        77.69009
891.04        77.11354
891.44        77.26544
891.84        77.97968
892.24         78.8606
892.64        79.24549
893.04        78.96761
893.44        78.21716
893.83        77.47076
894.23        77.47581
894.63        78.33084
895.03        79.78332
895.43        81.25761
895.83        81.72902
896.23        80.96096
896.63        79.38474
897.02        77.56925
897.42        76.41676
897.82        76.07466
898.22        76.33277
898.62        76.97894
899.01        77.67899
899.41        78.22534
899.81        78.73944
900.21        79.30936
900.61        80.06384
901.00        80.98386
901.40        81.90944
901.80        82.62087
902.20         82.8325
902.59        82.51711
902.99        81.80772
903.39        80.94217
903.79        80.29887
904.18        79.98808
904.58        79.92893
904.98        80.05067
905.38        80.24136
905.77        80.43652
906.17        80.70864
906.57        80.91431
906.96        80.82829
907.36        80.40957
907.76        79.72056
908.15        79.06713
908.55        78.90975
908.95        79.36146
909.34        80.29636
909.74        81.33423
910.14          81.925
910.53        81.90721
910.93        81.44456
911.33        80.80749
911.72        80.42728
912.12        80.43868
912.52        80.68237
912.91        80.96887
913.31        80.98736
913.70        80.66759
914.10         80.1467
914.49        79.57893
914.89        79.15997
915.29        78.96548
915.68        78.93912
916.08        79.03777
916.47        79.21992
916.87        79.44227
917.26        79.70325
917.66        79.98405
918.05        80.24693
918.45        80.46885
918.84        80.69175
919.24        80.84859
919.64        80.92801
920.03        80.95133
920.42        80.89729
920.82        80.86996
921.21        81.04631
921.61        81.40741
922.00        81.90708
922.40        82.34768
922.79        82.46352
923.19         82.1691
923.58        81.58867
923.98        80.85627
924.37        80.06995
924.77        79.33244
925.16        78.61664
925.55        78.07104
925.95        77.90799
926.34        78.19991
926.74        78.85094
927.13        79.74345
927.52        80.57055
927.92         81.2004
928.31        81.67921
928.70        82.00543
929.10        82.23125
929.49        82.39986
929.89        82.47235
930.28        82.43858
930.67        82.25006
931.07        81.90376
931.46        81.42393
931.85         80.9735
932.24        80.80717
932.64        80.97097
933.03        81.45028
933.42        81.91188
933.82        81.84957
934.21        81.18645
934.60        80.06452
934.99        79.00933
935.39         78.7921
935.78        79.60391
936.17        81.26175
936.56        83.09547
936.96          83.864
937.35        83.26553
937.74        81.63174
938.13        79.81362
938.53        78.95392
938.92        79.22812
939.31        80.35817
939.70        81.72056
940.09        82.17979
940.49        81.45803
940.88        80.00515
941.27        78.50053
941.66        77.94434
942.05        78.56232
942.44        79.99914
942.84         81.7957
943.23        83.21169
943.62        83.84641
944.01        83.95431
944.40        83.61436
944.79        82.96439
945.18        82.15041
945.57        81.11825
945.97        80.18227
946.36        79.95883
946.75         80.5137
947.14        81.72385
947.53        83.13245
947.92        83.86828
948.31        83.67804
948.70        82.82571
949.09        81.73093
949.48         81.0426
949.87        80.96535
950.26        81.32983
950.65        81.97754
951.04        82.63421
951.43        83.15958
951.82        83.58939
952.21        83.99432
952.60        84.49355
952.99        85.06261
953.38        85.59202
953.77        85.83395
954.16        85.39262
954.55        84.25879
954.94        82.71233
955.33        81.07333
955.72        79.79977
956.11        79.04555
956.50        78.64874
956.89        78.71668
957.28        79.40582
957.66        80.69753
958.05        82.43524
958.44        84.01954
958.83        84.29766
959.22        83.05709
959.61        80.73006
960.00        78.21221
960.39         76.7952
960.78         76.7579
961.16         77.7491
961.55        79.27769
961.94        80.61289
962.33        81.43636
962.72         81.9662
963.11        82.16064
963.49        81.96142
963.88        81.39297
964.27         80.5114
964.66        79.58495
965.04        79.02328
965.43        78.89155
965.82         79.0741
966.21        79.49137
966.60        79.93509
966.98        80.30614
967.37        80.65116
967.76        80.80231
968.15        80.46312
968.53        79.63869
968.92        78.40067
969.31        77.19505
969.69         76.7396
970.08        77.13068
970.47        78.18147
970.86        79.41545
971.24        79.95644
971.63        79.45827
972.02        78.24567
972.40        76.70296
972.79        75.45001
973.17         74.7222
973.56        74.38815
973.95         74.3418
974.33        74.44324
974.72        74.57066
975.11        74.71777
975.49        75.11369
975.88        76.06607
976.26        77.62783
976.65        79.57014
977.04         81.1312
977.42        81.11709
977.81        79.39857
978.19        76.39185
978.58        73.51803
978.96        72.65388
979.35        74.16505
979.74        77.61938
980.12        82.01077
980.51        84.61655
980.89        84.67735
981.28        82.76665
981.66        80.03158
982.05        78.43668
982.43        78.51618
982.82        79.60041
983.20        81.30341
983.59        82.79585
983.97        83.82879
984.35        84.66137
984.74        85.00178
985.12        84.46389
985.51        83.05336
985.89        80.84598
986.28        78.62698
986.66        77.53503
987.04        77.95449
987.43        79.57953
987.81        81.72159
988.20        82.94173
988.58        82.85716
988.96        81.68736
989.35        80.20775
989.73        79.66246
990.12        80.28727
990.50        81.75351
990.88        83.07735
991.27        82.70974
991.65        80.46843
992.03        76.98115
992.42        73.50402
992.80        71.65742
993.18        71.95613
993.56        73.87577
993.95          76.521
994.33        78.63443
994.71        79.48984
995.10        79.41605
995.48        78.73209
995.86           77.97
996.24        77.38554
996.63        76.81764
997.01         76.1605
997.39        75.29449
997.77        74.22926
998.15        73.08479
998.54         72.2002
998.92        72.14931
999.30        73.07753
999.68        74.84933
1000.06        76.90099
1000.45          78.203
1000.83        78.56337
1001.21        78.08109
1001.59        77.26503
1001.97        77.08805
1002.35        77.79339
1002.73        79.01604
1003.12        80.24612
1003.50        80.61401
1003.88        79.96427
1004.26        78.73891
1004.64        77.25069
1005.02        75.87079
1005.40        74.77511
1005.78         73.8431
1006.16        73.33427
1006.54        73.70879
1006.92        74.98135
1007.30        76.97912
1007.69        79.04864
1008.07        80.34621
1008.45        80.53619
1008.83        79.86285
1009.21        78.72653
1009.59        77.85587
1009.97        77.54311
1010.35        77.62009
1010.73        78.11145
1011.11        79.02238
1011.49        80.35925
1011.86        82.40691
1012.24        84.67629
1012.62        86.72661
1013.00        88.27444
1013.38        89.06784
1013.76        89.51822
1014.14        90.56004
1014.52        92.33286
1014.90        94.64564
1015.28        96.00858
1015.66        93.97419
1016.04        88.75655
1016.41        81.99838
1016.79        76.04208
1017.17        72.75102
1017.55        72.07616
1017.93        73.48993
1018.31        76.31544
1018.69        78.02602
1019.06        77.26919
1019.44        75.29418
1019.82        73.24602
1020.20        71.90858
1020.58        71.31757
1020.95        71.09366
1021.33        71.41826
1021.71        72.53474
1022.09        74.33248
1022.46        76.48346
1022.84        78.73226
1023.22        81.09258
1023.60        83.47961
1023.97        86.03762
1024.35        87.41795
1024.73        85.50356
