SpectraSmart Spectrum 2.9.0.0
--------- Device Information -----------
Spectrum Name :  反射率_0
Saving Time :  2024/05/01 16:58:04
Spectro-Module Model Name : SE2030-DUVN
Spectro-Module Serial Number : OS361AC55029948
Wavelength Start : 200
Wavelength End : 1025
Wavelength Unit : Wavelength(nm)
Spectrum Unit : Reflectance(%)
-----------Spectrum Setting ------------
Integration Time : 20ms
Average : 10
Boxcar : 0
Background removal :  enabled
linearity correction :  enabled
SC :  disabled
Intensity correction :  disabled
DWT denoise :  enabled
savitzky-golay :  disabled
FFT :  disabled
Running average :  disabled
Kalman :  disabled
High pass :  disabled
---------------BEGIN--------------------
Wavelength(nm)             Reflectance(%)
200.29               0
200.75        446.3376
201.21        1494.689
201.67       -522.2542
202.13       -180.3926
202.58       -89.90851
203.04       -44.66621
203.50       -20.92908
203.96       -14.95182
204.42       -26.37735
204.88       -83.30782
205.34       -1629.813
205.80        246.2041
206.26         155.586
206.72        122.6942
207.18        100.0919
207.64        80.81635
208.10        60.49383
208.55        43.27473
209.01        28.37018
209.47         19.1186
209.93        13.61541
210.39        7.831705
210.85      -0.4827495
211.31       -18.51722
211.77       -84.60445
212.23        430.5007
212.69         123.807
213.14        122.5285
213.60        216.3179
214.06       -921.1677
214.52       -139.1494
214.98       -89.68341
215.44       -82.49777
215.90       -104.8892
216.36       -571.5229
216.81        159.6403
217.27         220.584
217.73       -612.7198
218.19       -171.6027
218.65       -150.4432
219.11       -186.6784
219.57       -331.7765
220.02       -894.3173
220.48       -416.7156
220.94       -119.1364
221.40        -47.2266
221.86       -22.94947
222.32       -13.77389
222.77        -9.91442
223.23       -8.717649
223.69        -7.97608
224.15        -4.17913
224.61        1.615848
225.06        6.412179
225.52        9.503304
225.98        11.40516
226.44        12.79877
226.90        13.97021
227.36        15.11564
227.81        16.06117
228.27        16.42239
228.73        16.35645
229.19        15.90906
229.65        14.93991
230.10        13.40291
230.56        11.44814
231.02        9.461614
231.48        8.856861
231.93         10.1615
232.39        12.49632
232.85        15.19006
233.31         17.8031
233.77        20.18727
234.22        22.44607
234.68        24.31676
235.14        25.76205
235.60        26.88192
236.05        27.67972
236.51        28.31777
236.97        28.96882
237.43        29.43551
237.88        29.52771
238.34        28.41948
238.80        25.08714
239.26        18.58067
239.71         7.40404
240.17        -9.60533
240.63        -26.9173
241.08       -33.99532
241.54       -28.75286
242.00       -17.96046
242.46       -8.187835
242.91        1.165395
243.37        13.01508
243.83        31.94288
244.28        54.77504
244.74        64.00759
245.20        60.77696
245.66        53.60303
246.11        45.81686
246.57        36.24413
247.03        21.98983
247.48       -2.165926
247.94       -35.14853
248.40       -63.94001
248.85       -82.30337
249.31       -79.32798
249.77       -54.09704
250.22       -21.44527
250.68        8.825411
251.14        30.25043
251.59        39.95111
252.05        39.65603
252.51        27.29842
252.96       -9.750886
253.42       -65.60956
253.88       -60.96437
254.33       -9.114673
254.79        23.65991
255.25        36.64878
255.70        40.86443
256.16        42.52648
256.62        43.67132
257.07        45.33172
257.53        47.45768
257.99        49.19479
258.44        50.11641
258.90        50.24485
259.35        49.46978
259.81        48.35611
260.27        46.97665
260.72         45.5113
261.18        44.35051
261.63        43.27482
262.09        42.50603
262.55        41.98595
263.00        41.57863
263.46        41.32083
263.91        41.01544
264.37        40.64859
264.83        40.15632
265.28        39.56323
265.74        38.92123
266.19        38.09167
266.65        37.17958
267.11        36.16969
267.56        35.22746
268.02        34.69616
268.47        34.58924
268.93          34.779
269.38        35.03292
269.84        34.90779
270.30        34.32158
270.75        33.39861
271.21        32.36273
271.66        31.44342
272.12        30.77431
272.57        30.23272
273.03        29.80606
273.48          29.433
273.94        29.09836
274.39        28.79417
274.85        28.50918
275.31        28.16778
275.76        27.74934
276.22        27.31444
276.67        26.83114
277.13        26.34731
277.58        25.83314
278.04        25.31859
278.49        24.83111
278.95        24.51604
279.40        24.33702
279.86        24.27379
280.31        24.17945
280.77        23.92822
281.22        23.46634
281.68        22.89985
282.13          22.281
282.59        21.74891
283.04        21.32253
283.50        21.01828
283.95        20.80644
284.41        20.68535
284.86        20.63564
285.32        20.65506
285.77        20.77231
286.22        21.05721
286.68        21.49538
287.13        22.02471
287.59        22.49477
288.04        22.62619
288.50        22.40187
288.95        21.89389
289.41        21.33971
289.86        21.01034
290.32         20.9887
290.77         21.1913
291.22        21.48942
291.68        21.67462
292.13        21.70349
292.59        21.67967
293.04        21.70134
293.50        21.96343
293.95         22.4809
294.40         23.1733
294.86        23.93743
295.31        24.63281
295.77         25.2005
296.22        25.67793
296.68         26.0729
297.13        26.38574
297.58        26.65283
298.04        26.89902
298.49        27.17439
298.95        27.59608
299.40        28.15993
299.85         28.8171
300.31        29.52862
300.76        30.23207
301.21        30.89858
301.67        31.55208
302.12        32.09605
302.58        32.41079
303.03        32.47675
303.48        32.36385
303.94        32.26681
304.39        32.40986
304.84        32.85452
305.30        33.51587
305.75        34.23227
306.20        34.76658
306.66        35.05304
307.11        35.13543
307.57        35.10851
308.02        35.06231
308.47        35.04291
308.93        35.02391
309.38        34.95241
309.83        34.80342
310.29        34.58754
310.74        34.33459
311.19         34.0931
311.65        33.91352
312.10        33.80588
312.55        33.75549
313.00        33.75758
313.46        33.80367
313.91        33.87008
314.36        33.94518
314.82        33.98643
315.27        33.94114
315.72        33.79153
316.18        33.56037
316.63        33.26483
317.08        32.94272
317.53         32.6113
317.99        32.26897
318.44        31.93547
318.89         31.6552
319.35        31.44116
319.80        31.29024
320.25        31.16762
320.70        31.00668
321.16        30.78539
321.61        30.52548
322.06        30.26235
322.51        30.06308
322.97        29.93443
323.42        29.85958
323.87        29.78758
324.32        29.64693
324.78        29.41351
325.23        29.12428
325.68        28.80481
326.13        28.50162
326.59        28.22556
327.04        27.97705
327.49        27.74597
327.94        27.52728
328.39        27.31424
328.85        27.09818
329.30         26.8898
329.75        26.67345
330.20        26.44636
330.66         26.2088
331.11        25.96029
331.56        25.67136
332.01         25.3484
332.46        25.00772
332.92        24.69295
333.37        24.50374
333.82        24.45265
334.27        24.51938
334.72        24.65429
335.17         24.7666
335.63        24.80873
336.08        24.80619
336.53        24.77337
336.98        24.75443
337.43        24.75975
337.88        24.77203
338.34        24.75292
338.79        24.66059
339.24        24.48413
339.69        24.24672
340.14         24.0108
340.59        23.86914
341.05        23.83392
341.50        23.88266
341.95         23.9493
342.40        23.92608
342.85        23.78987
343.30         23.5858
343.75        23.36162
344.20        23.19002
344.66        23.09575
345.11        23.04059
345.56        23.03378
346.01        23.08673
346.46        23.18545
346.91        23.32439
347.36        23.43472
347.81        23.41119
348.26        23.24298
348.72        22.97297
349.17        22.67036
349.62        22.48769
350.07        22.45737
350.52        22.52692
350.97         22.6312
351.42        22.65889
351.87        22.58097
352.32        22.45212
352.77        22.27841
353.22        22.06746
353.67        21.83904
354.13        21.58995
354.58         21.3888
355.03        21.37596
355.48        21.56254
355.93        21.91241
356.38         22.2705
356.83         22.3717
357.28        22.16373
357.73        21.73691
358.18        21.27322
358.63         21.0475
359.08        21.11289
359.53        21.37017
359.98        21.69532
360.43         21.8765
360.88        21.84687
361.33        21.69207
361.78        21.45316
362.23        21.18325
362.68        20.91597
363.13        20.62569
363.58        20.38118
364.03        20.30517
364.48        20.40354
364.93        20.63017
365.38        20.85647
365.83        20.87621
366.28        20.64457
366.73        20.22981
367.18        19.72515
367.63        19.29229
368.08        18.99904
368.53        18.80895
368.98        18.70698
369.43        18.66696
369.88        18.66247
370.33        18.69104
370.78        18.73079
371.23        18.73586
371.68        18.68734
372.13        18.59688
372.58        18.43814
373.03        18.17665
373.48        17.82363
373.93        17.39645
374.38         17.0028
374.83        16.82075
375.28        16.88377
375.72        17.13214
376.17        17.42887
376.62        17.55799
377.07        17.46601
377.52        17.21434
377.97        16.89478
378.42        16.65545
378.87        16.53966
379.32        16.50167
379.77        16.49123
380.22        16.43341
380.67        16.31176
381.11        16.16379
381.56        16.02723
382.01        15.96096
382.46        15.98004
382.91        16.05813
383.36        16.15727
383.81        16.22644
384.26        16.24377
384.71         16.2116
385.15        16.14414
385.60        16.08264
386.05        16.03035
386.50        15.98542
386.95        15.91114
387.40        15.75232
387.85        15.51737
388.29        15.22767
388.74        14.98989
389.19        14.89924
389.64         14.9641
390.09         15.1346
390.54         15.3331
390.98        15.43372
391.43        15.40287
391.88         15.2856
392.33        15.11239
392.78        14.93292
393.23        14.77076
393.67        14.59127
394.12        14.43491
394.57        14.37409
395.02        14.39098
395.47        14.37828
395.91        14.33724
396.36        14.33999
396.81        14.38649
397.26        14.42494
397.71        14.43054
398.15        14.40334
398.60        14.36031
399.05        14.24393
399.50        14.10489
399.95        14.11821
400.39        14.24675
400.84        14.22371
401.29        14.04606
401.74        13.93604
402.18        13.90289
402.63        13.80742
403.08        13.67641
403.53        13.61522
403.97        13.62838
404.42        13.68414
404.87        13.73658
405.32        13.71236
405.76         13.5962
406.21        13.42487
406.66        13.24388
407.11        13.12575
407.55        13.09407
408.00        13.12461
408.45          13.196
408.90        13.25039
409.34        13.27262
409.79        13.30447
410.24        13.33154
410.68        13.30044
411.13        13.21259
411.58        13.09041
412.03        12.95566
412.47        12.84574
412.92        12.77631
413.37         12.7421
413.81        12.73416
414.26        12.74655
414.71        12.76903
415.15        12.81209
415.60        12.85173
416.05        12.86322
416.49        12.83973
416.94        12.78109
417.39        12.71922
417.83        12.70845
418.28        12.75707
418.73        12.84689
419.17        12.92958
419.62        12.92015
420.07        12.81012
420.51        12.63081
420.96        12.44906
421.41        12.34543
421.85        12.33493
422.30        12.39321
422.74        12.48557
423.19        12.57197
423.64        12.63248
424.08        12.68428
424.53        12.70268
424.98        12.66839
425.42        12.58449
425.87        12.46196
426.31        12.32816
426.76         12.2397
427.21        12.20392
427.65        12.20432
428.10        12.24147
428.54        12.30981
428.99        12.40081
429.44        12.53466
429.88         12.6428
430.33        12.62759
430.77        12.48455
431.22        12.25804
431.66        12.04273
432.11        12.00972
432.56        12.14367
433.00        12.36396
433.45        12.52491
433.89        12.34264
434.34        11.83523
434.78        11.80365
435.23         12.2949
435.67        12.46465
436.12        12.31227
436.57        12.28947
437.01         12.4076
437.46         12.4427
437.90        12.38463
438.35        12.31845
438.79        12.24942
439.24        12.15382
439.68        12.06107
440.13        12.05882
440.57        12.12402
441.02        12.16114
441.46        12.15934
441.91         12.1113
442.35        12.03923
442.80        12.13676
443.24        12.32978
443.69        12.25987
444.13         11.9697
444.58        11.84236
445.02        11.88794
445.47        11.90744
445.91         11.8972
446.36        11.94322
446.80        12.03942
447.24        12.16026
447.69        12.27492
448.13         12.3364
448.58        12.33541
449.02        12.28441
449.47        12.21649
449.91        12.17619
450.36        12.17896
450.80        12.20621
451.25        12.23981
451.69        12.24219
452.13        12.20576
452.58        12.14841
453.02        12.07811
453.47        12.01486
453.91        11.96577
454.36        11.92976
454.80        11.90832
455.24        11.90056
455.69        11.90652
456.13         11.9158
456.58        11.93748
457.02        11.96798
457.46         12.0067
457.91        12.05196
458.35        12.07768
458.79        12.02597
459.24         11.9021
459.68        11.75731
460.13        11.65798
460.57        11.46402
461.01        11.52415
461.46        11.56611
461.90        11.65965
462.34         11.7001
462.79        11.73451
463.23        11.72134
463.68         11.7023
464.12        11.71573
464.56        11.76968
465.01        11.86323
465.45        11.93942
465.89        11.93636
466.34        11.85212
466.78        11.70106
467.22        11.54493
467.67         11.5102
468.11        11.57371
468.55        11.74601
468.99        11.94114
469.44        12.04799
469.88        12.04215
470.32        11.95102
470.77        11.83414
471.21         11.7854
471.65        11.82987
472.10         11.9368
472.54        12.05144
472.98        12.09845
473.42        12.06343
473.87        11.98325
474.31        11.89195
474.75        11.85284
475.20        11.88307
475.64        11.94879
476.08         12.0282
476.52        12.11897
476.97        12.21589
477.41        12.26893
477.85        12.24407
478.29        12.43275
478.74        12.30212
479.18        12.26435
479.62        12.20577
480.06        12.27499
480.50        12.48448
480.95        12.55754
481.39         12.8607
481.83        12.94471
482.27        12.92739
482.72        12.84192
483.16        12.73731
483.60        12.71831
484.04        12.79321
484.48        12.88643
484.93        13.05643
485.37          13.332
485.81        13.53638
486.25        13.96917
486.69        13.13065
487.14        12.84358
487.58        13.47101
488.02        13.66787
488.46        13.35988
488.90        13.71698
489.34        13.67421
489.79        13.68502
490.23        13.99095
490.67        14.18439
491.11        14.38965
491.55        14.45889
491.99        14.42389
492.43        14.44101
492.88        14.52101
493.32        14.55513
493.76        14.56963
494.20        14.67773
494.64        14.89223
495.08        15.16402
495.52        15.44095
495.96        15.68923
496.41         15.8693
496.85        15.87785
497.29        15.78821
497.73        15.88794
498.17        16.17115
498.61        16.34414
499.05        16.38486
499.49        16.48644
499.93        16.64606
500.37        16.74504
500.82        16.80044
501.26        16.89348
501.70        17.03146
502.14        17.18922
502.58        17.33376
503.02        17.41556
503.46        17.42851
503.90        17.39463
504.34        17.35872
504.78        17.39088
505.22        17.50712
505.66        17.68287
506.10        17.87775
506.54        18.02419
506.98        18.10021
507.42        18.12739
507.86        18.12297
508.30        18.11335
508.74        18.11311
509.18        18.11721
509.62        18.13533
510.06         18.1848
510.50        18.26707
510.94         18.3762
511.38        18.50005
511.82        18.61648
512.26         18.7134
512.70        18.79001
513.14        18.83714
513.58        18.84446
514.02        18.81302
514.46        18.74773
514.90        18.66506
515.34        18.59237
515.78        18.54152
516.22         18.5126
516.66        18.50111
517.10        18.49574
517.54        18.49273
517.98        18.49403
518.42        18.50459
518.86        18.53171
519.30        18.57254
519.74        18.61862
520.18        18.65265
520.62         18.6508
521.06        18.60811
521.50        18.53159
521.93        18.43928
522.37        18.35662
522.81        18.29599
523.25        18.25438
523.69        18.22281
524.13        18.18434
524.57        18.13709
525.01        18.08922
525.45        18.05211
525.89        18.04305
526.32        18.06186
526.76         18.0933
527.20        18.12477
527.64        18.13772
528.08        18.12437
528.52        18.09259
528.96        18.03439
529.40        17.93758
529.83         17.8055
530.27        17.65076
530.71        17.50558
531.15        17.42483
531.59        17.41773
532.03        17.46547
532.46        17.52918
532.90        17.54756
533.34        17.50529
533.78        17.40898
534.22        17.28287
534.66        17.19351
535.09         17.1371
535.53        17.04382
535.97        16.92848
536.41        16.87665
536.85        16.89445
537.28        16.94236
537.72        17.00443
538.16        17.07063
538.60        17.13136
539.04        17.18538
539.47        17.23697
539.91        17.30546
540.35        17.38944
540.79        17.49065
541.22        17.59787
541.66        17.66739
542.10        17.74149
542.54        17.78996
542.97        17.84267
543.41        17.93612
543.85        18.07187
544.29        18.23998
544.72        18.41362
545.16        18.55927
545.60        18.66737
546.04        18.74815
546.47        18.82489
546.91        18.93869
547.35        19.09866
547.79        19.28662
548.22        19.46747
548.66        19.63165
549.10        19.77451
549.53        19.81102
549.97        19.94674
550.41        20.10126
550.84        20.33223
551.28        20.62171
551.72        20.91924
552.15        21.12251
552.59        21.22364
553.03        21.28162
553.46        21.32836
553.90        21.42614
554.34        21.59103
554.77        21.76721
555.21        21.91472
555.65         22.2091
556.08        22.21826
556.52        22.30627
556.96        22.35933
557.39        22.41844
557.83        22.49823
558.27        22.55688
558.70        22.60265
559.14        22.76018
559.57        22.82582
560.01        22.99683
560.45        23.15931
560.88        23.21083
561.32        23.19327
561.75         23.1362
562.19        23.11379
562.63        23.33905
563.06        23.71663
563.50         23.7463
563.93        23.47781
564.37        23.45252
564.80        23.67915
565.24        23.86166
565.68        23.97567
566.11        24.12412
566.55        24.30692
566.98        24.48309
567.42        24.65717
567.85        24.81912
568.29        24.97945
568.72        25.12189
569.16         25.2641
569.60        25.39807
570.03        25.51215
570.47        25.57718
570.90         25.8068
571.34        25.76469
571.77        25.98242
572.21        26.14045
572.64        26.37402
573.08        26.37172
573.51        26.68212
573.95        26.84253
574.38        26.55686
574.82        26.91406
575.25        27.03769
575.69        27.15425
576.12        27.03471
576.56        27.23793
576.99        27.45141
577.42        27.20583
577.86        27.24548
578.29        27.12379
578.73        27.06892
579.16        26.94164
579.60        26.61079
580.03        26.52288
580.47        26.75122
580.90        26.35143
581.33        26.75467
581.77        26.94649
582.20        26.60109
582.64        26.35749
583.07        26.07113
583.51        25.83122
583.94        25.76448
584.37         25.7562
584.81        25.75435
585.24        25.68471
585.68        25.57895
586.11        25.22583
586.54         25.0507
586.98        24.88556
587.41        24.88224
587.85        24.83628
588.28        24.84309
588.71        24.60835
589.15        24.94659
589.58        24.44971
590.01        24.67678
590.45        24.57763
590.88        24.55149
591.31        24.53118
591.75        24.54136
592.18        24.52869
592.61        24.43171
593.05        24.95914
593.48        24.72012
593.91        24.90353
594.35        24.69064
594.78        24.80822
595.21        25.08809
595.65        25.35954
596.08        25.31796
596.51        25.58779
596.94        25.58669
597.38        25.80846
597.81        26.13213
598.24        26.17742
598.68        26.56231
599.11        26.88143
599.54        27.50978
599.97        27.58333
600.41        27.99874
600.84        28.32971
601.27        28.74701
601.70        29.33749
602.14        29.83098
602.57        30.15523
603.00        30.28734
603.43         30.5147
603.87        31.07547
604.30         31.4715
604.73        31.77767
605.16        32.18195
605.60        32.65891
606.03        33.18766
606.46        33.64869
606.89        33.92588
607.32        34.15159
607.76        34.43852
608.19        34.82361
608.62        35.38424
609.05        35.93023
609.48        36.21411
609.92        36.27827
610.35        36.65319
610.78        37.44578
611.21        37.89701
611.64        38.01006
612.07        38.32851
612.50        38.74899
612.94        38.69419
613.37        38.92141
613.80        39.19284
614.23        39.25356
614.66        39.71765
615.09        39.82402
615.52        40.07896
615.96        40.25132
616.39        40.74666
616.82        40.88254
617.25        41.13911
617.68        41.32402
618.11        41.57035
618.54        41.82627
618.97        41.88284
619.40        41.83612
619.84        41.87802
620.27         42.1448
620.70        42.57714
621.13        43.12553
621.56        42.94604
621.99        42.93045
622.42        42.89439
622.85        43.15745
623.28        43.04052
623.71        43.13032
624.14        43.32737
624.57        43.20304
625.00        43.22401
625.43        43.22053
625.86        42.99432
626.29         42.9609
626.72        42.56559
627.15        42.45069
627.58        42.01682
628.01        41.59589
628.44        41.50912
628.87        41.73897
629.30        41.31927
629.73        40.81155
630.16        40.79562
630.59        40.42263
631.02        40.23461
631.45        39.91294
631.88        39.57592
632.31        39.21251
632.74         38.8142
633.17        38.40917
633.60        38.01377
634.03        37.63608
634.46        37.27606
634.89        36.91853
635.32         36.5358
635.75        36.12434
636.18         35.6963
636.61        35.26604
637.04        34.85366
637.47        34.46592
637.89        34.08987
638.32        33.70661
638.75        33.34118
639.18        33.00483
639.61        32.56884
640.04         32.2897
640.47        31.98182
640.90        31.72141
641.33        31.49149
641.76         31.2946
642.18        31.17852
642.61        31.14202
643.04        31.10463
643.47         31.0094
643.90         31.2041
644.33        31.00653
644.76        30.92655
645.18        30.82299
645.61        30.91012
646.04         31.1557
646.47        31.29619
646.90        31.34123
647.33        31.51406
647.75        31.81881
648.18        32.11657
648.61         32.4074
649.04         32.7361
649.47        33.09787
649.89        33.55549
650.32        34.07157
650.75        34.40685
651.18        34.62212
651.61        35.17786
652.03        36.02427
652.46        36.54889
652.89         36.7722
653.32        37.15794
653.74        37.80463
654.17         38.3615
654.60        38.93245
655.03        39.42122
655.46        39.39923
655.88        40.23454
656.31        45.87283
656.74        45.27745
657.16        41.49058
657.59        41.12281
658.02         42.6105
658.45        42.73735
658.87        43.40278
659.30        43.27094
659.73        44.05359
660.15        44.39316
660.58        44.53547
661.01        44.68888
661.44        44.90439
661.86         45.1904
662.29        45.55585
662.72        46.00776
663.14         46.4788
663.57        46.75529
664.00        46.84428
664.42        46.94629
664.85        47.08533
665.27        47.12722
665.70        47.11348
666.13         47.1753
666.55        47.33954
666.98        47.56752
667.41        47.83667
667.83        48.10181
668.26        48.32528
668.69        48.51819
669.11         48.6792
669.54        48.80384
669.96        48.88385
670.39        48.93729
670.82        48.97972
671.24        48.91582
671.67        48.83311
672.09        49.04625
672.52        49.47583
672.94        49.67065
673.37         49.6028
673.80         49.5035
674.22        49.45311
674.65         49.4631
675.07         49.5707
675.50        49.75021
675.92        49.96096
676.35        50.13235
676.77         50.2449
677.20        50.31484
677.62        50.35223
678.05         50.3633
678.47        50.35837
678.90        50.33968
679.32        50.32753
679.75        50.37379
680.17         50.4824
680.60        50.64376
681.02        50.82969
681.45        50.97992
681.87        51.08786
682.30        51.15932
682.72        51.22247
683.15        51.29799
683.57        51.39923
684.00        51.51271
684.42        51.62901
684.85        51.73417
685.27        51.81086
685.70        51.89949
686.12        51.97818
686.54        51.98006
686.97        51.94543
687.39        52.03499
687.82        52.16724
688.24        52.39135
688.66        52.01596
689.09        52.09723
689.51         52.4157
689.94        52.60367
690.36        52.64913
690.78         52.7601
691.21         52.9747
691.63        53.21995
692.06         53.5041
692.48        53.90166
692.90         54.3157
693.33        54.52136
693.75        54.49002
694.17        54.26131
694.60         53.9762
695.02        53.88082
695.44        53.97783
695.87        54.13673
696.29        54.29417
696.71        54.21397
697.14        54.02099
697.56        54.31728
697.98        54.98546
698.41        55.29725
698.83        55.20528
699.25        55.10628
699.68        55.06902
700.10        55.11043
700.52        55.26063
700.94        55.42713
701.37         55.5579
701.79        55.92916
702.21         56.0522
702.64         56.1174
703.06        56.03465
703.48         55.9225
703.90        55.78924
704.33        55.95214
704.75        55.74075
705.17        55.78313
705.59        55.87039
706.01        56.06717
706.44         56.3787
706.86        56.41777
707.28        56.79186
707.70         57.0381
708.12        57.28824
708.55        57.30125
708.97         57.1325
709.39        57.10578
709.81        57.23621
710.23        57.30015
710.66        57.29777
711.08        57.39808
711.50        57.56895
711.92        57.68617
712.34         57.7356
712.76         57.7547
713.19        57.74695
713.61        57.75954
714.03        57.78801
714.45        57.81914
714.87        57.86325
715.29        57.93924
715.71        58.04834
716.13        58.19001
716.56        58.32055
716.98        58.43814
717.40        58.50733
717.82        58.53088
718.24        58.54552
718.66        58.61436
719.08        58.74724
719.50        58.92353
719.92        59.08802
720.34        59.15173
720.76        59.09803
721.19         58.9598
721.61        58.80421
722.03         58.7293
722.45        58.76848
722.87        58.90218
723.29         59.0857
723.71        59.24343
724.13        59.34599
724.55        59.40049
724.97        59.45158
725.39        59.57025
725.81         59.7662
726.23         60.0194
726.65        60.23214
727.07        60.25158
727.49        60.05504
727.91        59.69536
728.33        59.33167
728.75        59.19173
729.17        59.32165
729.59        59.71952
730.01        60.21485
730.43        60.34367
730.85        60.11409
731.27        60.00747
731.69        60.06171
732.10        60.02217
732.52        59.94152
732.94        59.90861
733.36        59.93094
733.78        60.17882
734.20        60.69246
734.62        60.43531
735.04        61.21082
735.46        61.21428
735.88        61.03979
736.30        61.00674
736.72        61.14121
737.13         61.0492
737.55        60.96766
737.97        60.83949
738.39         60.7659
738.81        60.93403
739.23        61.27623
739.65        61.44519
740.06        61.38093
740.48        61.39455
740.90          61.459
741.32         61.4098
741.74        61.25352
742.16        61.10349
742.57        60.98478
742.99        60.89244
743.41        60.87724
743.83        60.92145
744.25         61.0634
744.67        61.47433
745.08          62.018
745.50        62.22486
745.92        62.03531
746.34        61.62796
746.75        61.18402
747.17         60.9328
747.59        60.92776
748.01        61.23053
748.42         61.6804
748.84        61.72598
749.26        61.44746
749.68        61.45166
750.09        61.75736
750.51         62.1046
750.93        62.36658
751.35        62.30887
751.76        62.01585
752.18        61.94282
752.60        62.13051
753.01        62.30645
753.43        62.39312
753.85        62.45125
754.27        62.47141
754.68        62.44027
755.10        62.41363
755.52        62.47866
755.93        62.63406
756.35        62.83342
756.77        63.02427
757.18        63.10364
757.60        63.06368
758.02         63.0507
758.43        62.97578
758.85        62.84291
759.26        62.06013
759.68        62.16845
760.10        62.87897
760.51         63.3524
760.93        63.37518
761.34        63.26073
761.76        63.07694
762.18        62.57637
762.59        62.04494
763.01        62.29408
763.42        63.20218
763.84        63.61654
764.26        63.44925
764.67        63.11595
765.09        62.85245
765.50        63.08229
765.92        63.66252
766.33        63.58595
766.75        62.84148
767.16          62.596
767.58        62.93808
768.00        63.10184
768.41        63.15187
768.83        63.87278
769.24        64.97198
769.66         65.2335
770.07          64.691
770.49        64.23206
770.90        64.03491
771.32        64.00858
771.73        64.10905
772.15        64.06979
772.56        63.89452
772.97        63.82857
773.39         63.8783
773.80        63.99826
774.22        64.11923
774.63         64.1701
775.05        64.13616
775.46        64.19289
775.88        64.32664
776.29        64.46143
776.70        64.57141
777.12        64.68742
777.53        64.80624
777.95        64.87805
778.36        64.91962
778.77        64.89304
779.19        64.80001
779.60        64.80701
780.02        64.84095
780.43         64.5194
780.84         64.0261
781.26        63.91935
781.67        64.21262
782.09        64.75913
782.50         65.2783
782.91        64.91349
783.33        64.05926
783.74        63.84628
784.15         64.4275
784.57        65.01832
784.98        65.50163
785.39        65.99959
785.81         66.4398
786.22        66.57845
786.63        66.77908
787.04        66.71082
787.46        66.53896
787.87        66.23154
788.28        65.95145
788.70         65.9193
789.11        66.14228
789.52        66.57931
789.93        67.04474
790.35        67.21555
790.76        67.03838
791.17        66.59856
791.58        66.06396
792.00        65.72128
792.41        65.67142
792.82          65.727
793.23        65.80987
793.65        66.09656
794.06        66.40396
794.47        66.06051
794.88        65.34738
795.29        65.18424
795.71        65.56165
796.12        66.21419
796.53        66.86483
796.94        66.93308
797.35        66.39006
797.76        65.95165
798.18        65.81218
798.59        65.69536
799.00        65.66766
799.41        65.97112
799.82        66.48843
800.23        66.84615
800.64        66.95951
801.06        66.92501
801.47        66.81989
801.88         66.6814
802.29        66.54859
802.70        66.38727
803.11        66.25189
803.52        66.24529
803.93        66.39215
804.34        66.67688
804.75        67.00925
805.17        67.27153
805.58        67.46239
805.99        67.38562
806.40        67.14311
806.81        67.37347
807.22        67.90006
807.63        67.63158
808.04         66.7107
808.45         66.3319
808.86        66.58888
809.27        66.81932
809.68        66.93885
810.09         67.1031
810.50        67.27409
810.91        67.42194
811.32        67.50172
811.73        67.44164
812.14        67.24255
812.55        66.92406
812.96        66.63937
813.37        66.64159
813.78        66.98065
814.19        67.58899
814.60        68.24178
815.01        68.57789
815.42        68.51537
815.83        68.15102
816.24        67.65108
816.65        67.34133
817.05         67.3422
817.46        67.52719
817.87        67.79064
818.28        67.93495
818.69        67.90253
819.10        67.76443
819.51        67.56936
819.92        67.39818
820.33        67.29211
820.74        67.21893
821.14        67.17171
821.55        67.17305
821.96        67.21236
822.37        67.31363
822.78        67.45892
823.19        67.60142
823.60        67.73047
824.00        67.86334
824.41        68.00706
824.82         68.2864
825.23         68.6981
825.64        69.17449
826.04         69.6208
826.45         69.8089
826.86        69.71087
827.27        69.40775
827.68         68.9455
828.08        68.42342
828.49        67.87511
828.90        67.29547
829.31        66.83256
829.72        66.70704
830.12        66.98006
830.53         67.5818
830.94        68.24731
831.35        68.44181
831.75        68.05795
832.16        67.21172
832.57        66.34216
832.97        66.11808
833.38        66.66085
833.79        67.74937
834.20        68.99734
834.60        69.74003
835.01         69.7474
835.42        69.25558
835.82        68.51137
836.23        67.88999
836.64        67.53262
837.04        67.33288
837.45        67.25881
837.86        67.32982
838.26         67.5257
838.67        67.82435
839.08         68.1399
839.48        68.28086
839.89         68.1908
840.29        67.92554
840.70        67.56696
841.11        67.21937
841.51         66.9554
841.92        66.73853
842.33        66.65002
842.73        66.82542
843.14        67.22579
843.54        67.84919
843.95        68.53059
844.35        69.05184
844.76        69.29934
845.17        69.31078
845.57        69.16238
845.98        68.98176
846.38         68.8356
846.79        68.67641
847.19        68.49768
847.60        68.21998
848.00        67.87257
848.41        67.49394
848.81        67.18654
849.22        67.06599
849.62         67.1696
850.03        67.43169
850.43        67.76912
850.84        67.90696
851.24         67.8343
851.65        67.58216
852.05        67.31884
852.46        67.28818
852.86        67.51759
853.27        67.91118
853.67        68.30975
854.07        68.66781
854.48        68.89711
854.88        69.11642
855.29        69.13395
855.69        68.87338
856.10        68.25758
856.50        67.42653
856.90        66.63318
857.31        66.24951
857.71        66.34298
858.12        66.76105
858.52        67.38614
858.92        67.78121
859.33        67.78087
859.73        67.54856
860.13        67.11776
860.54        66.58152
860.94        66.01148
861.34        65.36706
861.75        64.80896
862.15        64.66552
862.55         64.9774
862.96        65.64636
863.36        66.42272
863.76        66.80051
864.17        66.65263
864.57        66.13316
864.97        65.47379
865.38        65.07258
865.78        65.07423
866.18        65.33787
866.58        65.72366
866.99        65.98392
867.39        66.05896
867.79        66.03441
868.19        65.94242
868.60        65.79249
869.00        65.59992
869.40        65.34252
869.80        65.13348
870.21        65.18632
870.61        65.58252
871.01         66.2079
871.41        66.80428
871.81        66.98227
872.22        66.66061
872.62         65.9511
873.02        65.11727
873.42         64.5965
873.82        64.52891
874.22        64.82552
874.63        65.26098
875.03        65.46774
875.43        65.36296
875.83        65.05153
876.23        64.79851
876.63        65.01869
877.03        65.76797
877.44        66.86004
877.84        67.94729
878.24        68.41026
878.64        68.10739
879.04        67.26695
879.44         66.2384
879.84        65.54534
880.24        65.33511
880.64        65.45055
881.04        65.76716
881.44        66.07681
881.84        66.30176
882.24        66.53311
882.65        66.71226
883.05        66.82207
883.45        66.81464
883.85        66.65649
884.25        66.47876
884.65        66.50147
885.05        66.75874
885.45        67.21209
885.85        67.65143
886.25        67.70881
886.65        67.30936
887.05        66.57101
887.45         65.8061
887.85        65.49883
888.25        65.75486
888.65        66.42803
889.04        67.20744
889.44        67.56123
889.84        67.36703
890.24        66.78371
890.64        66.10164
891.04        65.73602
891.44         65.7905
891.84        66.16404
892.24        66.60854
892.64        66.71338
893.04        66.38822
893.44        65.76082
893.83        65.17351
894.23        65.15334
894.63         65.7607
895.03        66.82251
895.43        67.90324
895.83        68.21999
896.23        67.60593
896.63        66.40005
897.02        65.03726
897.42        64.22849
897.82        64.07775
898.22        64.39557
898.62        65.04039
899.01        65.79297
899.41        66.47391
899.81        67.16272
900.21        67.79368
900.61        68.24891
901.00        68.48743
901.40        68.47272
901.80        68.26126
902.20        67.97851
902.59        67.69168
902.99        67.41431
903.39        67.16245
903.79        66.94263
904.18        66.74953
904.58        66.59857
904.98        66.53984
905.38        66.65138
905.77        66.91861
906.17        67.33305
906.57        67.68877
906.96        67.66973
907.36        67.21738
907.76        66.44981
908.15        65.70691
908.55        65.49612
908.95        65.94675
909.34        66.90012
909.74        67.99796
910.14        68.72598
910.53        68.90412
910.93        68.67073
911.33        68.20033
911.72        67.77174
912.12        67.50342
912.52         67.3064
912.91        67.09907
913.31        66.75639
913.70        66.28301
914.10        65.78148
914.49        65.39488
914.89        65.29337
915.29         65.5137
915.68        65.97469
916.08        66.56783
916.47        67.12984
916.87        67.56546
917.26        67.88573
917.66        68.06767
918.05        68.08908
918.45        67.96136
918.84        67.73971
919.24         67.4563
919.64        67.25517
920.03         67.2058
920.42        67.25357
920.82        67.42735
921.21        67.78711
921.61        68.27488
922.00        68.87051
922.40        69.35528
922.79          69.408
923.19        68.95036
923.58        68.11904
923.98        67.14078
924.37        66.27656
924.77        65.64194
925.16        65.17666
925.55        64.91321
925.95        64.85748
926.34        65.01627
926.74        65.36465
927.13        65.91072
927.52        66.55743
927.92        67.22855
928.31         67.8987
928.70        68.46432
929.10        68.81488
929.49        68.93069
929.89        68.81859
930.28         68.5364
930.67           68.15
931.07         67.7062
931.46        67.22244
931.85        66.78861
932.24        66.53689
932.64        66.50128
933.03        66.70571
933.42        66.99915
933.82        67.15107
934.21        67.10417
934.60        66.87498
934.99         66.6917
935.39        66.88406
935.78        67.52757
936.17        68.54552
936.56        69.51725
936.96        69.69828
937.35        68.96759
937.74        67.53838
938.13        66.04149
938.53        65.30437
938.92        65.43867
939.31         66.2603
939.70        67.28917
940.09        67.63924
940.49        67.08458
940.88        65.95309
941.27        64.76333
941.66        64.28519
942.05        64.69684
942.44        65.74436
942.84        67.05775
943.23        68.02937
943.62        68.36008
944.01        68.24458
944.40        67.85538
944.79        67.47077
945.18        67.20856
945.57        66.96213
945.97        66.74717
946.36        66.70609
946.75        66.81361
947.14          67.073
947.53        67.37005
947.92        67.46426
948.31        67.30011
948.70        66.96607
949.09        66.58561
949.48        66.34436
949.87        66.31548
950.26        66.46545
950.65        66.78844
951.04         67.2706
951.43        67.84956
951.82        68.44917
952.21        69.02503
952.60        69.54067
952.99         69.9422
953.38        70.20544
953.77         70.1622
954.16        69.54176
954.55        68.38409
954.94        66.91064
955.33        65.43775
955.72        64.42758
956.11        63.99464
956.50         63.9529
956.89        64.29613
957.28          64.994
957.66        65.98627
958.05        67.19732
958.44        68.13096
958.83        67.86196
959.22        66.28412
959.61        63.77121
960.00        61.24345
960.39        60.01011
960.78        60.31707
961.16        61.82036
961.55        63.84564
961.94        65.32751
962.33        65.87503
962.72        65.76836
963.11         65.2582
963.49        64.84623
963.88        64.69701
964.27        64.64439
964.66        64.61324
965.04        64.54688
965.43        64.41386
965.82        64.26727
966.21        64.17125
966.60        64.18442
966.98        64.33163
967.37        64.58904
967.76        64.80681
968.15        64.73306
968.53        64.33882
968.92        63.68162
969.31        63.05759
969.69        62.94099
970.08        63.38217
970.47        64.24499
970.86        65.16411
971.24         65.4818
971.63        64.96467
972.02        63.88335
972.40        62.58009
972.79        61.59689
973.17        61.13162
973.56        61.03662
973.95        61.22843
974.33        61.58705
974.72        61.99672
975.11        62.45864
975.49        63.05156
975.88         63.8564
976.26        64.87415
976.65        65.96378
977.04        66.70472
977.42        66.44377
977.81        65.12885
978.19        62.99807
978.58        61.06288
978.96        60.60014
979.35        61.84274
979.74         64.5113
980.12        67.84871
980.51        69.73142
980.89        69.60709
981.28        67.89033
981.66         65.5295
982.05        64.18526
982.43        64.28197
982.82         65.3203
983.20        66.87856
983.59        68.07098
983.97        68.68358
984.35        68.96903
984.74        68.91563
985.12        68.61132
985.51        68.10144
985.89        67.28291
986.28        66.49165
986.66        66.12767
987.04        66.39257
987.43        67.20528
987.81         68.2077
988.20        68.58694
988.58        68.18317
988.96        67.04926
989.35        65.87128
989.73        65.72829
990.12         66.7761
990.50        68.77714
990.88        70.62785
991.27        70.54108
991.65        68.30141
992.03           64.57
992.42        60.82423
992.80        59.07944
993.18        59.90531
993.56        62.62902
993.95        66.12216
994.33        68.66644
994.71         69.3885
995.10        68.78783
995.48        67.25918
995.86         65.4955
996.24        63.90205
996.63        62.30825
997.01        60.86916
997.39        59.81109
997.77        59.16793
998.15         58.9902
998.54        59.25613
998.92        59.81408
999.30        60.57435
999.68        61.51945
1000.06        62.49116
1000.45        63.20774
1000.83        63.71725
1001.21        64.00779
1001.59         64.1612
1001.97         64.4003
1002.35        64.76786
1002.73        65.08036
1003.12        65.46626
1003.50        66.08096
1003.88         66.8811
1004.26        67.85687
1004.64        68.41498
1005.02        67.61949
1005.40         65.4414
1005.78         62.2464
1006.16         59.0349
1006.54        57.62816
1006.92        58.52315
1007.30         61.0817
1007.69        64.36999
1008.07        67.04369
1008.45        68.46397
1008.83        69.05765
1009.21        68.72326
1009.59        67.32478
1009.97        65.06731
1010.35        61.97643
1010.73        59.02817
1011.11         57.9897
1011.49        59.41149
1011.86        63.20532
1012.24        68.14722
1012.62        72.10722
1013.00        74.13387
1013.38         74.4335
1013.76        73.77814
1014.14        73.84102
1014.52        75.12164
1014.90        77.05352
1015.28        78.48427
1015.66        77.56033
1016.04        74.29419
1016.41        69.98493
1016.79        66.07013
1017.17        63.60981
1017.55        62.51082
1017.93        62.26434
1018.31        62.61322
1018.69        62.84285
1019.06        62.57987
1019.44        62.28469
1019.82         61.7968
1020.20        60.77195
1020.58        59.17627
1020.95        56.76451
1021.33        54.29991
1021.71        53.72828
1022.09        56.00233
1022.46        60.51424
1022.84        65.57039
1023.22        69.00772
1023.60        70.26492
1023.97        69.92241
1024.35        68.28905
1024.73        66.09646
