SpectraSmart Spectrum 2.9.0.0
--------- Device Information -----------
Spectrum Name :  反射率_0
Saving Time :  2024/05/01 16:47:06
Spectro-Module Model Name : SE2030-DUVN
Spectro-Module Serial Number : OS361AC55029948
Wavelength Start : 200
Wavelength End : 1025
Wavelength Unit : Wavelength(nm)
Spectrum Unit : Reflectance(%)
-----------Spectrum Setting ------------
Integration Time : 20ms
Average : 10
Boxcar : 0
Background removal :  enabled
linearity correction :  enabled
SC :  disabled
Intensity correction :  disabled
DWT denoise :  enabled
savitzky-golay :  disabled
FFT :  disabled
Running average :  disabled
Kalman :  disabled
High pass :  disabled
---------------BEGIN--------------------
Wavelength(nm)             Reflectance(%)
200.29               0
200.75        321.5158
201.21        1276.755
201.67       -511.4113
202.13       -188.2493
202.58       -91.92166
203.04       -38.44072
203.50         -8.3388
203.96      -0.2959487
204.42       -14.72208
204.88       -86.49171
205.34       -2039.849
205.80        332.2122
206.26        221.2854
206.72        189.6308
207.18        222.7294
207.64        -2.09302
208.10        32.96651
208.55        22.76856
209.01        9.640778
209.47        3.795052
209.93        3.884923
210.39          4.6996
210.85        3.080781
211.31       -8.488264
211.77       -63.68057
212.23        386.7834
212.69        121.8991
213.14        125.5732
213.60        223.9863
214.06       -946.9102
214.52       -141.8587
214.98       -92.81085
215.44       -89.77904
215.90       -126.6042
216.36       -792.6429
216.81        220.7031
217.27        233.8403
217.73       -452.0894
218.19       -98.80975
218.65        -82.6502
219.11       -111.5765
219.57       -229.7261
220.02       -704.2313
220.48       -332.5897
220.94       -81.30239
221.40       -18.99382
221.86        2.491179
222.32        10.71687
222.77        14.13484
223.23         15.2337
223.69        15.11956
224.15        15.57418
224.61        16.94336
225.06        18.08524
225.52        18.82439
225.98        19.07028
226.44        18.97999
226.90        18.63853
227.36        18.40933
227.81        19.06098
228.27        20.40997
228.73        21.77524
229.19        22.63113
229.65        22.72231
230.10        22.18361
230.56         21.3391
231.02        20.46005
231.48        20.43759
231.93        21.51709
232.39         23.0847
232.85        24.87096
233.31        26.83113
233.77         28.7833
234.22        30.65678
234.68        32.07712
235.14        32.72085
235.60         32.5587
236.05        31.59929
236.51        29.70142
236.97        27.20687
237.43        24.77152
237.88        22.75096
238.34        21.36604
238.80        20.47664
239.26        19.77766
239.71        19.68581
240.17        19.68342
240.63         17.2623
241.08        11.94206
241.54        6.005504
242.00        2.503971
242.46        3.672161
242.91        10.58168
243.37        24.99561
243.83        51.51652
244.28        78.84351
244.74        83.75349
245.20        74.64297
245.66        64.06683
246.11         56.4324
246.57        50.22588
247.03        42.31038
247.48        27.90589
247.94        3.136211
248.40       -25.96097
248.85       -51.21855
249.31       -59.05442
249.77       -44.57254
250.22       -19.95023
250.68        4.657481
251.14        22.80048
251.59        31.32157
252.05        31.60662
252.51        22.73608
252.96       -5.399966
253.42       -50.20454
253.88       -51.37535
254.33       -14.12941
254.79        12.27988
255.25        25.99808
255.70        33.64915
256.16        39.03969
256.62         42.5671
257.07        44.05011
257.53        44.43332
257.99        44.10149
258.44        43.55573
258.90        43.51206
259.35        43.69313
259.81        44.12946
260.27        44.36192
260.72        43.84798
261.18        42.88191
261.63        41.58712
262.09        40.48388
262.55        39.83847
263.00        39.53413
263.46        39.44381
263.91        39.28735
264.37        38.94296
264.83        38.35476
265.28        37.64706
265.74        36.87953
266.19        35.91698
266.65        34.88457
267.11        33.75563
267.56        32.79803
268.02        32.51858
268.47        32.92376
268.93        33.80194
269.38        34.71345
269.84        34.88232
270.30        34.15345
270.75        32.76784
271.21        31.11911
271.66         29.6992
272.12        28.72725
272.57        28.01416
273.03        27.53113
273.48         27.1855
273.94        26.93705
274.39        26.80557
274.85        26.71337
275.31        26.48693
275.76        26.09123
276.22         25.5927
276.67        25.04904
277.13        24.63656
277.58         24.3373
278.04         24.1363
278.49        23.93821
278.95        23.69948
279.40        23.36693
279.86        22.99973
280.31        22.60607
280.77        22.26736
281.22        21.95539
281.68        21.68657
282.13        21.38255
282.59        21.00101
283.04        20.52337
283.50        20.01972
283.95        19.54801
284.41        19.23978
284.86        19.10987
285.32        19.11562
285.77         19.2105
286.22        19.35087
286.68        19.51396
287.13        19.69448
287.59        19.84371
288.04        19.84186
288.50        19.70406
288.95        19.43845
289.41        19.18582
289.86        19.09239
290.32        19.19904
290.77        19.44923
291.22        19.74226
291.68        19.91588
292.13        19.93819
292.59        19.89384
293.04        19.85327
293.50        19.97179
293.95        20.26702
294.40        20.68637
294.86        21.18062
295.31        21.68949
295.77        22.17127
296.22        22.63728
296.68        23.04941
297.13        23.33972
297.58        23.51989
298.04        23.63117
298.49        23.73873
298.95        23.98265
299.40        24.37579
299.85        24.87062
300.31        25.42543
300.76        25.97793
301.21        26.49948
301.67        27.01363
302.12        27.45248
302.58        27.73603
303.03        27.84243
303.48        27.81558
303.94        27.78636
304.39        27.89704
304.84        28.19587
305.30        28.63199
305.75        29.09919
306.20        29.44599
306.66        29.63214
307.11        29.67889
307.57         29.6619
308.02        29.64855
308.47        29.67085
308.93        29.71365
309.38        29.70724
309.83        29.59441
310.29        29.37832
310.74        29.08795
311.19        28.80713
311.65         28.6468
312.10         28.6268
312.55        28.71625
313.00        28.84745
313.46        28.91292
313.91        28.87247
314.36        28.74428
314.82        28.57215
315.27        28.44371
315.72        28.37055
316.18        28.32632
316.63        28.23555
317.08        27.99047
317.53        27.57831
317.99        27.04807
318.44        26.49283
318.89        26.08104
319.35        25.86189
319.80        25.78726
320.25        25.77951
320.70        25.70428
321.16        25.51669
321.61        25.26533
322.06        24.98765
322.51        24.74962
322.97        24.56742
323.42         24.4179
323.87        24.28472
324.32        24.15672
324.78        24.01955
325.23        23.89086
325.68        23.74691
326.13        23.55149
326.59        23.29333
327.04         22.9912
327.49        22.67282
327.94        22.39769
328.39        22.18374
328.85        22.01307
329.30        21.86859
329.75        21.69458
330.20        21.47709
330.66        21.22914
331.11        20.98494
331.56        20.77687
332.01        20.61778
332.46        20.49708
332.92        20.39207
333.37        20.29232
333.82        20.18299
334.27        20.07328
334.72        19.97776
335.17        19.92142
335.63        19.90156
336.08        19.91796
336.53        19.94943
336.98        19.97453
337.43        19.98329
337.88        19.98048
338.34        19.95278
338.79         19.8921
339.24        19.79383
339.69        19.65781
340.14        19.51438
340.59        19.41356
341.05        19.35539
341.50        19.32973
341.95        19.29458
342.40        19.18038
342.85        18.98041
343.30         18.7387
343.75        18.49162
344.20        18.28965
344.66        18.15922
345.11        18.07654
345.56          18.077
346.01        18.21217
346.46        18.46597
346.91        18.79891
347.36        19.10917
347.81        19.24785
348.26        19.18522
348.72        18.97494
349.17        18.66891
349.62        18.39329
350.07        18.19054
350.52        18.02709
350.97        17.90197
351.42        17.80685
351.87        17.73856
352.32         17.7239
352.77        17.71708
353.22        17.64031
353.67        17.48462
354.13        17.26542
354.58        17.06779
355.03        17.05494
355.48        17.24793
355.93        17.60235
356.38        17.95941
356.83        18.05312
357.28        17.83273
357.73        17.39133
358.18        16.92813
358.63        16.73954
359.08        16.88158
359.53        17.25262
359.98        17.69232
360.43        17.92733
360.88         17.8766
361.33        17.63832
361.78        17.31154
362.23        17.03851
362.68        16.86665
363.13        16.74476
363.58         16.6674
364.03        16.63474
364.48        16.63074
364.93        16.65596
365.38        16.67124
365.83        16.60712
366.28        16.45061
366.73        16.22498
367.18        15.95734
367.63        15.69878
368.08        15.48118
368.53        15.30317
368.98        15.18348
369.43         15.1466
369.88        15.18505
370.33         15.2794
370.78        15.39946
371.23        15.48816
371.68        15.51627
372.13        15.49422
372.58         15.3999
373.03        15.20452
373.48        14.91818
373.93        14.55692
374.38        14.20244
374.83        13.99163
375.28        13.95886
375.72        14.06739
376.17        14.23261
376.62         14.3187
377.07        14.28611
377.52        14.16677
377.97        14.00869
378.42         13.8899
378.87        13.83093
379.32        13.80644
379.77         13.7761
380.22        13.68154
380.67        13.51543
381.11         13.3069
381.56        13.10912
382.01        13.00897
382.46        13.02667
382.91        13.13259
383.36        13.26522
383.81        13.33278
384.26         13.3071
384.71        13.20554
385.15        13.06886
385.60        12.97849
386.05        12.94811
386.50         12.9612
386.95        12.96328
387.40        12.87223
387.85        12.68656
388.29        12.43542
388.74        12.22835
389.19         12.1709
389.64        12.27449
390.09         12.4867
390.54        12.72501
390.98        12.85651
391.43        12.84617
391.88        12.74517
392.33        12.59251
392.78        12.44972
393.23        12.33902
393.67        12.21859
394.12        12.12206
394.57        12.10932
395.02        12.16316
395.47        12.19861
395.91        12.19444
396.36        12.17451
396.81        12.13914
397.26        12.05739
397.71        11.96004
398.15        11.92455
398.60        11.97208
399.05        12.02244
399.50        12.05749
399.95        12.14371
400.39        12.23325
400.84        12.12079
401.29        11.84696
401.74        11.67573
402.18        11.63831
402.63        11.59571
403.08        11.54246
403.53        11.52394
403.97        11.53313
404.42        11.56209
404.87        11.58394
405.32        11.55207
405.76        11.45877
406.21         11.3253
406.66        11.19247
407.11        11.12899
407.55        11.15207
408.00        11.23854
408.45        11.35118
408.90        11.40651
409.34        11.38679
409.79        11.34218
410.24        11.28517
410.68        11.20555
411.13          11.115
411.58        11.02388
412.03        10.94506
412.47        10.89876
412.92        10.88829
413.37        10.90584
413.81        10.93733
414.26        10.96968
414.71        10.99165
415.15        11.01475
415.60        11.01213
416.05        10.95613
416.49        10.84662
416.94        10.69181
417.39        10.54631
417.83        10.49788
418.28         10.5604
418.73        10.70446
419.17        10.86096
419.62        10.90859
420.07        10.82765
420.51        10.66117
420.96        10.47671
421.41        10.35975
421.85        10.33073
422.30        10.35921
422.74        10.42973
423.19        10.53076
423.64        10.64534
424.08        10.78388
424.53         10.8903
424.98        10.88457
425.42        10.75665
425.87        10.54016
426.31        10.30351
426.76        10.16832
427.21        10.15882
427.65         10.2355
428.10        10.37613
428.54        10.53661
428.99        10.68617
429.44         10.8512
429.88        10.96236
430.33        10.91834
430.77        10.72066
431.22        10.41688
431.66        10.11197
432.11        9.994692
432.56        10.06615
433.00        10.25007
433.45        10.42014
433.89        10.32126
434.34        9.950982
434.78         9.98424
435.23        10.45043
435.67        10.60831
436.12        10.45294
436.57        10.37551
437.01        10.40676
437.46        10.39946
437.90         10.3576
438.35        10.33958
438.79        10.33488
439.24        10.30014
439.68          10.253
440.13        10.27577
440.57        10.34696
441.02        10.38655
441.46        10.38816
441.91        10.32514
442.35        10.23147
442.80        10.33694
443.24        10.56094
443.69        10.49271
444.13        10.18084
444.58        10.05683
445.02        10.13172
445.47        10.17842
445.91        10.18335
446.36        10.23066
446.80        10.31199
447.24        10.40088
447.69        10.47697
448.13        10.51144
448.58        10.49761
449.02        10.44327
449.47        10.37021
449.91        10.30467
450.36        10.26102
450.80         10.2341
451.25        10.21554
451.69        10.18328
452.13        10.13477
452.58        10.07907
453.02        10.03148
453.47        10.02315
453.91        10.05547
454.36        10.11856
454.80        10.18101
455.24        10.18992
455.69        10.13815
456.13        10.03697
456.58        9.931677
457.02        9.876698
457.46         9.88622
457.91        9.940378
458.35        10.00049
458.79         9.98959
459.24        9.901798
459.68        9.789807
460.13         9.70679
460.57        9.529489
461.01        9.550593
461.46        9.542448
461.90        9.578658
462.34        9.598718
462.79        9.646376
463.23        9.680265
463.68        9.716433
464.12        9.754171
464.56        9.792598
465.01        9.841619
465.45        9.869566
465.89        9.844787
466.34        9.771542
466.78        9.655841
467.22        9.542915
467.67        9.527938
468.11        9.587178
468.55        9.731663
468.99        9.896852
469.44        10.00087
469.88        10.02503
470.32        9.988065
470.77        9.924451
471.21        9.886859
471.65        9.893304
472.10        9.927729
472.54        9.968194
472.98          9.9887
473.42        9.984271
473.87        9.973202
474.31         9.96226
474.75        9.970787
475.20          10.005
475.64        10.04805
476.08        10.09387
476.52        10.16013
476.97        10.24708
477.41        10.30325
477.85         10.2969
478.29        10.46941
478.74        10.36995
479.18        10.34997
479.62        10.30386
480.06        10.34128
480.50        10.47265
480.95        10.47026
481.39        10.66522
481.83        10.71795
482.27        10.73217
482.72        10.72828
483.16        10.71689
483.60        10.73123
484.04        10.75407
484.48        10.77716
484.93        10.89502
485.37        11.07192
485.81        11.12186
486.25        11.82416
486.69        10.90579
487.14        10.69839
487.58        11.24696
488.02        11.51103
488.46        11.37228
488.90        11.62171
489.34        11.25779
489.79        11.27932
490.23        11.80716
490.67         12.1126
491.11        12.25217
491.55        12.21344
491.99        12.07606
492.43        12.06603
492.88        12.20951
493.32        12.33535
493.76        12.42202
494.20        12.54068
494.64         12.6906
495.08        12.83689
495.52        12.96659
495.96        13.11038
496.41        13.25298
496.85        13.27744
497.29        13.23241
497.73        13.37471
498.17        13.67501
498.61        13.81004
499.05        13.77999
499.49        13.84781
499.93        14.01893
500.37        14.14128
500.82        14.20847
501.26        14.27883
501.70        14.35542
502.14        14.42291
502.58        14.48291
503.02        14.53869
503.46         14.5931
503.90        14.65012
504.34        14.71539
504.78        14.79465
505.22        14.88683
505.66        14.98703
506.10        15.08529
506.54        15.16519
506.98        15.22104
507.42        15.25788
507.86        15.27756
508.30        15.28313
508.74        15.28084
509.18        15.27459
509.62        15.27714
510.06        15.30865
510.50        15.37324
510.94        15.46354
511.38        15.56904
511.82        15.67172
512.26        15.76124
512.70          15.837
513.14        15.89178
513.58         15.9171
514.02         15.9132
514.46        15.88346
514.90        15.83795
515.34        15.79408
515.78        15.76005
516.22         15.7359
516.66         15.7227
517.10         15.7191
517.54         15.7234
517.98        15.73555
518.42        15.75251
518.86        15.76818
519.30         15.7795
519.74        15.78604
520.18        15.78425
520.62        15.77074
521.06        15.74504
521.50        15.70657
521.93        15.66484
522.37        15.63105
522.81         15.6109
523.25        15.60477
523.69        15.59945
524.13        15.57285
524.57        15.52296
525.01        15.45683
525.45         15.3986
525.89        15.38589
526.32        15.42352
526.76        15.49518
527.20        15.56874
527.64        15.59262
528.08        15.55389
528.52         15.4692
528.96        15.36377
529.40        15.27746
529.83        15.21986
530.27        15.18268
530.71        15.15383
531.15        15.11817
531.59        15.07104
532.03        15.02007
532.46        14.96626
532.90        14.91153
533.34        14.86068
533.78         14.8022
534.22        14.74293
534.66        14.71947
535.09        14.71806
535.53        14.68247
535.97        14.61993
536.41        14.59487
536.85        14.61105
537.28        14.63619
537.72        14.65693
538.16        14.66926
538.60        14.66928
539.04        14.65595
539.47        14.64779
539.91         14.6823
540.35        14.76077
540.79        14.88132
541.22        15.00957
541.66        15.06676
542.10        15.08286
542.54        15.04571
542.97         15.0145
543.41        15.07391
543.85        15.23453
544.29        15.46764
544.72        15.71716
545.16        15.90333
545.60        16.00472
546.04        16.04583
546.47        16.06524
546.91         16.1295
547.35        16.25637
547.79        16.41909
548.22         16.5809
548.66        16.72398
549.10        16.84142
549.53        16.86683
549.97        16.97507
550.41        17.09478
550.84        17.27552
551.28        17.50124
551.72        17.73574
552.15        17.90397
552.59        18.00041
553.03        18.07152
553.46        18.13312
553.90        18.22002
554.34        18.34252
554.77         18.4621
555.21        18.56226
555.65        18.79488
556.08        18.79484
556.52        18.90935
556.96        19.04372
557.39        19.00976
557.83        19.17845
558.27        19.22634
558.70        19.26793
559.14        19.40075
559.57        19.45385
560.01        19.59149
560.45        19.71408
560.88        19.74075
561.32        19.70867
561.75        19.64432
562.19        19.61205
562.63        19.79427
563.06        20.11013
563.50        20.13421
563.93        19.90809
564.37        19.89071
564.80         20.0872
565.24        20.24464
565.68        20.33849
566.11        20.45031
566.55        20.58046
566.98        20.69996
567.42        20.81583
567.85        20.92391
568.29        21.03178
568.72        21.13288
569.16        21.25448
569.60        21.37794
570.03        21.49002
570.47        21.68995
570.90        21.88897
571.34        21.92568
571.77        22.10026
572.21        22.16375
572.64        22.24664
573.08        22.30532
573.51        22.81042
573.95        22.81679
574.38        22.70652
574.82        22.92134
575.25        22.97688
575.69        23.03253
576.12        22.89563
576.56        23.20046
576.99        23.34506
577.42        23.06543
577.86        23.27324
578.29        23.24018
578.73        23.13042
579.16        23.09654
579.60        22.65327
580.03        22.64042
580.47        22.99013
580.90        22.67093
581.33        22.90417
581.77        23.11456
582.20        22.79239
582.64        22.53019
583.07        22.28552
583.51        22.01018
583.94         21.8747
584.37        21.94014
584.81        22.12208
585.24        22.04266
585.68        21.79188
586.11        21.47878
586.54        21.60291
586.98         21.5712
587.41         21.4789
587.85        21.56311
588.28        21.44477
588.71        21.08353
589.15        21.44009
589.58        21.12129
590.01         21.2765
590.45         21.1355
590.88        21.00494
591.31        21.03259
591.75        21.20026
592.18        21.21751
592.61        21.03617
593.05        21.29133
593.48        21.25148
593.91        21.22867
594.35        21.36417
594.78        21.44331
595.21        21.55738
595.65        21.64068
596.08        21.68326
596.51        21.88208
596.94        21.86131
597.38        22.04384
597.81        22.34501
598.24        22.35611
598.68        23.01064
599.11        22.84499
599.54         23.5749
599.97        23.39473
600.41        23.76692
600.84        24.29273
601.27        24.40011
601.70        24.88807
602.14        25.28795
602.57           25.64
603.00        25.88745
603.43        26.08465
603.87        26.44002
604.30        26.87232
604.73        27.13245
605.16        27.49414
605.60        27.86307
606.03        28.43351
606.46         29.0522
606.89        29.35354
607.32        29.44484
607.76        29.67861
608.19        30.11585
608.62        30.48245
609.05        30.72976
609.48        31.26316
609.92        31.36609
610.35        31.65229
610.78        32.49434
611.21        32.82623
611.64        32.85519
612.07        33.18093
612.50        33.83304
612.94        33.94897
613.37        33.94586
613.80        34.45337
614.23        34.40261
614.66        34.84307
615.09        34.89646
615.52        35.13688
615.96        35.36543
616.39        35.92392
616.82        36.03404
617.25        36.44187
617.68        36.85529
618.11         36.9721
618.54        36.85145
618.97         36.9196
619.40        37.21852
619.84        37.42086
620.27        37.52675
620.70        37.81612
621.13        38.26367
621.56        38.32235
621.99        38.36271
622.42        38.52172
622.85        38.58926
623.28        38.47334
623.71        38.61415
624.14        38.71593
624.57        38.81602
625.00        38.91618
625.43        38.97867
625.86        38.82008
626.29        38.56199
626.72        38.55381
627.15        38.24021
627.58        38.01011
628.01        37.72474
628.44        37.60468
628.87        37.59229
629.30        37.40394
629.73        37.05891
630.16        36.79229
630.59        36.60163
631.02        36.34313
631.45        36.01572
631.88         35.6786
632.31        35.33265
632.74        35.00331
633.17        34.61681
633.60        34.23284
634.03        33.82985
634.46        33.41661
634.89         32.9951
635.32        32.56911
635.75        32.14477
636.18        31.72326
636.61        31.31115
637.04        30.91511
637.47         30.5366
637.89        30.16989
638.32        29.79324
638.75         29.4205
639.18        29.06136
639.61        28.60185
640.04        28.28391
640.47         27.9715
640.90        27.73492
641.33        27.55254
641.76        27.39922
642.18        27.27098
642.61        27.15834
643.04         27.0071
643.47        26.80323
643.90        26.90228
644.33         26.7297
644.76        26.70805
645.18        26.68635
645.61        26.80505
646.04        27.01883
646.47        27.10621
646.90        27.09492
647.33        27.20926
647.75        27.46442
648.18        27.73726
648.61        27.99794
649.04        28.25305
649.47        28.49595
649.89        28.74989
650.32        29.04678
650.75        29.38015
651.18        29.76004
651.61        30.35564
652.03        31.11025
652.46        31.51469
652.89        31.60794
653.32        32.01354
653.74         32.8526
654.17        32.97795
654.60        33.72463
655.03        34.04011
655.46         34.2545
655.88        34.83511
656.31        40.01569
656.74        39.43018
657.16        36.20791
657.59        35.72408
658.02         37.1512
658.45        37.53531
658.87        38.19203
659.30        37.62268
659.73        38.36422
660.15        39.25789
660.58        39.18047
661.01        39.40992
661.44        39.52961
661.86        39.91968
662.29        40.51897
662.72        40.88463
663.14        41.03953
663.57         41.3484
664.00        41.79081
664.42        42.06363
664.85        42.16907
665.27        42.24317
665.70        42.34984
666.13        42.53304
666.55        42.81869
666.98        43.18939
667.41        43.58951
667.83        43.92204
668.26        44.14593
668.69        44.28584
669.11        44.38934
669.54        44.54896
669.96        44.77718
670.39        45.01745
670.82        45.24026
671.24        45.38691
671.67        45.46742
672.09         45.5745
672.52        45.71615
672.94        45.79217
673.37        45.81373
673.80        45.84225
674.22        45.90737
674.65        46.00486
675.07        46.15211
675.50        46.33619
675.92        46.55292
676.35        46.78742
676.77        47.02968
677.20        47.27019
677.62        47.48745
678.05        47.63692
678.47        47.71505
678.90        47.74757
679.32        47.75708
679.75        47.79712
680.17        47.87493
680.60        47.97385
681.02        48.10935
681.45        48.26078
681.87        48.42247
682.30        48.68879
682.72        48.99712
683.15        48.98071
683.57        48.74162
684.00        48.84459
684.42        49.25961
684.85         49.4824
685.27        49.48541
685.70        49.57172
686.12        49.74222
686.54        49.85862
686.97        49.91225
687.39        50.00785
687.82        50.12123
688.24        50.09254
688.66        49.98676
689.09        50.12356
689.51        50.48671
689.94        50.71941
690.36        50.80436
690.78        50.95634
691.21        51.19498
691.63        51.38798
692.06        51.57005
692.48        51.94085
692.90        52.41852
693.33        52.67093
693.75        52.66334
694.17        52.54388
694.60        52.43584
695.02        52.30359
695.44         52.4693
695.87        52.55703
696.29        52.66518
696.71         52.4844
697.14        52.57519
697.56        52.83195
697.98        53.30856
698.41        53.57419
698.83        53.59617
699.25        53.60181
699.68        53.62558
700.10         53.6915
700.52         53.8154
700.94        53.94738
701.37        54.08686
701.79        54.34676
702.21        54.67325
702.64        54.86323
703.06        54.88189
703.48        54.90243
703.90        54.95615
704.33        54.68401
704.75        54.65308
705.17        54.61425
705.59        54.74297
706.01        54.97162
706.44        55.27848
706.86        55.59801
707.28        55.87088
707.70        56.20676
708.12        56.52737
708.55         56.4941
708.97        56.19818
709.39        56.16313
709.81        56.40278
710.23         56.5019
710.66        56.45304
711.08        56.54079
711.50        56.73596
711.92        56.86277
712.34        56.90741
712.76        56.92422
713.19        56.92701
713.61        56.96574
714.03        57.03457
714.45        57.13537
714.87        57.27689
715.29        57.35318
715.71         57.5628
716.13        57.74314
716.56        57.90284
716.98        58.02184
717.40        58.06626
717.82        58.04394
718.24        58.00555
718.66        58.04156
719.08        58.16962
719.50        58.36327
719.92        58.56235
720.34        58.66828
720.76        58.65635
721.19        58.55761
721.61         58.4337
722.03        58.37324
722.45        58.41018
722.87        58.53391
723.29        58.69796
723.71        58.82511
724.13        58.89164
724.55        58.90411
724.97        58.94211
725.39        59.12646
725.81        59.46498
726.23        59.92612
726.65        60.35164
727.07        60.41805
727.49        60.19521
727.91        59.69922
728.33        59.15008
728.75        58.88956
729.17        58.99234
729.59         59.3604
730.01        59.83847
730.43        60.14841
730.85        60.21687
731.27        60.14808
731.69        60.05204
732.10        59.92752
732.52        59.82847
732.94        59.72271
733.36        59.68118
733.78        59.79888
734.20        60.08369
734.62        60.59003
735.04         61.1364
735.46         61.2922
735.88         61.0995
736.30        60.89862
736.72        60.80788
737.13        61.01999
737.55        61.38358
737.97        61.28377
738.39        60.81246
738.81        60.70584
739.23        61.00947
739.65        61.29528
740.06        61.43837
740.48        61.56001
740.90        61.61399
741.32        61.58273
741.74        61.49635
742.16        61.40213
742.57        61.32417
742.99        61.30198
743.41        61.35092
743.83        61.35442
744.25        61.36477
744.67        61.65937
745.08        62.14905
745.50        62.35173
745.92        62.22332
746.34        61.98082
746.75        61.71173
747.17        61.50079
747.59        61.37973
748.01        61.37309
748.42        61.45202
748.84        61.46313
749.26         61.4394
749.68        61.55264
750.09        61.78185
750.51        62.02222
750.93        62.21577
751.35        62.28592
751.76        62.26651
752.18        62.30914
752.60         62.4254
753.01        62.56219
753.43        62.68465
753.85        62.73714
754.27        62.69804
754.68        62.92257
755.10        62.82865
755.52          62.974
755.93        63.16843
756.35        63.39968
756.77        63.60469
757.18         63.6561
757.60        63.55031
758.02        63.43208
758.43        63.30728
758.85        63.03798
759.26        62.75598
759.68        62.83818
760.10        63.27832
760.51        63.63894
760.93        63.79634
761.34        63.56755
761.76        63.53094
762.18        63.16689
762.59        62.84194
763.01        63.07552
763.42        63.77785
763.84        64.10023
764.26        63.98196
764.67        63.68293
765.09        63.38127
765.50        63.58128
765.92        64.19849
766.33        64.06249
766.75         63.0697
767.16        63.72848
767.58        63.48575
768.00        63.80798
768.41        63.96656
768.83        64.58768
769.24        65.44483
769.66        65.82121
770.07        65.70138
770.49        65.30602
770.90        64.87193
771.32        64.94642
771.73        65.40516
772.15        65.43813
772.56        65.04429
772.97         64.5343
773.39        64.43745
773.80        64.47517
774.22        64.71146
774.63          64.923
775.05        65.02773
775.46         65.2042
775.88        65.39845
776.29        65.47971
776.70        65.47757
777.12        65.56232
777.53        65.76424
777.95         65.9949
778.36        66.19868
778.77        66.25431
779.19        66.14302
779.60        65.97312
780.02         65.7831
780.43        65.55277
780.84        65.40858
781.26        65.42925
781.67        65.57195
782.09        65.98803
782.50        66.51678
782.91        65.85612
783.33        65.43324
783.74        65.23987
784.15        65.72742
784.57        66.28784
784.98        66.81408
785.39        67.29765
785.81        67.65499
786.22         67.7144
786.63        67.85845
787.04        67.73449
787.46        67.52347
787.87        67.24076
788.28        67.04734
788.70        67.06473
789.11        67.28252
789.52        67.83369
789.93        68.46773
790.35        68.44032
790.76        67.84017
791.17         67.4458
791.58        67.36808
792.00        67.29656
792.41        67.24937
792.82        67.18822
793.23        67.12349
793.65        67.44357
794.06         67.9728
794.47        67.79889
794.88        67.14153
795.29        67.02235
795.71        67.42499
796.12        67.95257
796.53        68.38714
796.94        68.48222
797.35        68.19569
797.76         67.7767
798.18        67.38673
798.59        67.20105
799.00        67.32877
799.41        67.10394
799.82        67.70229
800.23        67.91538
800.64        68.05563
801.06        68.13215
801.47        68.17673
801.88         68.1215
802.29        67.95848
802.70         67.6977
803.11        67.42409
803.52        67.29015
803.93        67.35123
804.34        67.58262
804.75        67.88883
805.17        68.19742
805.58        68.51492
805.99        68.47295
806.40        68.19676
806.81        68.74751
807.22        69.76389
807.63        69.27113
808.04        67.55588
808.45        66.84971
808.86        67.34135
809.27        67.80475
809.68        68.06641
810.09        68.38872
810.50        68.69157
810.91        68.91427
811.32         69.0217
811.73        68.95686
812.14        68.73454
812.55        68.38173
812.96        68.05819
813.37        68.03541
813.78        68.36962
814.19        68.97285
814.60        69.66044
815.01         70.1447
815.42        70.34273
815.83        70.32378
816.24        70.14306
816.65        69.91996
817.05         69.7229
817.46        69.50001
817.87         69.2931
818.28        69.12021
818.69        68.98165
819.10        68.89058
819.51        68.85226
819.92        68.85661
820.33        68.89281
820.74        68.95364
821.14        69.00069
821.55        69.00751
821.96        68.96134
822.37        68.88841
822.78         68.8242
823.19        68.83308
823.60        68.94164
824.00        69.14485
824.41        69.41016
824.82        69.78772
825.23        70.24853
825.64         70.7496
826.04        71.20372
826.45        71.39385
826.86        71.29858
827.27        70.98376
827.68        70.51228
828.08        70.01653
828.49        69.53516
828.90        69.06332
829.31        68.70854
829.72        68.62191
830.12        68.85464
830.53        69.35255
830.94        69.91682
831.35         70.1312
831.75        69.90889
832.16        69.31165
832.57        68.69087
832.97        68.58556
833.38        69.08112
833.79        69.99686
834.20        70.98298
834.60         71.4432
835.01        71.19164
835.42        70.46301
835.82         69.5307
836.23        68.80418
836.64        68.43028
837.04        68.30351
837.45        68.37177
837.86        68.60855
838.26        68.97387
838.67        69.44815
839.08        69.93375
839.48        70.22938
839.89        70.27003
840.29        70.09232
840.70        69.79609
841.11        69.52541
841.51         69.3516
841.92        69.22328
842.33        69.17305
842.73        69.25211
843.14        69.41616
843.54        69.71704
843.95         70.0524
844.35        70.31242
844.76        70.42878
845.17        70.40716
845.57        70.34155
845.98        70.38246
846.38        70.57343
846.79         70.8513
847.19         71.0815
847.60        70.95811
848.00        70.46272
848.41        69.70204
848.81         68.9371
849.22        68.53486
849.62        68.59746
850.03        68.99081
850.43          69.554
850.84         69.8595
851.24        69.84597
851.65         69.6077
852.05        69.32314
852.46        69.24814
852.86         69.4249
853.27        69.72915
853.67        70.07024
854.07        70.51527
854.48        70.98701
854.88        71.60378
855.29        72.02445
855.69        71.86835
856.10        70.96568
856.50        69.54977
856.90        68.14221
857.31        67.49805
857.71        67.75331
858.12        68.65693
858.52        69.85522
858.92        70.45235
859.33        70.15016
859.73        69.27979
860.13        68.13235
860.54        67.19103
860.94        66.63238
861.34        66.28319
861.75        66.18006
862.15        66.44434
862.55        67.01862
862.96        67.86268
863.36        68.71292
863.76        69.03525
864.17        68.71641
864.57        67.91129
864.97        66.92213
865.38        66.27529
865.78        66.15897
866.18        66.41972
866.58         66.8942
866.99        67.27006
867.39        67.45733
867.79        67.55319
868.19        67.58253
868.60         67.5491
869.00        67.46569
869.40         67.2961
869.80         67.1464
870.21        67.22944
870.61        67.62243
871.01        68.20786
871.41        68.73773
871.81        68.82967
872.22        68.41964
872.62        67.65173
873.02        66.77569
873.42        66.20522
873.82        66.07883
874.22        66.28513
874.63        66.70271
875.03        67.12862
875.43        67.47864
875.83        67.80246
876.23        68.10401
876.63        68.38676
877.03        68.64571
877.44        68.83146
877.84         68.9479
878.24        68.97086
878.64        68.90109
879.04          68.756
879.44        68.58018
879.84        68.43298
880.24        68.33132
880.64        68.27163
881.04        68.23437
881.44        68.17234
881.84        68.08502
882.24        68.00488
882.65        67.92838
883.05        67.95655
883.45         68.0607
883.85        68.19145
884.25        68.37903
884.65        68.67718
885.05        69.08398
885.45        69.60101
885.85         70.0579
886.25        70.16806
886.65        69.87209
887.05        69.23106
887.45         68.5569
887.85        68.34123
888.25        68.68163
888.65        69.45263
889.04        70.25559
889.44        70.41489
889.84        69.80986
890.24        68.65735
890.64        67.44417
891.04        66.87132
891.44        67.08354
891.84        67.89536
892.24        68.84516
892.64        69.14763
893.04        68.62471
893.44        67.54071
893.83        66.44519
894.23        66.17192
894.63        66.85817
895.03        68.22591
895.43        69.74585
895.83         70.4606
896.23        70.10828
896.63        69.06933
897.02         67.7752
897.42        66.93501
897.82        66.67342
898.22        66.80978
898.62         67.2403
899.01        67.82696
899.41        68.42233
899.81        69.08989
900.21        69.79173
900.61        70.43977
901.00        70.97453
901.40        71.34007
901.80        71.46729
902.20        71.29125
902.59        70.84545
902.99        70.19034
903.39        69.49128
903.79        69.01015
904.18        68.80341
904.58        68.81303
904.98        68.96098
905.38        69.11755
905.77        69.23108
906.17         69.3905
906.57         69.4806
906.96        69.32612
907.36        68.91673
907.76        68.30406
908.15         67.8275
908.55        68.00504
908.95        68.92006
909.34        70.37856
909.74        71.88808
910.14        72.71899
910.53        72.65661
910.93        71.92967
911.33        70.83498
911.72        69.84833
912.12        69.17501
912.52        68.68971
912.91        68.36702
913.31        68.15788
913.70         68.0454
914.10        68.09216
914.49         68.2708
914.89        68.48446
915.29         68.6992
915.68        68.88725
916.08        69.05915
916.47        69.27468
916.87        69.52834
917.26        69.79865
917.66        70.00015
918.05        70.00786
918.45        69.80598
918.84        69.47286
919.24        69.14064
919.64        69.11332
920.03        69.46478
920.42        70.06118
920.82         70.7113
921.21        71.15649
921.61        71.29081
922.00        71.20112
922.40        70.91187
922.79        70.55556
923.19        70.19491
923.58        69.81684
923.98        69.45188
924.37        69.08405
924.77        68.74594
925.16        68.45061
925.55        68.25647
925.95        68.20557
926.34        68.32713
926.74        68.56907
927.13        68.94249
927.52        69.37233
927.92        69.80054
928.31        70.22145
928.70        70.58511
929.10        70.84633
929.49        71.00639
929.89        71.07111
930.28        71.02053
930.67        70.78882
931.07        70.38048
931.46        69.81335
931.85        69.28445
932.24        69.11488
932.64        69.35384
933.03        69.95181
933.42        70.55347
933.82        70.61332
934.21        70.04424
934.60        69.01315
934.99        67.99413
935.39        67.68414
935.78        68.26466
936.17        69.55659
936.56        71.04889
936.96        71.79195
937.35        71.53339
937.74        70.51189
938.13        69.30164
938.53        68.66945
938.92        68.73785
939.31        69.32395
939.70        70.03095
940.09        70.15988
940.49        69.54362
940.88        68.45908
941.27        67.36797
941.66        66.93736
942.05        67.31449
942.44        68.30109
942.84        69.49638
943.23        70.24037
943.62        70.25831
944.01        69.77511
944.40        69.11846
944.79        68.81289
945.18        68.99853
945.57        69.45748
945.97        70.01956
946.36        70.53894
946.75         70.8951
947.14        71.16457
947.53        71.26245
947.92        71.01578
948.31        70.44218
948.70        69.64182
949.09        68.84092
949.48        68.37651
949.87        68.34538
950.26         68.6738
950.65        69.29927
951.04        70.07807
951.43        70.88113
951.82        71.66415
952.21        72.31466
952.60        72.70234
952.99        72.78294
953.38        72.55379
953.77         72.0326
954.16        71.28616
954.55        70.43118
954.94        69.58563
955.33        68.84609
955.72        68.32042
956.11        68.04269
956.50        67.94646
956.89        68.14306
957.28        68.80844
957.66        69.93955
958.05        71.33704
958.44        72.52274
958.83        72.59409
959.22        71.40804
959.61        69.37742
960.00        67.16772
960.39        65.70871
960.78        65.22905
961.16        65.47115
961.55        66.25842
961.94        67.38793
962.33        68.67168
962.72        70.17905
963.11        71.46745
963.49        71.74366
963.88        70.82231
964.27        68.99471
964.66        66.95975
965.04        65.70586
965.43        65.42465
965.82        65.86269
966.21        66.68762
966.60        67.23477
966.98        67.27496
967.37         67.0266
967.76         66.6452
968.15        66.35688
968.53        66.25273
968.92        66.16679
969.31        66.16672
969.69        66.41973
970.08        66.88295
970.47        67.54484
970.86        68.11208
971.24        68.05216
971.63        67.21896
972.02        65.85497
972.40        64.38995
972.79        63.49613
973.17         63.3671
973.56        63.81873
973.95        64.60111
974.33        65.34229
974.72        65.85323
975.11        66.15527
975.49        66.46004
975.88        67.11366
976.26        68.20438
976.65        69.52577
977.04        70.43512
977.42        69.92764
977.81        67.91988
978.19        64.80851
978.58         61.9338
978.96        61.02578
979.35        62.42043
979.74        65.74437
980.12        69.97707
980.51        72.43454
980.89        72.35926
981.28        70.29746
981.66        67.52425
982.05        66.24284
982.43        67.00062
982.82        69.08644
983.20        71.76271
983.59        73.61285
983.97        74.25611
984.35        74.12901
984.74        73.40847
985.12         72.4733
985.51        71.49236
985.89        70.27759
986.28        69.18118
986.66        68.64168
987.04        68.83012
987.43        69.65125
987.81        70.65494
988.20        70.83502
988.58        70.00272
988.96        68.31839
989.35         66.4979
989.73        65.67132
990.12        66.06361
990.50         67.4204
990.88        68.90529
991.27        69.15793
991.65        67.97327
992.03          65.832
992.42        63.69647
992.80        62.80389
993.18         63.5453
993.56        65.42657
993.95        67.74621
994.33        69.59655
994.71        70.39043
995.10        70.43639
995.48        69.77625
995.86        68.49571
996.24        66.82607
996.63        64.79375
997.01        62.86658
997.39        61.71836
997.77        61.45983
998.15        61.97577
998.54        62.91013
998.92        63.53527
999.30        63.60418
999.68        63.31032
1000.06        62.85447
1000.45         62.5779
1000.83        62.72992
1001.21        63.08785
1001.59        63.61391
1001.97        64.28658
1002.35        65.01225
1002.73         65.7525
1003.12        66.34975
1003.50         66.4819
1003.88        66.13676
1004.26        65.47799
1004.64        64.60062
1005.02         63.6184
1005.40        62.63032
1005.78        61.63672
1006.16        60.93038
1006.54        61.00391
1006.92        61.92483
1007.30        63.51096
1007.69        65.21466
1008.07        66.36632
1008.45        66.65271
1008.83        66.25623
1009.21        65.45072
1009.59        64.73081
1009.97         64.3212
1010.35         64.1398
1010.73        64.20922
1011.11        64.55867
1011.49        65.21484
1011.86        66.36668
1012.24        67.80943
1012.62        69.54486
1013.00        71.47382
1013.38        73.45361
1013.76        75.27735
1014.14        76.71841
1014.52        77.61144
1014.90         77.8936
1015.28         77.4099
1015.66        76.05804
1016.04         74.1496
1016.41        72.09011
1016.79        70.21842
1017.17        68.56785
1017.55        66.94306
1017.93        65.03014
1018.31        63.07496
1018.69        62.21786
1019.06         62.9257
1019.44        64.65522
1019.82        66.04707
1020.20        65.86465
1020.58        64.09116
1020.95        60.78838
1021.33        56.87608
1021.71        54.94743
1022.09        56.46431
1022.46        60.66455
1022.84        65.78196
1023.22        69.49169
1023.60        71.10601
1023.97        71.30759
1024.35        70.21076
1024.73        68.13125
