SpectraSmart Spectrum 2.9.0.0
--------- Device Information -----------
Spectrum Name :  反射率_0
Saving Time :  2024/05/01 17:24:33
Spectro-Module Model Name : SE2030-DUVN
Spectro-Module Serial Number : OS361AC55029948
Wavelength Start : 200
Wavelength End : 1025
Wavelength Unit : Wavelength(nm)
Spectrum Unit : Reflectance(%)
-----------Spectrum Setting ------------
Integration Time : 20ms
Average : 10
Boxcar : 0
Background removal :  enabled
linearity correction :  enabled
SC :  disabled
Intensity correction :  disabled
DWT denoise :  enabled
savitzky-golay :  disabled
FFT :  disabled
Running average :  disabled
Kalman :  disabled
High pass :  disabled
---------------BEGIN--------------------
Wavelength(nm)             Reflectance(%)
200.29               0
200.75        197.8278
201.21        876.9689
201.67        -376.263
202.13       -137.1076
202.58       -58.76112
203.04       -12.47682
203.50        14.70211
203.96        22.80145
204.42        11.70218
204.88       -45.62484
205.34        -1608.48
205.80        288.3109
206.26        198.0781
206.72        170.6584
207.18        185.7201
207.64        44.20797
208.10        61.29935
208.55        52.11136
209.01        40.96991
209.47        33.85034
209.93        29.92226
210.39        25.20955
210.85        18.77522
211.31        7.352154
211.77       -30.47559
212.23        250.6312
212.69        82.59879
213.14         83.6022
213.60        143.0689
214.06       -571.0663
214.52        -78.5873
214.98       -44.86025
215.44       -34.48893
215.90       -29.50359
216.36       -43.87961
216.81       0.3298218
217.27        49.39502
217.73       -300.0375
218.19       -107.9967
218.65       -96.30018
219.11       -105.3246
219.57       -139.1279
220.02       -203.6878
220.48       -8.651027
220.94        24.96944
221.40        25.45473
221.86        26.15793
222.32        31.84142
222.77        43.22399
223.23        61.67675
223.69        85.28691
224.15        95.53495
224.61        85.63095
225.06        69.03699
225.52        57.39943
225.98        54.51758
226.44        59.09728
226.90        70.07278
227.36        85.27763
227.81        93.29623
228.27        89.22081
228.73        80.32825
229.19        72.95666
229.65        70.58636
230.10        72.71431
230.56        78.07181
231.02        85.41991
231.48        90.52726
231.93        90.77481
232.39        88.60657
232.85         85.3637
233.31        82.16342
233.77        79.50214
234.22        77.08604
234.68        75.51055
235.14        75.57976
235.60        77.50917
236.05        81.80501
236.51         88.5144
236.97        95.81796
237.43          100.82
237.88        102.2802
238.34        100.4482
238.80        98.13946
239.26        96.03651
239.71        93.49241
240.17        87.79734
240.63        75.51389
241.08        58.82265
241.54        44.39816
242.00        36.92218
242.46        36.52611
242.91        42.84146
243.37        57.72603
243.83        85.27496
244.28        111.2427
244.74        112.2512
245.20         99.6731
245.66        85.92041
246.11        74.07483
246.57        61.42531
247.03        42.54192
247.48        12.77542
247.94       -21.05556
248.40       -41.76657
248.85       -45.58303
249.31       -33.29536
249.77        -15.0737
250.22        1.240971
250.68        14.61732
251.14        23.28815
251.59        26.30992
252.05        24.39304
252.51        15.37889
252.96       -6.780787
253.42        -25.7019
253.88        6.771013
254.33        51.13247
254.79        71.10847
255.25        76.69727
255.70        76.65923
256.16        75.30767
256.62        73.96767
257.07        73.50635
257.53        74.22303
257.99        75.16872
258.44        75.83332
258.90        76.41046
259.35         76.5171
259.81        76.64518
260.27        76.59679
260.72        76.18313
261.18        75.76774
261.63        75.06143
262.09        74.47789
262.55        73.96453
263.00        73.37329
263.46        72.86488
263.91         72.1802
264.37         71.4461
264.83         70.5916
265.28        69.65337
265.74        68.74322
266.19        67.64816
266.65        66.51854
267.11        65.30273
267.56        64.24308
268.02        63.83496
268.47        64.06548
268.93         64.7481
269.38        65.42162
269.84        65.29756
270.30         64.2309
270.75         62.4598
271.21        60.47116
271.66         58.8601
272.12        57.85593
272.57        57.19018
273.03         56.7156
273.48        56.11622
273.94        55.35086
274.39        54.50051
274.85        53.63548
275.31        52.71669
275.76        51.74321
276.22        50.78598
276.67        49.84314
277.13        49.09712
277.58        48.46969
278.04        47.96507
278.49        47.45679
278.95        46.91642
279.40        46.25954
279.86        45.57488
280.31        44.80661
280.77        44.02533
281.22        43.18116
281.68        42.35883
282.13        41.51611
282.59        40.72464
283.04        39.95419
283.50           39.26
283.95        38.64209
284.41         38.1846
284.86        37.86541
285.32        37.66977
285.77        37.53689
286.22        37.44372
286.68        37.35947
287.13        37.25505
287.59        37.07561
288.04        36.69315
288.50        36.14946
288.95        35.46463
289.41        34.80976
289.86        34.32096
290.32         34.0593
290.77        33.95367
291.22        33.93308
291.68        33.87088
292.13        33.72757
292.59        33.57911
293.04        33.44324
293.50        33.40486
293.95        33.46583
294.40        33.60035
294.86         33.8124
295.31        34.12416
295.77        34.51791
296.22        34.97018
296.68        35.40816
297.13        35.69827
297.58        35.83343
298.04        35.86892
298.49         35.8759
298.95        36.01447
299.40        36.29994
299.85        36.68094
300.31        37.11453
300.76        37.52375
301.21        37.88542
301.67        38.23054
302.12        38.50921
302.58        38.67726
303.03        38.71624
303.48          38.667
303.94        38.63795
304.39         38.7173
304.84         38.9496
305.30        39.28993
305.75         39.6637
306.20        39.97953
306.66        40.20843
307.11        40.34727
307.57        40.41454
308.02        40.37665
308.47        40.25707
308.93        40.07194
309.38        39.83624
309.83        39.63131
310.29        39.48959
310.74          39.399
311.19        39.33945
311.65        39.25898
312.10        39.13981
312.55        38.99697
313.00        38.88518
313.46        38.88857
313.91        39.00491
314.36         39.1943
314.82        39.35162
315.27        39.32605
315.72        39.07901
316.18        38.67024
316.63        38.18789
317.08        37.77754
317.53        37.47907
317.99        37.25895
318.44        37.06859
318.89        36.83803
319.35        36.55263
319.80        36.24682
320.25        35.95908
320.70        35.73849
321.16         35.5906
321.61        35.50162
322.06        35.43925
322.51        35.36137
322.97        35.24351
323.42         35.1045
323.87        34.94836
324.32        34.79589
324.78        34.64703
325.23        34.50531
325.68        34.35003
326.13        34.15864
326.59        33.91943
327.04        33.65826
327.49        33.39037
327.94        33.15098
328.39        32.95221
328.85        32.77813
329.30         32.6332
329.75        32.48186
330.20        32.31718
330.66        32.14188
331.11        31.98327
331.56        31.84911
332.01         31.7436
332.46        31.65775
332.92        31.57646
333.37        31.51407
333.82        31.45724
334.27        31.41105
334.72        31.36627
335.17        31.30926
335.63        31.22738
336.08        31.13617
336.53        31.05404
336.98        31.02674
337.43        31.06126
337.88         31.1505
338.34        31.22563
338.79         31.1933
339.24        31.02534
339.69        30.74685
340.14        30.46269
340.59        30.34009
341.05         30.4034
341.50        30.60886
341.95        30.82571
342.40          30.842
342.85        30.61789
343.30        30.23956
343.75        29.83794
344.20         29.6115
344.66        29.61584
345.11        29.77598
345.56        30.03306
346.01        30.28568
346.46        30.47988
346.91        30.63343
347.36        30.72462
347.81        30.72165
348.26        30.62955
348.72        30.46797
349.17         30.2487
349.62        30.03963
350.07        29.86033
350.52        29.69012
350.97        29.55063
351.42        29.46614
351.87        29.43807
352.32        29.48106
352.77        29.50308
353.22        29.36084
353.67        29.04151
354.13        28.58932
354.58        28.16214
355.03        28.04247
355.48        28.27306
355.93        28.77584
356.38        29.30757
356.83         29.4588
357.28        29.14509
357.73        28.50854
358.18        27.83043
358.63        27.52863
359.08         27.6842
359.53        28.15034
359.98         28.7117
360.43        29.00506
360.88        28.92064
361.33        28.59092
361.78        28.14072
362.23        27.74607
362.68        27.46816
363.13        27.24269
363.58        27.07165
364.03        26.97215
364.48        26.92865
364.93        26.93828
365.38        26.94377
365.83         26.8426
366.28        26.61441
366.73        26.29327
367.18        25.91567
367.63        25.55242
368.08        25.24371
368.53        24.97945
368.98        24.78709
369.43        24.70252
369.88        24.71586
370.33        24.80809
370.78        24.91861
371.23        24.93793
371.68         24.8303
372.13        24.62471
372.58        24.35367
373.03        24.06913
373.48        23.79646
373.93        23.52865
374.38         23.2917
374.83         23.1303
375.28        23.05151
375.72        23.03868
376.17         23.0627
376.62        23.06693
377.07        23.02882
377.52        22.95704
377.97        22.84378
378.42        22.68141
378.87        22.48025
379.32        22.25133
379.77        22.02589
380.22        21.85167
380.67        21.74002
381.11        21.68044
381.56        21.65987
382.01        21.65822
382.46        21.66424
382.91        21.68339
383.36        21.69075
383.81        21.65132
384.26        21.55706
384.71        21.40584
385.15        21.23631
385.60        21.13279
386.05        21.10301
386.50        21.13261
386.95        21.15055
387.40         21.0462
387.85        20.81292
388.29        20.48272
388.74        20.18912
389.19        20.05746
389.64        20.10342
390.09        20.26651
390.54        20.45706
390.98         20.5288
391.43        20.45316
391.88        20.28951
392.33        20.08098
392.78        19.89538
393.23        19.75737
393.67        19.60993
394.12         19.4986
394.57        19.51156
395.02        19.61826
395.47        19.67502
395.91        19.65981
396.36         19.6422
396.81        19.62347
397.26        19.54909
397.71        19.43712
398.15        19.36476
398.60        19.36492
399.05        19.33157
399.50        19.28387
399.95        19.39349
400.39        19.59502
400.84        19.53911
401.29        19.24553
401.74        19.06208
402.18        19.01649
402.63        18.90362
403.08        18.74546
403.53        18.66356
403.97         18.6605
404.42        18.70741
404.87        18.75622
405.32        18.72852
405.76        18.60657
406.21        18.42527
406.66        18.23748
407.11        18.12773
407.55        18.12243
408.00         18.1974
408.45        18.31001
408.90        18.35828
409.34        18.32411
409.79         18.2755
410.24        18.23622
410.68        18.19898
411.13        18.17431
411.58        18.17313
412.03        18.17064
412.47        18.11856
412.92        18.00785
413.37        17.86257
413.81        17.72019
414.26         17.6478
414.71        17.65012
415.15        17.71394
415.60        17.78659
416.05        17.79902
416.49        17.73151
416.94        17.60376
417.39        17.45961
417.83        17.36853
418.28        17.34784
418.73        17.37409
419.17        17.41254
419.62        17.40062
420.07        17.33165
420.51        17.23152
420.96        17.14044
421.41        17.09371
421.85        17.09372
422.30        17.12475
422.74        17.18253
423.19        17.28108
423.64        17.40752
424.08        17.56725
424.53        17.68388
424.98        17.65337
425.42        17.46382
425.87        17.15754
426.31        16.83523
426.76        16.66419
427.21        16.67561
427.65        16.81557
428.10        17.02924
428.54        17.21346
428.99        17.33389
429.44        17.45236
429.88        17.51065
430.33        17.42836
430.77        17.21159
431.22        16.89997
431.66        16.61778
432.11        16.58821
432.56        16.78587
433.00        17.10875
433.45        17.34472
433.89         17.0788
434.34        16.33849
434.78        16.23682
435.23        16.85768
435.67        17.08109
436.12        16.91513
436.57        16.96548
437.01        17.22162
437.46        17.32685
437.90        17.25034
438.35        17.12105
438.79        16.97184
439.24        16.80886
439.68        16.68442
440.13        16.71132
440.57        16.83313
441.02        16.89053
441.46        16.86537
441.91        16.73142
442.35         16.5606
442.80        16.74183
443.24        17.14851
443.69        17.10182
444.13        16.65987
444.58        16.50041
445.02         16.6363
445.47        16.70109
445.91         16.6836
446.36        16.74063
446.80        16.86439
447.24        17.01027
447.69        17.14097
448.13        17.19814
448.58        17.17301
449.02        17.08453
449.47        16.97957
449.91        16.91845
450.36         16.9226
450.80        16.96851
451.25        17.02941
451.69        17.05019
452.13        17.01922
452.58          16.959
453.02        16.88281
453.47        16.82218
453.91        16.78421
454.36        16.76203
454.80        16.74959
455.24        16.73656
455.69        16.72251
456.13         16.7016
456.58        16.68779
457.02        16.67748
457.46        16.67558
457.91        16.68317
458.35        16.68461
458.79        16.63163
459.24        16.53065
459.68        16.43871
460.13         16.4157
460.57        16.21961
461.01        16.32918
461.46        16.37259
461.90        16.46406
462.34        16.48758
462.79        16.52052
463.23        16.49789
463.68        16.46981
464.12         16.4785
464.56        16.53234
465.01        16.63752
465.45        16.72583
465.89        16.72767
466.34        16.64102
466.78        16.48337
467.22        16.31943
467.67        16.29003
468.11        16.35465
468.55        16.53494
468.99        16.74412
469.44        16.87975
469.88        16.91684
470.32        16.88094
470.77        16.81176
471.21        16.77216
471.65        16.78226
472.10        16.82397
472.54        16.87159
472.98        16.89708
473.42        16.89543
473.87         16.8888
474.31        16.88299
474.75        16.90202
475.20        16.95372
475.64        17.01408
476.08        17.07226
476.52        17.15664
476.97        17.26942
477.41        17.32172
477.85        17.26895
478.29        17.52886
478.74        17.34699
479.18        17.31002
479.62        17.22971
480.06        17.26761
480.50        17.44115
480.95         17.3874
481.39        17.66274
481.83        17.71923
482.27        17.72825
482.72        17.70479
483.16        17.67485
483.60        17.70224
484.04         17.7872
484.48        17.85247
484.93        17.97058
485.37        18.20371
485.81        18.41014
486.25        18.67282
486.69        17.96609
487.14        17.54869
487.58        18.19076
488.02         18.6116
488.46        18.43185
488.90        18.64753
489.34        18.69731
489.79        18.54255
490.23        18.85287
490.67        19.04431
491.11        19.29741
491.55        19.36892
491.99        19.29705
492.43        19.34177
492.88        19.50881
493.32        19.62356
493.76        19.67875
494.20        19.77327
494.64        19.91613
495.08        20.05904
495.52        20.18499
495.96        20.34008
496.41        20.49984
496.85        20.49751
497.29        20.39767
497.73        20.55022
498.17        20.91541
498.61         21.0588
499.05        20.98287
499.49        21.04037
499.93        21.23778
500.37        21.37126
500.82        21.43494
501.26         21.5124
501.70        21.60544
502.14        21.69188
502.58        21.76152
503.02        21.79933
503.46        21.80641
503.90        21.79483
504.34        21.78984
504.78        21.82759
505.22        21.91687
505.66        22.04816
506.10        22.19452
506.54           22.31
506.98        22.38025
507.42        22.41578
507.86         22.4369
508.30        22.47646
508.74        22.54329
509.18        22.62755
509.62        22.71166
510.06        22.76787
510.50        22.78964
510.94        22.78653
511.38        22.77861
511.82        22.79699
512.26        22.84656
512.70        22.91375
513.14        22.97678
513.58        23.00233
514.02         22.9828
514.46        22.93229
514.90        22.86503
515.34        22.80298
515.78        22.75844
516.22        22.72998
516.66        22.72243
517.10        22.74189
517.54        22.78714
517.98        22.85421
518.42        22.93585
518.86        23.01854
519.30        23.09291
519.74        23.15576
520.18        23.19684
520.62        23.20465
521.06        23.17767
521.50        23.11813
521.93        23.04226
522.37        22.97177
522.81        22.91935
523.25        22.88763
523.69        22.86486
524.13        22.82913
524.57        22.77853
525.01        22.71932
525.45        22.67739
525.89        22.69338
526.32        22.76803
526.76        22.87896
527.20        22.98232
527.64        23.00914
528.08        22.94467
528.52        22.81693
528.96        22.65838
529.40        22.51938
529.83        22.41753
530.27        22.34601
530.71        22.30892
531.15        22.31757
531.59        22.36585
532.03         22.4463
532.46        22.52642
532.90        22.55696
533.34        22.52742
533.78        22.43552
534.22        22.30564
534.66         22.2159
535.09        22.15912
535.53        22.04859
535.97        21.90838
536.41        21.85431
536.85        21.89455
537.28        21.97515
537.72         22.0666
538.16        22.14213
538.60        22.18742
539.04        22.20545
539.47        22.21504
539.91        22.26105
540.35        22.34555
540.79        22.46473
541.22         22.5917
541.66        22.65047
542.10         22.6919
542.54          22.687
542.97        22.68563
543.41        22.75065
543.85        22.88942
544.29        23.08251
544.72        23.29177
545.16        23.47017
545.60        23.59966
546.04        23.69082
546.47        23.76627
546.91        23.86749
547.35        24.00407
547.79        24.15643
548.22        24.28424
548.66        24.38014
549.10        24.44224
549.53         24.3701
549.97        24.42321
550.41         24.5132
550.84        24.71516
551.28        25.00384
551.72        25.31861
552.15        25.53577
552.59           25.64
553.03        25.69696
553.46         25.7306
553.90        25.79407
554.34        25.90353
554.77        26.00153
555.21        26.05182
555.65        26.28195
556.08        26.19114
556.52        26.20897
556.96        26.20925
557.39        26.25056
557.83        26.34703
558.27        26.44288
558.70        26.52928
559.14        26.72228
559.57        26.77423
560.01        26.92433
560.45        27.04797
560.88        27.04114
561.32        26.96025
561.75        26.83701
562.19        26.76239
562.63        26.98944
563.06         27.4069
563.50        27.43387
563.93        27.12095
564.37        27.08058
564.80        27.31807
565.24        27.49393
565.68        27.57958
566.11        27.69337
566.55         27.8376
566.98        27.96676
567.42        28.09528
567.85        28.21775
568.29        28.33382
568.72        28.46041
569.16        28.63332
569.60        28.70131
570.03        28.62342
570.47        28.93135
570.90        29.05885
571.34        28.77636
571.77        29.09694
572.21        29.13059
572.64        29.24625
573.08        29.22686
573.51        29.71068
573.95        29.71338
574.38        29.73779
574.82        29.88881
575.25        29.98798
575.69        30.05846
576.12        30.01478
576.56        30.07931
576.99        30.19172
577.42         29.9517
577.86        30.13141
578.29        30.07436
578.73        30.08988
579.16        30.03333
579.60        29.67833
580.03        29.66171
580.47        30.01184
580.90        29.46253
581.33        29.64025
581.77        30.04155
582.20        29.60093
582.64        29.45073
583.07        29.38824
583.51        29.27661
583.94        29.26558
584.37        29.28288
584.81        29.30502
585.24        29.23044
585.68        29.12159
586.11        28.83419
586.54        28.85869
586.98        28.75035
587.41        28.67669
587.85        28.83499
588.28        28.60225
588.71        28.17476
589.15        28.53808
589.58        28.29818
590.01        28.36464
590.45        28.35327
590.88        28.43581
591.31         28.5226
591.75        28.59288
592.18        28.53186
592.61        28.31565
593.05        28.61141
593.48         28.5183
593.91        28.50069
594.35        28.57222
594.78        28.65056
595.21        28.80262
595.65        28.84222
596.08        28.79074
596.51        29.11468
596.94        29.19192
597.38        29.44952
597.81         29.7318
598.24        29.59178
598.68        30.04498
599.11        30.05192
599.54        30.64493
599.97        30.45284
600.41        31.04839
600.84        31.29791
601.27        31.54624
601.70        31.94783
602.14        32.25416
602.57         32.5132
603.00        32.65524
603.43        32.78396
603.87        33.10293
604.30        33.34922
604.73        33.61014
605.16        33.95697
605.60        34.35131
606.03        34.73269
606.46        35.00454
606.89        35.23563
607.32        35.43082
607.76        35.64998
608.19        35.87791
608.62        36.44796
609.05        36.85925
609.48        37.02964
609.92        36.92566
610.35        37.19585
610.78        37.84801
611.21        38.23619
611.64        38.35373
612.07        38.57323
612.50        38.90015
612.94        39.05543
613.37        39.07009
613.80        39.26403
614.23        39.30172
614.66        39.69814
615.09        39.72357
615.52        39.91137
615.96        40.11603
616.39        40.44542
616.82        40.79858
617.25        41.09546
617.68        41.27851
618.11        41.35484
618.54        41.35398
618.97        41.36142
619.40        41.44598
619.84        41.52977
620.27        41.61517
620.70        41.98515
621.13        42.60682
621.56        42.30928
621.99        42.26106
622.42        42.44106
622.85        42.64449
623.28        42.33184
623.71        42.55877
624.14        42.59996
624.57        42.75843
625.00        42.83026
625.43        42.81672
625.86        42.72927
626.29        42.54142
626.72        42.58348
627.15        42.34827
627.58        42.16383
628.01        41.92858
628.44        41.94398
628.87        42.11519
629.30        41.95105
629.73        41.50172
630.16        41.24809
630.59         41.1877
631.02        41.06869
631.45        40.85074
631.88         40.6008
632.31        40.31316
632.74        39.99271
633.17        39.64339
633.60        39.36221
634.03        39.14904
634.46        38.98846
634.89        38.82951
635.32        38.58681
635.75        38.24298
636.18         37.8287
636.61        37.39204
637.04        37.00727
637.47         36.6985
637.89        36.43774
638.32        36.18717
638.75        35.94389
639.18        35.70605
639.61        35.33772
640.04        35.12306
640.47        34.87129
640.90        34.66644
641.33        34.48542
641.76        34.31295
642.18        34.17423
642.61        34.06731
643.04        33.91838
643.47        33.70169
643.90        33.84996
644.33        33.63519
644.76        33.59334
645.18        33.53949
645.61        33.65455
646.04        33.88427
646.47        33.95057
646.90        33.87823
647.33        33.93599
647.75        34.13678
648.18        34.31948
648.61        34.47567
649.04        34.65572
649.47        34.85645
649.89        35.10829
650.32        35.38995
650.75        35.58923
651.18        35.73813
651.61        36.06738
652.03        36.55326
652.46        36.90218
652.89        37.14899
653.32        37.44105
653.74        37.79017
654.17        38.38755
654.60         38.9295
655.03        39.03241
655.46        38.58229
655.88        39.44292
656.31        43.45393
656.74        42.28442
657.16        39.21216
657.59        39.29298
658.02        40.73414
658.45         41.2843
658.87        41.68805
659.30        41.06001
659.73        41.74913
660.15        42.42357
660.58        42.20642
661.01        42.36932
661.44        42.54515
661.86        42.62225
662.29        42.68332
662.72        43.17208
663.14        43.97777
663.57        44.34248
664.00        44.25933
664.42        44.32253
664.85        44.55555
665.27        44.58376
665.70         44.4691
666.13        44.49376
666.55         44.6949
666.98        44.99129
667.41        45.32482
667.83        45.59261
668.26        45.75041
668.69        45.83972
669.11        45.89817
669.54        45.99857
669.96        46.15404
670.39        46.29538
670.82        46.42281
671.24        46.57086
671.67        46.73367
672.09        46.88371
672.52        47.01727
672.94        47.10399
673.37        47.14758
673.80        47.15614
674.22        47.16175
674.65        47.19265
675.07        47.27182
675.50        47.38356
675.92        47.52848
676.35        47.66945
676.77        47.79491
677.20        47.95774
677.62        48.16752
678.05        48.14349
678.47        48.33398
678.90        48.38555
679.32        48.43439
679.75        48.49104
680.17        48.56036
680.60        48.63865
681.02        48.73007
681.45        48.83247
681.87        48.94954
682.30        49.11107
682.72         49.2391
683.15        49.35392
683.57        49.43306
684.00        49.48479
684.42        49.52084
684.85         49.5719
685.27        49.63413
685.70        49.70316
686.12         49.7679
686.54        49.81118
686.97         49.8247
687.39        49.88356
687.82         49.9621
688.24        49.89701
688.66        49.75238
689.09        49.85239
689.51        50.18649
689.94        50.40382
690.36        50.48623
690.78        50.65071
691.21        50.90841
691.63        51.09307
692.06        51.24684
692.48        51.61978
692.90        52.10976
693.33        52.33579
693.75        52.25936
694.17        52.01055
694.60        51.74286
695.02        51.65885
695.44        51.75645
695.87        51.97261
696.29        52.20535
696.71        52.03007
697.14        51.62879
697.56        51.90688
697.98        52.74221
698.41        53.14973
698.83        53.07021
699.25        53.05407
699.68        53.15356
700.10        53.24977
700.52        53.35492
700.94        53.46398
701.37        53.56022
701.79        53.71906
702.21        53.87645
702.64        53.89297
703.06        53.80341
703.48        53.72214
703.90        53.65604
704.33         53.8967
704.75         53.7657
705.17        53.86391
705.59        53.98551
706.01        54.12279
706.44        54.26845
706.86        54.42265
707.28        54.56627
707.70         54.7477
708.12        54.92078
708.55        54.87706
708.97        54.67134
709.39        54.63126
709.81        54.76917
710.23        54.83887
710.66        54.83586
711.08        54.92875
711.50        55.09821
711.92        55.24242
712.34           55.35
712.76        55.45085
713.19        55.52363
713.61        55.57378
714.03        55.58858
714.45        55.56666
714.87        55.55261
715.29        55.61825
715.71        55.77617
716.13        56.01155
716.56        56.24635
716.98        56.41537
717.40        56.46716
717.82        56.42434
718.24        56.35972
718.66        56.39302
719.08        56.54857
719.50        56.78708
719.92        57.02678
720.34        57.13566
720.76        57.08408
721.19        56.91968
721.61        56.72575
722.03        56.62534
722.45        56.65917
722.87        56.79772
723.29        56.98949
723.71        57.14825
724.13        57.24089
724.55        57.28394
724.97        57.32884
725.39        57.42469
725.81        57.57443
726.23          57.816
726.65         58.0811
727.07        57.93903
727.49        57.89174
727.91        57.57752
728.33        57.27319
728.75        57.15837
729.17        57.27966
729.59        57.57012
730.01         57.9243
730.43        58.17157
730.85        58.25509
731.27        58.23648
731.69        58.15721
732.10        58.08162
732.52        58.04083
732.94        58.00457
733.36        58.00903
733.78        58.10026
734.20        58.26915
734.62        58.56513
735.04        58.90416
735.46        58.96629
735.88        58.81703
736.30        58.92076
736.72        59.21721
737.13        59.29494
737.55        59.12613
737.97        58.81885
738.39        58.53811
738.81        58.80003
739.23        59.47912
739.65        59.65451
740.06        59.30005
740.48        59.24822
740.90        59.48511
741.32        59.54379
741.74        59.41957
742.16        59.35805
742.57        59.37745
742.99        59.44168
743.41        59.56365
743.83        59.63881
744.25        59.71391
744.67        60.06216
745.08        60.57125
745.50        60.72891
745.92        60.49024
746.34        60.08627
746.75        59.66745
747.17        59.39334
747.59        59.30539
748.01        59.45908
748.42        59.75609
748.84        59.77452
749.26        59.57719
749.68        59.71426
750.09        60.13457
750.51        60.34415
750.93        60.31859
751.35        60.32692
751.76        60.40222
752.18        60.46972
752.60        60.54045
753.01        60.65152
753.43        60.75853
753.85        60.82538
754.27        60.84908
754.68        60.84283
755.10        60.84472
755.52        60.91493
755.93        61.04877
756.35        61.20185
756.77        61.34416
757.18        61.41949
757.60        61.43127
758.02        61.47698
758.43         61.4544
758.85        61.36993
759.26         60.8236
759.68        60.72385
760.10        60.96757
760.51        61.46526
760.93        61.97516
761.34        61.86249
761.76        61.50748
762.18        61.10314
762.59        60.95298
763.01         61.2249
763.42        61.81975
763.84        62.05693
764.26         61.8815
764.67        61.59363
765.09        61.36792
765.50        61.38804
765.92        61.62727
766.33        61.62449
766.75        61.33281
767.16        61.41867
767.58        61.70967
768.00        61.87576
768.41        61.93981
768.83        62.52551
769.24        63.43432
769.66        63.69404
770.07        63.33357
770.49        63.10958
770.90        63.11303
771.32        63.09399
771.73        63.02736
772.15        62.88935
772.56        62.69998
772.97        62.54678
773.39        62.47919
773.80        62.56329
774.22        62.77362
774.63        63.12551
775.05        63.47874
775.46        63.67256
775.88        63.63456
776.29        63.42677
776.70        63.15904
777.12        63.04402
777.53        63.14938
777.95        63.38666
778.36        63.65886
778.77        63.78012
779.19        63.71036
779.60        63.54017
780.02        63.32938
780.43        63.17491
780.84        63.15822
781.26        63.16791
781.67         63.1934
782.09          63.541
782.50        64.01206
782.91        63.58092
783.33        62.81327
783.74         62.5543
784.15        63.01088
784.57        63.52681
784.98        63.99823
785.39        64.47617
785.81        64.88616
786.22        65.03096
786.63        65.27483
787.04        65.26439
787.46        65.17131
787.87         65.0355
788.28        64.96118
788.70        64.99502
789.11        65.13165
789.52        65.45758
789.93        65.82851
790.35        65.86853
790.76        65.58676
791.17        65.26692
791.58        65.03654
792.00        64.86852
792.41        64.81296
792.82        64.99512
793.23         65.2782
793.65        65.26806
794.06        64.97683
794.47        64.71487
794.88        64.60008
795.29        64.60795
795.71        64.70578
796.12        65.05595
796.53        65.51912
796.94        65.70214
797.35        65.53731
797.76        65.29274
798.18        65.09243
798.59         64.9558
799.00        64.94086
799.41        65.06644
799.82        65.30659
800.23        65.58048
800.64        65.84911
801.06        66.11497
801.47        66.34216
801.88        66.37794
802.29        66.19611
802.70        65.83015
803.11         65.4298
803.52        65.16322
803.93        65.08908
804.34        65.32686
804.75        65.81194
805.17        65.63615
805.58         66.1552
805.99        65.99324
806.40        65.68546
806.81        66.10765
807.22        66.97684
807.63        66.62785
808.04        65.26935
808.45        64.73774
808.86        65.17574
809.27        65.58235
809.68        65.79014
810.09        65.97222
810.50         66.0641
810.91        66.03261
811.32        65.92015
811.73        65.79696
812.14        65.70152
812.55         65.6226
812.96        65.61596
813.37        65.76875
813.78        66.08064
814.19        66.51495
814.60        66.96544
815.01        67.26714
815.42        67.37957
815.83        67.34345
816.24        67.19586
816.65        67.02321
817.05        66.87637
817.46        66.71233
817.87        66.58677
818.28        66.53824
818.69        66.56441
819.10         66.6644
819.51        66.78201
819.92        66.80261
820.33        66.69505
820.74        66.49259
821.14        66.25111
821.55        66.08284
821.96        66.00923
822.37        66.02157
822.78        66.09913
823.19        66.19917
823.60        66.30882
824.00        66.45441
824.41        66.63168
824.82        66.93363
825.23        67.34859
825.64        67.81421
826.04        68.24015
826.45        68.41381
826.86        68.31019
827.27        67.99834
827.68        67.53284
828.08        67.02808
828.49        66.51781
828.90        65.99766
829.31        65.58064
829.72         65.4285
830.12         65.5946
830.53        66.02686
830.94        66.52311
831.35        66.66312
831.75        66.36629
832.16        65.70757
832.57        65.05182
832.97        64.95439
833.38        65.50598
833.79        66.52087
834.20        67.64182
834.60        68.25725
835.01        68.16576
835.42        67.58804
835.82        66.78798
836.23        66.16737
836.64        65.86822
837.04         65.7837
837.45        65.84566
837.86        66.00353
838.26        66.21857
838.67         66.4845
839.08        66.75403
839.48        66.90399
839.89        66.89458
840.29        66.75565
840.70        66.53282
841.11         66.2784
841.51        66.04489
841.92        65.80367
842.33         65.6575
842.73        65.77449
843.14        66.12972
843.54        66.72567
843.95        67.36357
844.35        67.76723
844.76        67.82497
845.17        67.59869
845.57        67.26305
845.98        67.09544
846.38        67.18201
846.79          67.424
847.19        67.67532
847.60        67.61383
848.00        67.19828
848.41        66.53921
848.81         65.8594
849.22        65.46197
849.62        65.43651
850.03        65.66319
850.43        66.01308
850.84        66.13235
851.24        65.98681
851.65        65.66232
852.05        65.33962
852.46        65.27248
852.86          65.501
853.27        65.90854
853.67         66.3747
854.07        66.92041
854.48         67.4615
854.88        68.09612
855.29        68.54251
855.69        68.51484
856.10        67.85677
856.50        66.77102
856.90        65.62129
857.31        64.93755
857.71        64.83437
858.12        65.12258
858.52        65.68213
858.92        66.07216
859.33          66.118
859.73        65.99419
860.13         65.6959
860.54        65.24818
860.94        64.70432
861.34        64.02676
861.75        63.40707
862.15        63.23569
862.55        63.57174
862.96        64.30276
863.36        65.14922
863.76        65.55444
864.17        65.38708
864.57        64.82894
864.97        64.15001
865.38        63.80969
865.78         63.9622
866.18         64.4304
866.58        65.05173
866.99        65.53423
867.39        65.78306
867.79        65.89397
868.19        65.84856
868.60        65.58332
869.00        65.11942
869.40        64.45898
869.80        63.83726
870.21        63.69879
870.61        64.18458
871.01        65.10564
871.41        66.07092
871.81        66.48069
872.22        66.19991
872.62        65.41712
873.02        64.43172
873.42        63.74301
873.82        63.53382
874.22        63.68915
874.63        64.06065
875.03        64.40718
875.43        64.64268
875.83        64.83701
876.23         65.1379
876.63        65.61446
877.03        66.23257
877.44        67.17303
877.84        68.28248
878.24         67.7049
878.64        67.84933
879.04        66.90606
879.44        65.90314
879.84        65.21585
880.24        64.97478
880.64        65.02215
881.04        65.24657
881.44        65.51414
881.84        65.75632
882.24        66.05909
882.65        66.28783
883.05        66.29998
883.45        66.03794
883.85         65.5154
884.25        65.03899
884.65        65.07748
885.05        65.70078
885.45        66.80252
885.85         67.9536
886.25        68.40476
886.65        67.97172
887.05        66.86465
887.45        65.63988
887.85         65.1759
888.25        65.66418
888.65        66.83327
889.04        68.12235
889.44        68.59837
889.84        68.06183
890.24        66.83766
890.64        65.46722
891.04         64.7193
891.44        64.77782
891.84         65.4231
892.24        66.26073
892.64        66.62981
893.04        66.35777
893.44         65.6644
893.83        64.96183
894.23        64.87495
894.63        65.49834
895.03        66.60814
895.43        67.77377
895.83        68.23347
896.23        67.79522
896.63        66.77817
897.02        65.55996
897.42         64.7659
897.82         64.4997
898.22        64.62162
898.62        65.02304
899.01        65.54991
899.41        66.05991
899.81        66.60314
900.21        67.19669
900.61        67.85297
901.00        68.52663
901.40        69.13596
901.80        69.50427
902.20        69.39555
902.59          68.815
902.99        67.88153
903.39        66.88363
903.79        66.28427
904.18        66.18831
904.58        66.46446
904.98        66.93356
905.38        67.31504
905.77        67.50631
906.17        67.63029
906.57        67.61124
906.96        67.33913
907.36        66.82706
907.76         66.1119
908.15        65.50411
908.55         65.4745
908.95        66.12095
909.34        67.30416
909.74        68.60927
910.14        69.41964
910.53        69.53967
910.93        69.13126
911.33        68.45206
911.72        67.92219
912.12        67.69498
912.52        67.64147
912.91        67.61637
913.31        67.38578
913.70        66.91615
914.10        66.33855
914.49        65.83157
914.89        65.61823
915.29        65.75474
915.68        66.15165
916.08        66.67598
916.47        67.12639
916.87        67.41382
917.26        67.57753
917.66        67.65412
918.05          67.709
918.45         67.7589
918.84        67.81224
919.24        67.83804
919.64         67.8632
920.03        67.91479
920.42        67.98508
920.82        68.09744
921.21        68.30666
921.61        68.57627
922.00        68.87716
922.40        69.12417
922.79        69.23285
923.19         69.1521
923.58        68.92725
923.98        68.54787
924.37        67.93747
924.77        67.15588
925.16        66.23993
925.55        65.40639
925.95        65.00143
926.34        65.14096
926.74        65.69136
927.13        66.52916
927.52        67.34376
927.92        67.99055
928.31        68.52806
928.70        68.89359
929.10        69.03029
929.49        68.96003
929.89        68.67641
930.28        68.27733
930.67        67.90497
931.07        67.61214
931.46        67.38116
931.85        67.25591
932.24        67.28582
932.64        67.45806
933.03        67.80402
933.42        68.12343
933.82        68.12022
934.21        67.74836
934.60        67.05979
934.99        66.39542
935.39        66.25582
935.78        66.76283
936.17        67.81308
936.56        68.92346
936.96        69.21021
937.35        68.50607
937.74        67.07247
938.13        65.58469
938.53        64.93635
938.92        65.25491
939.31        66.31828
939.70        67.62316
940.09        68.24439
940.49        67.91324
940.88        66.94371
941.27        65.83967
941.66        65.35535
942.05        65.66972
942.44         66.5428
942.84        67.59849
943.23        68.22947
943.62        68.18133
944.01         67.6958
944.40        67.04194
944.79        66.63109
945.18        66.58976
945.57        66.73846
945.97        67.00764
946.36        67.40808
946.75        67.85162
947.14        68.36685
947.53        68.75992
947.92        68.66952
948.31        68.04935
948.70        67.04151
949.09        65.97575
949.48        65.34712
949.87        65.29321
950.26         65.7075
950.65        66.42452
951.04        67.12585
951.43         67.6553
951.82        68.03785
952.21         68.3271
952.60        68.63637
952.99        68.95853
953.38        69.20359
953.77        69.20943
954.16        68.72443
954.55        67.77306
954.94        66.58619
955.33        65.39735
955.72        64.52657
956.11        64.08231
956.50        63.93392
956.89         64.1931
957.28        65.03447
957.66        66.44028
958.05        68.24026
958.44        69.85975
958.83        70.21155
959.22        69.08169
959.61        66.87881
960.00        64.42224
960.39        62.88366
960.78        62.53443
961.16        63.08144
961.55        64.11732
961.94        65.04098
962.33        65.59216
962.72        65.95541
963.11        66.11756
963.49        66.05755
963.88        65.77309
964.27        65.27039
964.66        64.69221
965.04         64.2757
965.43        64.06781
965.82        64.02892
966.21        64.14534
966.60         64.3544
966.98        64.61561
967.37        64.91608
967.76        65.17125
968.15        65.22688
968.53        65.05467
968.92        64.67229
969.31        64.19024
969.69        63.80408
970.08        63.52803
970.47        63.31561
970.86        63.11773
971.24        62.86077
971.63        62.50186
972.02        62.15106
972.40        61.80682
972.79        61.47404
973.17        61.20362
973.56        60.98484
973.95        60.93755
974.33        61.26123
974.72         61.9171
975.11          62.795
975.49        63.79543
975.88        64.67327
976.26         65.3446
976.65        65.82281
977.04        65.90327
977.42        65.25387
977.81        63.90633
978.19        61.96513
978.58        60.36619
978.96        60.29055
979.35        61.91044
979.74        64.98754
980.12        68.62041
980.51        70.38689
980.89        69.69162
981.28        67.06792
981.66        63.76767
982.05        61.93813
982.43        62.13332
982.82        63.71312
983.20         66.1358
983.59        68.27127
983.97        69.74927
984.35        70.86695
984.74        71.41502
985.12        71.18697
985.51        70.20398
985.89        68.41673
986.28         66.5194
986.66        65.52191
987.04        65.77275
987.43        67.05926
987.81        68.67126
988.20        69.14596
988.58        68.17031
988.96        66.04765
989.35        63.80515
989.73        63.06195
990.12        64.11371
990.50        66.48325
990.88        68.93318
991.27        69.46557
991.65        67.72575
992.03        64.44992
992.42        60.90977
992.80        58.78763
993.18        58.64378
993.56        59.89344
993.95        61.85623
994.33        63.64064
994.71        64.63898
995.10         65.1582
995.48        65.14632
995.86        64.50188
996.24        63.35805
996.63        61.74124
997.01        60.04652
997.39        58.87677
997.77        58.37108
998.15        58.44114
998.54        58.94518
998.92        59.53838
999.30        60.09015
999.68        60.70713
1000.06        61.34877
1000.45        61.91821
1000.83        62.49474
1001.21        62.92467
1001.59          63.304
1001.97        63.86638
1002.35        64.63261
1002.73        65.54387
1003.12        66.33014
1003.50         66.4859
1003.88        65.99975
1004.26        65.11639
1004.64        64.21443
1005.02        63.82717
1005.40        64.07119
1005.78        64.75024
1006.16        65.70516
1006.54        66.62679
1006.92        67.29615
1007.30        67.72694
1007.69         67.6929
1008.07        67.08366
1008.45        65.84476
1008.83        64.10943
1009.21        62.15447
1009.59        60.43981
1009.97        59.19395
1010.35         58.3999
1010.73        58.18112
1011.11         58.6842
1011.49        59.91132
1011.86        61.95534
1012.24        64.30281
1012.62        66.38735
1013.00        67.89764
1013.38        68.77874
1013.76        69.14407
1014.14        69.40627
1014.52        69.68378
1014.90        69.81394
1015.28        69.62495
1015.66        68.87591
1016.04        67.70652
1016.41         66.4916
1016.79        65.40171
1017.17        64.41357
1017.55         63.3837
1017.93        62.01673
1018.31        60.53378
1018.69        59.92006
1019.06        60.52657
1019.44        61.90055
1019.82        62.80552
1020.20        62.03078
1020.58        59.50761
1020.95        55.21607
1021.33         50.1142
1021.71        47.07521
1022.09        47.87942
1022.46        51.85905
1022.84        57.12569
1023.22         61.0479
1023.60        62.82417
1023.97        63.13091
1024.35        62.28704
1024.73        60.92067
