SpectraSmart Spectrum 2.9.0.0
--------- Device Information -----------
Spectrum Name :  反射率_0
Saving Time :  2024/05/01 16:56:27
Spectro-Module Model Name : SE2030-DUVN
Spectro-Module Serial Number : OS361AC55029948
Wavelength Start : 200
Wavelength End : 1025
Wavelength Unit : Wavelength(nm)
Spectrum Unit : Reflectance(%)
-----------Spectrum Setting ------------
Integration Time : 20ms
Average : 10
Boxcar : 0
Background removal :  enabled
linearity correction :  enabled
SC :  disabled
Intensity correction :  disabled
DWT denoise :  enabled
savitzky-golay :  disabled
FFT :  disabled
Running average :  disabled
Kalman :  disabled
High pass :  disabled
---------------BEGIN--------------------
Wavelength(nm)             Reflectance(%)
200.29               0
200.75        201.0895
201.21        867.2031
201.67       -373.7091
202.13       -143.7738
202.58       -71.66257
203.04       -31.32535
203.50       -7.394858
203.96        3.013702
204.42        2.729268
204.88         -15.217
205.34       -580.6564
205.80        115.2354
206.26         91.8609
206.72        106.6127
207.18        229.6472
207.64       -123.2715
208.10        5.481458
208.55          40.847
209.01        57.43353
209.47         62.2982
209.93        59.11835
210.39        50.26408
210.85        38.53097
211.31        25.70121
211.77      -0.7907525
212.23        172.7944
212.69         70.0452
213.14        78.72127
213.60        146.8064
214.06       -622.7062
214.52       -89.68684
214.98       -53.11152
215.44       -41.64801
215.90       -36.29349
216.36       -3.751644
216.81       -83.58372
217.27       -176.8083
217.73        460.5984
218.19        102.6233
218.65        67.36291
219.11        56.59517
219.57        49.54118
220.02        6.550304
220.48       -26.36343
220.94       -3.532307
221.40        7.018613
221.86        13.57301
222.32        20.17895
222.77        29.17161
223.23         42.8133
223.69        61.05593
224.15        72.22289
224.61        69.90662
225.06        61.67633
225.52        55.57054
225.98        54.85061
226.44        59.17278
226.90        67.86105
227.36        79.96206
227.81        87.99195
228.27        87.57814
228.73        83.16336
229.19        78.88042
229.65        77.09942
230.10        77.65154
230.56        79.72831
231.02        82.73347
231.48        84.94038
231.93        85.13915
232.39        84.49849
232.85        83.42857
233.31        82.26122
233.77        81.20428
234.22        80.16847
234.68        79.44503
235.14        79.32892
235.60        79.90371
236.05        81.42439
236.51        83.81504
236.97        86.70441
237.43        89.10551
237.88        90.45234
238.34        90.38389
238.80        89.84875
239.26        89.01923
239.71        87.83212
240.17        84.25332
240.63        75.59211
241.08          63.255
241.54        51.99834
242.00        45.68879
242.46        44.87082
242.91        49.43905
243.37        60.57818
243.83        82.14182
244.28        104.7664
244.74        108.6817
245.20        100.7811
245.66        90.79229
246.11        81.47623
246.57        70.93449
247.03        54.85951
247.48         28.1344
247.94        -6.41458
248.40       -33.83412
248.85       -47.85206
249.31       -42.52472
249.77       -21.99007
250.22        2.190413
250.68        24.22095
251.14        40.09918
251.59        48.47828
252.05        51.38203
252.51        49.32745
252.96        39.11084
253.42        27.45626
253.88        38.24721
254.33        56.01336
254.79        65.57173
255.25        69.82703
255.70        71.68022
256.16        73.34972
256.62        74.26057
257.07        73.86291
257.53        73.25777
257.99        72.49908
258.44        71.98225
258.90        72.65607
259.35        73.94323
259.81        75.80786
260.27        77.44414
260.72        77.83761
261.18        77.32205
261.63        76.05868
262.09        74.88538
262.55        74.16801
263.00        73.79152
263.46        73.72694
263.91        73.57535
264.37        73.32143
264.83        72.84707
265.28        72.22248
265.74        71.61264
266.19        70.85075
266.65         70.0946
267.11        69.27575
267.56        68.53172
268.02        68.21257
268.47        68.28849
268.93        68.61237
269.38        68.91399
269.84        68.71346
270.30        67.91396
270.75        66.65204
271.21        65.15498
271.66        63.61964
272.12        62.21675
272.57         60.8278
273.03        59.57707
273.48        58.55296
273.94        57.81214
274.39        57.29354
274.85        56.87974
275.31        56.26052
275.76        55.37148
276.22        54.38038
276.67        53.38303
277.13        52.70749
277.58        52.28464
278.04        52.04574
278.49        51.77552
278.95        51.33186
279.40        50.60626
279.86        49.75714
280.31        48.77309
280.77        47.79446
281.22        46.79061
281.68        45.83039
282.13        44.88638
282.59        44.06479
283.04        43.32129
283.50        42.70122
283.95        42.14576
284.41        41.64927
284.86        41.18235
285.32        40.78221
285.77        40.44004
286.22        40.21307
286.68        40.08864
287.13        40.00102
287.59         39.9007
288.04        39.66545
288.50        39.31199
288.95        38.84031
289.41        38.34858
289.86        37.86052
290.32        37.43832
290.77        37.05738
291.22        36.72991
291.68        36.45845
292.13        36.23536
292.59        36.09169
293.04        36.01897
293.50         36.0609
293.95        36.19054
294.40        36.39213
294.86        36.62227
295.31        36.82769
295.77        36.98608
296.22         37.0979
296.68        37.17221
297.13        37.19808
297.58        37.20349
298.04        37.22371
298.49        37.26901
298.95        37.39949
299.40        37.60527
299.85        37.85855
300.31        38.18677
300.76         38.6153
301.21        39.12918
301.67        39.71655
302.12        40.21299
302.58        40.40247
303.03        40.23814
303.48        39.82429
303.94        39.40595
304.39        39.26176
304.84        39.46784
305.30        39.91693
305.75        40.42041
306.20        40.70801
306.66        40.72023
307.11        40.53015
307.57        40.25863
308.02         40.0191
308.47        39.86694
308.93         39.7583
309.38        39.65322
309.83        39.55156
310.29        39.45391
310.74         39.3744
311.19        39.29017
311.65        39.14252
312.10        38.92244
312.55        38.64672
313.00         38.4025
313.46        38.32943
313.91         38.4385
314.36        38.67746
314.82        38.91734
315.27        38.96273
315.72        38.75869
316.18        38.37542
316.63        37.90672
317.08        37.50753
317.53        37.22262
317.99         37.0144
318.44        36.83572
318.89         36.6218
319.35        36.35881
319.80        36.07899
320.25        35.82205
320.70        35.63903
321.16        35.53086
321.61        35.47795
322.06        35.43661
322.51        35.34552
322.97        35.17991
323.42        34.97416
323.87        34.73909
324.32        34.50706
324.78        34.28887
325.23        34.08418
325.68        33.90591
326.13        33.78284
326.59        33.70547
327.04        33.68389
327.49        33.65835
327.94        33.53778
328.39        33.30016
328.85         32.9549
329.30        32.59071
329.75        32.32385
330.20        32.19124
330.66        32.15593
331.11        32.16349
331.56        32.08076
332.01        31.87594
332.46        31.59147
332.92        31.28709
333.37        31.09711
333.82        31.04693
334.27         31.1035
334.72          31.216
335.17        31.29869
335.63        31.30639
336.08        31.27395
336.53        31.22558
336.98        31.21646
337.43        31.26015
337.88        31.34178
338.34        31.40012
338.79        31.35938
339.24        31.20001
339.69        30.95211
340.14         30.7175
340.59        30.65435
341.05        30.78252
341.50        31.05382
341.95        31.34647
342.40        31.46232
342.85        31.35835
343.30        31.11421
343.75        30.82224
344.20        30.62526
344.66        30.57004
345.11        30.59433
345.56         30.7023
346.01        30.89495
346.46        31.14348
346.91        31.44446
347.36        31.69375
347.81        31.73227
348.26        31.54186
348.72        31.17642
349.17        30.75371
349.62        30.51003
350.07        30.49706
350.52        30.64196
350.97        30.82737
351.42        30.85409
351.87        30.67694
352.32        30.38544
352.77        30.04222
353.22        29.74012
353.67        29.51514
354.13         29.3309
354.58        29.21341
355.03        29.24519
355.48        29.42271
355.93        29.73833
356.38        30.04245
356.83        30.07888
357.28        29.80644
357.73        29.30598
358.18        28.79952
358.63        28.62415
359.08        28.83498
359.53          29.315
359.98        29.85589
360.43        30.10284
360.88        29.95595
361.33        29.54201
361.78        29.00709
362.23        28.56079
362.68        28.27214
363.13        28.07685
363.58        27.95157
364.03         27.8686
364.48         27.8011
364.93         27.7524
365.38        27.70445
365.83        27.61626
366.28        27.47593
366.73        27.30016
367.18        27.05922
367.63        26.71634
368.08        26.29537
368.53        25.82545
368.98        25.42414
369.43        25.26329
369.88         25.3587
370.33         25.6456
370.78        25.98477
371.23        26.12489
371.68        25.98446
372.13         25.6418
372.58        25.17879
373.03        24.72095
373.48        24.32152
373.93        23.94968
374.38        23.64338
374.83        23.46863
375.28        23.43144
375.72        23.51582
376.17        23.65063
376.62        23.70974
377.07        23.65628
377.52        23.51187
377.97        23.31587
378.42        23.13875
378.87        23.00432
379.32        22.89713
379.77        22.79361
380.22        22.65851
380.67        22.48813
381.11        22.30149
381.56        22.14002
382.01        22.07248
382.46        22.10891
382.91        22.22223
383.36        22.34247
383.81        22.36546
384.26        22.26567
384.71        22.06853
385.15        21.83224
385.60        21.67094
386.05        21.60507
386.50        21.60706
386.95        21.61584
387.40         21.5384
387.85        21.36343
388.29        21.11468
388.74        20.89536
389.19        20.78393
389.64        20.79115
390.09        20.87473
390.54        20.97413
390.98         20.9916
391.43        20.91271
391.88        20.77883
392.33        20.62115
392.78        20.49139
393.23        20.40518
393.67        20.30772
394.12        20.23471
394.57        20.26003
395.02         20.3502
395.47        20.36034
395.91        20.28514
396.36         20.2261
396.81        20.19437
397.26        20.12993
397.71         20.0395
398.15        19.98348
398.60        19.98939
399.05        19.94929
399.50        19.89664
399.95        20.02802
400.39         20.2786
400.84        20.28383
401.29        20.03204
401.74        19.83234
402.18        19.70566
402.63         19.4573
403.08        19.16744
403.53        19.04669
403.97        19.11311
404.42        19.30985
404.87        19.53039
405.32        19.60363
405.76        19.48757
406.21        19.24363
406.66        18.96886
407.11         18.8188
407.55        18.83831
408.00        18.97969
408.45        19.16579
408.90        19.23475
409.34        19.15539
409.79        19.02617
410.24        18.90126
410.68        18.81259
411.13        18.78164
411.58        18.80359
412.03        18.84657
412.47        18.85024
412.92        18.79356
413.37        18.70174
413.81          18.597
414.26         18.5238
414.71        18.48679
415.15        18.48305
415.60        18.48017
416.05        18.44602
416.49        18.37494
416.94        18.27736
417.39        18.19417
417.83        18.18823
418.28        18.26706
418.73        18.40247
419.17        18.53861
419.62        18.58151
420.07         18.5162
420.51        18.37595
420.96        18.21803
421.41        18.10405
421.85        18.05092
422.30        18.04749
422.74        18.08688
423.19        18.17848
423.64        18.30809
424.08        18.47833
424.53        18.63212
424.98         18.6961
425.42        18.65472
425.87        18.53363
426.31        18.37123
426.76        18.24277
427.21        18.16487
427.65        18.11158
428.10        18.10495
428.54          18.175
428.99        18.31884
429.44        18.55001
429.88        18.74762
430.33        18.74398
430.77        18.52825
431.22        18.17634
431.66        17.83064
432.11        17.75964
432.56        17.95146
433.00        18.22809
433.45        18.40547
433.89        18.25084
434.34        17.71836
434.78        17.70601
435.23        18.30747
435.67        18.51629
436.12        18.34564
436.57        18.31687
437.01        18.43546
437.46        18.42451
437.90        18.27576
438.35         18.1024
438.79        17.94325
439.24        17.80843
439.68        17.74588
440.13        17.87352
440.57        18.11332
441.02        18.25651
441.46        18.27072
441.91        18.13986
442.35        17.94704
442.80        18.11724
443.24        18.52131
443.69         18.4362
444.13        17.94154
444.58        17.77554
445.02         17.9547
445.47        18.09282
445.91        18.14288
446.36        18.21435
446.80        18.29102
447.24        18.34102
447.69        18.37686
448.13        18.42038
448.58        18.47348
449.02        18.52166
449.47        18.55352
449.91        18.53718
450.36        18.47554
450.80        18.38281
451.25        18.27213
451.69        18.14929
452.13        18.02728
452.58        17.91076
453.02        17.82003
453.47        17.79725
453.91        17.84245
454.36        17.94591
454.80        18.06247
455.24        18.11755
455.69        18.09708
456.13        18.00896
456.58        17.90759
457.02          17.854
457.46        17.86691
457.91        17.92654
458.35        17.98653
458.79        17.94715
459.24        17.80647
459.68        17.65035
460.13        17.56177
460.57        17.30894
461.01        17.41058
461.46         17.4564
461.90        17.57111
462.34        17.63771
462.79        17.73414
463.23        17.78974
463.68        17.82753
464.12        17.84213
464.56        17.83824
465.01          17.844
465.45        17.83073
465.89        17.78648
466.34        17.71901
466.78        17.62664
467.22        17.54893
467.67        17.58378
468.11        17.66778
468.55        17.83904
468.99        18.01775
469.44        18.11529
469.88        18.11331
470.32        18.03268
470.77        17.91577
471.21        17.83245
471.65        17.80589
472.10        17.82016
472.54        17.85017
472.98        17.86634
473.42         17.8616
473.87        17.85686
474.31        17.85295
474.75        17.86779
475.20        17.90758
475.64        17.94902
476.08        17.98319
476.52        18.04411
476.97        18.13709
477.41        18.16969
477.85        18.09717
478.29        18.36017
478.74        18.16768
479.18        18.13046
479.62        18.05247
480.06        18.10424
480.50        18.30152
480.95         18.2637
481.39         18.5618
481.83        18.59859
482.27        18.55532
482.72        18.46224
483.16         18.3697
483.60        18.37533
484.04        18.48719
484.48        18.61394
484.93        18.82084
485.37        19.13198
485.81         19.3989
486.25        19.71235
486.69        19.10571
487.14        18.59064
487.58        18.99372
488.02        19.49103
488.46        19.37502
488.90        19.61895
489.34         19.3077
489.79         19.1944
490.23        19.58693
490.67        19.80104
491.11        19.93122
491.55        19.90727
491.99         19.7896
492.43        19.80075
492.88        19.95707
493.32        20.09176
493.76         20.1844
494.20        20.31143
494.64        20.47511
495.08        20.62924
495.52        20.75814
495.96        20.91781
496.41        21.08557
496.85         21.0759
497.29        20.95582
497.73        21.11179
498.17        21.49263
498.61        21.59753
499.05         21.4477
499.49        21.48158
499.93        21.71153
500.37        21.89012
500.82        21.99601
501.26        22.10487
501.70        22.21256
502.14        22.30151
502.58        22.36647
503.02        22.40134
503.46        22.41021
503.90        22.39854
504.34        22.39989
504.78        22.46439
505.22        22.60012
505.66        22.79463
506.10        22.99312
506.54        23.10362
506.98        23.10516
507.42        23.02427
507.86         22.9227
508.30        22.89739
508.74        22.97268
509.18        23.12234
509.62        23.29416
510.06        23.40101
510.50        23.41989
510.94        23.37825
511.38        23.32539
511.82        23.33926
512.26        23.43511
512.70        23.58006
513.14        23.72677
513.58        23.80368
514.02        23.79319
514.46        23.72385
514.90        23.62411
515.34        23.53863
515.78        23.48686
516.22        23.45672
516.66        23.45232
517.10        23.47965
517.54        23.53442
517.98         23.6157
518.42        23.70184
518.86        23.75409
519.30        23.76264
519.74         23.7354
520.18         23.6897
520.62        23.65735
521.06        23.64539
521.50        23.64034
521.93         23.6371
522.37        23.62161
522.81        23.59309
523.25        23.56409
523.69        23.52441
524.13        23.45501
524.57        23.36005
525.01        23.24645
525.45        23.15348
525.89        23.14389
526.32        23.22258
526.76        23.36088
527.20        23.50493
527.64        23.56697
528.08        23.52529
528.52        23.41357
528.96        23.26135
529.40        23.11549
529.83         22.9953
530.27        22.89347
530.71        22.82838
531.15        22.83516
531.59        22.91089
532.03        23.04114
532.46        23.17243
532.90        23.22084
533.34        23.16895
533.78        23.02668
534.22        22.83917
534.66        22.71654
535.09        22.65927
535.53        22.56924
535.97        22.45939
536.41        22.43049
536.85        22.48436
537.28        22.56973
537.72        22.66159
538.16           22.74
538.60         22.7924
539.04        22.81988
539.47         22.8337
539.91        22.86878
540.35        22.92638
540.79        23.00592
541.22        23.09632
541.66        23.14552
542.10        23.20915
542.54        23.24926
542.97        23.29257
543.41         23.3654
543.85        23.46843
544.29        23.59477
544.72        23.73164
545.16        23.87116
545.60        24.00493
546.04        24.13251
546.47         24.2569
546.91          24.387
547.35        24.52431
547.79        24.66034
548.22        24.77083
548.66        24.87359
549.10        24.97076
549.53        24.94725
549.97        25.05446
550.41         25.1806
550.84        25.39598
551.28        25.68372
551.72        25.98589
552.15        26.18166
552.59          26.262
553.03        26.29512
553.46        26.31555
553.90        26.39324
554.34        26.54542
554.77        26.70602
555.21        26.82641
555.65        27.12156
556.08         27.0677
556.52        27.11365
556.96        27.12602
557.39        27.16269
557.83        27.24048
558.27        27.30021
558.70        27.35133
559.14        27.54377
559.57        27.62671
560.01        27.83939
560.45        28.02288
560.88        28.02134
561.32         27.8868
561.75        27.66977
562.19        27.50047
562.63        27.69361
563.06        28.14653
563.50        28.24426
563.93        28.00449
564.37        28.00892
564.80        28.25225
565.24        28.40007
565.68        28.44361
566.11         28.5366
566.55        28.69115
566.98        28.84915
567.42        29.01398
567.85        29.17079
568.29        29.32745
568.72        29.46793
569.16        29.62242
569.60        29.75156
570.03        29.83394
570.47         29.9166
570.90         30.2514
571.34        29.95962
571.77        30.26426
572.21        30.32228
572.64        30.50905
573.08        30.47469
573.51        30.74196
573.95        31.13464
574.38        30.99065
574.82        31.22915
575.25        31.46677
575.69        31.49677
576.12        31.30428
576.56        31.42745
576.99        31.62353
577.42        31.51391
577.86        31.67769
578.29        31.55761
578.73        31.70696
579.16        31.30863
579.60        31.04269
580.03        30.86205
580.47        31.08973
580.90        30.83723
581.33        31.24951
581.77        31.57319
582.20        31.37392
582.64         30.9033
583.07         30.9258
583.51        30.63958
583.94        30.46622
584.37        30.42937
584.81        30.50528
585.24        30.46903
585.68        30.36272
586.11        30.01565
586.54        30.12107
586.98        29.98854
587.41        29.78996
587.85        29.94941
588.28        29.90493
588.71        29.33207
589.15         29.8743
589.58        29.33632
590.01        29.51427
590.45        29.45831
590.88         29.5518
591.31        29.65019
591.75        29.71153
592.18        29.67255
592.61        29.50331
593.05        29.73777
593.48        29.53092
593.91        29.67225
594.35        29.62094
594.78         29.7034
595.21         29.8267
595.65        29.92866
596.08        29.98655
596.51        30.28314
596.94        30.21818
597.38        30.44543
597.81        30.83423
598.24        30.65864
598.68         31.2328
599.11        31.31034
599.54        31.80433
599.97         31.8632
600.41        32.18982
600.84        32.65351
601.27        32.85954
601.70        33.36171
602.14        33.74359
602.57        34.07758
603.00         34.2957
603.43        34.46612
603.87        34.87489
604.30        35.15614
604.73        35.42616
605.16        35.75532
605.60        36.13269
606.03          36.573
606.46        36.94904
606.89        37.29689
607.32        37.46272
607.76        37.74142
608.19        38.07548
608.62        38.75656
609.05        39.22444
609.48        39.42371
609.92         39.3734
610.35        39.44936
610.78        40.45159
611.21        40.89746
611.64        41.01244
612.07        41.28333
612.50        41.72736
612.94        41.89641
613.37        42.02098
613.80        42.19521
614.23        42.29755
614.66        42.74754
615.09        42.82476
615.52        43.03018
615.96        43.15885
616.39        43.74813
616.82        44.00378
617.25        44.39976
617.68        44.66132
618.11        44.75935
618.54        44.73434
618.97        44.76674
619.40        44.93841
619.84        45.08533
620.27        45.20585
620.70        45.65247
621.13        46.37539
621.56        46.07767
621.99        46.00031
622.42        46.16281
622.85        46.31669
623.28        46.04883
623.71        46.06878
624.14        46.48563
624.57         46.4053
625.00        46.53346
625.43        46.53129
625.86        46.41836
626.29        46.18607
626.72        46.15891
627.15        45.94826
627.58         45.8003
628.01        45.60721
628.44        45.54079
628.87         45.5449
629.30        45.26731
629.73        44.93143
630.16        44.64788
630.59        44.47508
631.02        44.28795
631.45        44.07713
631.88        43.74139
632.31        43.50784
632.74        43.18046
633.17         42.8346
633.60         42.4712
634.03         42.0951
634.46        41.70559
634.89         41.3031
635.32        40.89592
635.75         40.4898
636.18        40.08923
636.61        39.69748
637.04        39.31503
637.47        38.94489
637.89        38.58256
638.32        38.21321
638.75        37.87526
639.18        37.58168
639.61        37.17331
640.04        36.94247
640.47        36.68089
640.90        36.47107
641.33        36.29187
641.76        36.12182
642.18        35.97597
642.61        35.85009
643.04        35.66943
643.47        35.41142
643.90        35.53914
644.33        35.29264
644.76        35.23438
645.18        35.17595
645.61        35.31358
646.04        35.59209
646.47        35.72069
646.90        35.71296
647.33        35.82904
647.75        36.07487
648.18        36.28606
648.61        36.46829
649.04        36.67536
649.47        36.90145
649.89        37.24162
650.32        37.65143
650.75        37.79512
651.18        37.76848
651.61        38.24036
652.03        39.13634
652.46        39.53043
652.89        39.47506
653.32        39.83837
653.74        40.68502
654.17        41.12391
654.60        41.53988
655.03        41.98153
655.46        41.98907
655.88        42.88839
656.31        48.04686
656.74        47.77173
657.16        43.95819
657.59        43.31892
658.02        44.09034
658.45        44.49878
658.87        45.34843
659.30        44.81402
659.73         45.3861
660.15        46.16234
660.58        46.27168
661.01        46.52594
661.44        46.57441
661.86        46.85742
662.29        47.34589
662.72        47.75156
663.14        48.04657
663.57        48.27444
664.00        48.46692
664.42        48.67695
664.85         48.9228
665.27        49.14416
665.70         49.3396
666.13        49.53598
666.55        49.74253
666.98        49.94819
667.41        50.16297
667.83        50.40143
668.26        50.65041
668.69        50.90274
669.11        51.15306
669.54        51.41291
669.96        51.67086
670.39        51.87581
670.82        52.03019
671.24        52.17493
671.67        52.31338
672.09        52.41058
672.52        52.49516
672.94         52.5884
673.37        52.70499
673.80        52.84203
674.22        52.98365
674.65        53.10566
675.07        53.22235
675.50        53.26871
675.92        53.27165
676.35        53.60298
676.77        53.73666
677.20        54.06842
677.62        54.38828
678.05        54.61291
678.47        54.71925
678.90         54.7609
679.32        54.76853
679.75        54.79428
680.17        54.85111
680.60        54.91642
681.02        55.03112
681.45        55.20882
681.87        55.44638
682.30        55.85013
682.72         56.3071
683.15        56.30097
683.57        55.94127
684.00        55.95992
684.42        56.33412
684.85         56.4711
685.27        56.34517
685.70         56.3773
686.12        56.55676
686.54        56.57109
686.97        56.46394
687.39        56.63958
687.82        57.01003
688.24         57.0465
688.66        56.79616
689.09         56.8032
689.51        57.11275
689.94        57.35264
690.36        57.52185
690.78        57.84887
691.21        58.30457
691.63          58.634
692.06        58.86193
692.48        59.29186
692.90        59.81784
693.33        60.02263
693.75        59.88097
694.17        59.54377
694.60        59.19426
695.02        59.09893
695.44        59.26293
695.87        59.53653
696.29        59.82106
696.71        59.80963
697.14        59.62428
697.56        59.95176
697.98        60.68306
698.41        61.00618
698.83        60.90096
699.25        60.90366
699.68        61.05146
700.10        61.17262
700.52        61.27412
700.94        61.39544
701.37        61.53884
701.79        61.79148
702.21        62.08444
702.64        62.24197
703.06        62.25913
703.48        62.24047
703.90        62.19204
704.33        62.28993
704.75        62.13073
705.17        62.20221
705.59        62.37353
706.01        62.68956
706.44        63.12793
706.86        63.19956
707.28         63.5714
707.70         63.7634
708.12        63.94925
708.55        63.86205
708.97        63.59374
709.39        63.57483
709.81        63.80179
710.23        63.91782
710.66        63.90901
711.08        64.01985
711.50        64.22788
711.92        64.39484
712.34        64.51486
712.76         64.6125
713.19        64.67181
713.61        64.77034
714.03        64.90697
714.45        64.84416
714.87        64.99852
715.29        65.11626
715.71        65.31535
716.13        65.57777
716.56        65.82097
716.98        65.96405
717.40        65.95669
717.82        65.86276
718.24         65.7558
718.66        65.72907
719.08        65.81181
719.50        65.98619
719.92         66.1871
720.34        66.29892
720.76        66.29327
721.19        66.20846
721.61        66.10452
722.03         66.0657
722.45        66.12337
722.87        66.26202
723.29        66.43926
723.71        66.58127
724.13        66.65315
724.55        66.69054
724.97        66.76732
725.39        66.89039
725.81        67.04562
726.23         67.6475
726.65        67.81982
727.07        67.89513
727.49        67.64442
727.91         67.2627
728.33        66.91354
728.75        66.78596
729.17         66.9455
729.59        67.34974
730.01         67.8595
730.43         68.2029
730.85        68.30613
731.27        68.25872
731.69        68.09824
732.10        67.99474
732.52          68.016
732.94        67.88633
733.36        67.60462
733.78        68.30148
734.20        68.23626
734.62         68.6932
735.04        69.31271
735.46        69.40752
735.88        69.12551
736.30        69.02563
736.72        69.16432
737.13         69.2409
737.55        69.19632
737.97        69.05882
738.39        68.91045
738.81        69.01471
739.23        69.35869
739.65        69.65166
740.06        69.77898
740.48        69.89809
740.90        69.96423
741.32        69.89692
741.74        69.74141
742.16        69.61214
742.57         69.5418
742.99        69.58866
743.41        69.75174
743.83        69.78009
744.25        69.76853
744.67        70.25623
745.08        71.08301
745.50        71.39481
745.92        71.11536
746.34        70.65564
746.75        70.18292
747.17        69.83951
747.59        69.69215
748.01        69.74479
748.42        69.94009
748.84        70.10689
749.26        70.24886
749.68        70.43554
750.09        70.66142
750.51        71.03831
750.93        71.43926
751.35        71.41748
751.76        71.06774
752.18        70.95969
752.60        71.14855
753.01        71.33998
753.43        71.45665
753.85        71.55316
754.27        71.61898
754.68        71.65778
755.10        71.70323
755.52        71.80178
755.93         71.9443
756.35         72.0812
756.77        72.19083
757.18        72.28785
757.60        72.39835
758.02        72.54244
758.43        72.48566
758.85        72.77767
759.26        71.50609
759.68        71.51189
760.10        72.39752
760.51        73.05776
760.93        73.36696
761.34        72.93935
761.76        73.24098
762.18        72.51308
762.59        71.64581
763.01        71.54935
763.42        73.12415
763.84        73.57758
764.26        73.08212
764.67        72.52664
765.09        72.24718
765.50        72.42516
765.92        72.96297
766.33        73.17227
766.75        72.92323
767.16        72.76955
767.58         72.7917
768.00        72.90586
768.41        73.23537
768.83        73.80562
769.24        74.87041
769.66        75.19672
770.07        74.91621
770.49         74.3691
770.90        73.84679
771.32          73.978
771.73        74.62172
772.15         74.7651
772.56        74.36257
772.97        74.08186
773.39        74.00597
773.80        73.98163
774.22         73.9957
774.63        74.14555
775.05        74.34135
775.46        74.50037
775.88        74.56755
776.29        74.59848
776.70        74.60685
777.12         74.6498
777.53        74.74532
777.95        74.82042
778.36        74.90082
778.77        74.95274
779.19        74.96846
779.60        75.14981
780.02        75.36286
780.43        75.05072
780.84        74.42906
781.26        74.24399
781.67        74.54387
782.09        75.15419
782.50        75.73409
782.91        75.33645
783.33        74.27928
783.74        74.03818
784.15        74.71474
784.57        75.58401
784.98        76.52898
785.39        76.51443
785.81        77.38486
786.22        77.31249
786.63        77.36166
787.04        77.19463
787.46        77.03364
787.87        76.79848
788.28         76.6071
788.70        76.63042
789.11        76.85269
789.52        77.31477
789.93        77.81967
790.35        77.90496
790.76        77.57203
791.17        77.15546
791.58        76.81628
792.00        76.58356
792.41        76.54183
792.82        76.72746
793.23        77.01803
793.65        77.26007
794.06        77.34556
794.47        77.04583
794.88        76.60353
795.29         76.5687
795.71        76.91692
796.12        77.60352
796.53        78.35161
796.94        78.45448
797.35        77.87585
797.76        77.39703
798.18        77.21073
798.59        77.01337
799.00        76.88187
799.41        77.06561
799.82        77.50401
800.23        77.91868
800.64         78.2342
801.06        78.50338
801.47        78.70717
801.88        78.70251
802.29        78.47673
802.70        78.04488
803.11        77.55163
803.52        77.24989
803.93        77.22916
804.34        77.44411
804.75        77.77999
805.17        78.14162
805.58        78.52927
805.99        78.52709
806.40         78.2649
806.81        78.93885
807.22        80.12574
807.63        79.54917
808.04        77.55774
808.45        76.75793
808.86        77.37504
809.27        77.98779
809.68        78.36942
810.09        78.77619
810.50        79.10316
810.91         79.2906
811.32        79.33232
811.73        79.22115
812.14         78.9853
812.55        78.63439
812.96        78.31111
813.37         78.2576
813.78        78.52499
814.19        79.04817
814.60         79.6498
815.01        80.04433
815.42        80.15775
815.83        80.06237
816.24        79.84229
816.65        79.66959
817.05         79.6172
817.46        79.59902
817.87        79.61636
818.28         79.6289
818.69        79.61715
819.10        79.60571
819.51        79.58678
819.92        79.53226
820.33        79.44236
820.74        79.32676
821.14        79.19734
821.55        79.10545
821.96        79.05159
822.37        79.04039
822.78        79.08302
823.19        79.19093
823.60        79.36481
824.00        79.62035
824.41        79.89091
824.82        80.18815
825.23        80.48582
825.64        80.75053
826.04        80.97935
826.45        81.09019
826.86        81.09568
827.27        81.01925
827.68        80.83117
828.08        80.50465
828.49        80.02806
828.90        79.44914
829.31        78.92703
829.72        78.69823
830.12        78.85294
830.53        79.30138
830.94        79.86253
831.35        80.14528
831.75        80.05974
832.16        79.66067
832.57         79.2449
832.97          79.264
833.38        79.77858
833.79        80.61489
834.20        81.47604
834.60        81.86644
835.01        81.62357
835.42        80.96642
835.82        80.09235
836.23        79.29199
836.64        78.69274
837.04        78.22797
837.45        77.96138
837.86        78.06722
838.26        78.55418
838.67        79.34248
839.08         80.1814
839.48        80.61382
839.89        80.51247
840.29        79.99493
840.70         79.3197
841.11        78.87894
841.51        78.80462
841.92        78.96336
842.33        79.26155
842.73        79.54901
843.14        79.71482
843.54        79.87473
843.95        80.00471
844.35        80.14531
844.76        80.26541
845.17        80.31877
845.57        80.33533
845.98        80.36494
846.38        80.43858
846.79        80.55222
847.19        80.61945
847.60        80.39557
848.00         79.8943
848.41        79.17921
848.81        78.54958
849.22         78.4444
849.62         78.9519
850.03        79.90213
850.43        80.97101
850.84        81.42326
851.24        81.13467
851.65        80.27791
852.05        79.24965
852.46        78.68005
852.86        78.73623
853.27        79.20306
853.67        79.84022
854.07        80.53374
854.48        81.14554
854.88        81.85915
855.29        82.36152
855.69        82.35838
856.10        81.66882
856.50        80.47764
856.90        79.22952
857.31         78.5983
857.71        78.71973
858.12        79.37882
858.52        80.31979
858.92        80.80145
859.33        80.57154
859.73        79.89467
860.13        79.00849
860.54        78.31557
860.94        77.95335
861.34        77.78646
861.75        77.74931
862.15        77.80716
862.55        77.89995
862.96        78.04362
863.36         78.2235
863.76        78.30727
864.17        78.25986
864.57        78.11475
864.97        77.90514
865.38        77.70834
865.78        77.58323
866.18        77.48825
866.58        77.41407
866.99        77.34547
867.39        77.32507
867.79        77.36703
868.19        77.43031
868.60        77.41882
869.00        77.31068
869.40        77.11201
869.80        76.97452
870.21        77.16649
870.61        77.77408
871.01        78.63338
871.41        79.38814
871.81        79.51629
872.22        78.92038
872.62        77.76468
873.02        76.43819
873.42        75.58521
873.82        75.40801
874.22        75.76598
874.63        76.34554
875.03        76.62656
875.43         76.4865
875.83        76.08788
876.23        75.74377
876.63         75.9407
877.03        76.75739
877.44        77.96829
877.84        79.22154
878.24        79.88965
878.64        79.80734
879.04         79.1925
879.44        78.35618
879.84        77.76476
880.24        77.56054
880.64         77.6088
881.04        77.81628
881.44        78.03015
881.84        78.19028
882.24        78.36605
882.65        78.51443
883.05        78.65686
883.45        78.74208
883.85        78.75217
884.25        78.73582
884.65        78.78687
885.05        78.93328
885.45        79.16249
885.85        79.41756
886.25        79.60149
886.65        79.66634
887.05        79.59951
887.45        79.48027
887.85         79.4322
888.25        79.47982
888.65        79.61942
889.04        79.66417
889.44        79.29629
889.84        78.51113
890.24        77.42239
890.64        76.42252
891.04        76.06777
891.44        76.45016
891.84        77.43575
892.24        78.55062
892.64        78.97659
893.04        78.52242
893.44        77.42741
893.83        76.27697
894.23        75.98383
894.63        76.69884
895.03        78.14178
895.43        79.71932
895.83        80.35827
896.23        79.78805
896.63        78.44012
897.02        76.87048
897.42        75.97146
897.82        75.88325
898.22        76.37767
898.62        77.21184
899.01         78.0093
899.41         78.5451
899.81        78.94842
900.21        79.33731
900.61        79.89268
901.00        80.62929
901.40        81.40521
901.80        81.99097
902.20        82.07475
902.59        81.62717
902.99        80.78191
903.39        79.84451
903.79        79.29553
904.18        79.24681
904.58        79.57925
904.98        80.06664
905.38        80.36366
905.77        80.37112
906.17        80.23108
906.57         79.9986
906.96         79.7774
907.36        79.60389
907.76        79.43943
908.15         79.3861
908.55        79.57228
908.95         80.0165
909.34        80.68479
909.74        81.35034
910.14        81.71886
910.53        81.69803
910.93        81.36394
911.33        80.87018
911.72        80.46722
912.12        80.25471
912.52        80.16534
912.91        80.10587
913.31        79.90858
913.70         79.5601
914.10        79.15198
914.49        78.81719
914.89         78.7262
915.29        78.91665
915.68        79.31013
916.08         79.8082
916.47        80.27393
916.87        80.62904
917.26        80.89624
917.66        81.05312
918.05        81.06676
918.45        80.94004
918.84        80.71958
919.24        80.45874
919.64        80.35516
920.03        80.47576
920.42         80.7457
920.82        81.08902
921.21        81.40137
921.61        81.60072
922.00        81.71488
922.40        81.69671
922.79        81.56144
923.19        81.31369
923.58        80.98704
923.98        80.58366
924.37        80.02098
924.77        79.35938
925.16        78.62772
925.55        78.04736
925.95        77.95237
926.34        78.43477
926.74        79.32854
927.13        80.43278
927.52        81.31972
927.92        81.82973
928.31        82.06958
928.70        82.07128
929.10        81.93942
929.49        81.75763
929.89        81.47487
930.28        81.16356
930.67        80.90743
931.07        80.71426
931.46        80.57041
931.85        80.48012
932.24        80.42842
932.64        80.40657
933.03        80.49278
933.42          80.509
933.82        80.19541
934.21        79.54517
934.60        78.62012
934.99        77.87384
935.39        77.97414
935.78        79.06341
936.17        80.97802
936.56         83.0295
936.96        83.93098
937.35         83.3606
937.74        81.65534
938.13        79.66979
938.53        78.55506
938.92        78.50755
939.31        79.26303
939.70        80.27934
940.09        80.57311
940.49        79.90112
940.88        78.65399
941.27        77.41616
941.66        77.03951
942.05        77.70892
942.44        79.12407
942.84        80.81499
943.23        82.03008
943.62        82.40419
944.01         82.1962
944.40        81.63422
944.79        81.09219
945.18        80.73515
945.57        80.41942
945.97        80.24036
946.36         80.4665
946.75        81.07288
947.14        82.03122
947.53        83.01785
947.92        83.41312
948.31        83.06521
948.70        82.17023
949.09        81.11495
949.48        80.49261
949.87        80.48566
950.26        80.96572
950.65        81.74858
951.04        82.49886
951.43        83.05276
951.82        83.42802
952.21        83.75057
952.60         84.2374
952.99        84.88039
953.38        85.55989
953.77        85.91568
954.16        85.35716
954.55        83.85361
954.94        81.76283
955.33        79.61953
955.72        78.20422
956.11        77.72898
956.50        77.92994
956.89        78.69096
957.28         79.8048
957.66         81.1478
958.05        82.65428
958.44        83.88525
958.83        83.98936
959.22        82.84943
959.61        80.78783
960.00        78.57262
960.39        77.32256
960.78        77.27482
961.16        78.14514
961.55        79.50697
961.94         80.7255
962.33        81.51732
962.72        82.06658
963.11        82.28999
963.49        82.06727
963.88        81.39952
964.27        80.36178
964.66        79.26719
965.04         78.5742
965.43        78.35728
965.82        78.50424
966.21        78.87323
966.60        79.14758
966.98         79.2241
967.37        79.19257
967.76        79.04696
968.15        78.75376
968.53        78.34776
968.92        77.78057
969.31        77.28463
969.69        77.25912
970.08        77.70929
970.47        78.53759
970.86        79.34439
971.24        79.41422
971.63        78.51456
972.02        76.96142
972.40        75.20727
972.79        73.96635
973.17         73.4614
973.56        73.50641
973.95        73.91968
974.33        74.43899
974.72        74.89401
975.11        75.30867
975.49        75.81785
975.88         76.5731
976.26        77.62052
976.65         78.7838
977.04        79.56903
977.42        79.20375
977.81        77.63722
978.19        75.16283
978.58        72.93002
978.96        72.40365
979.35        73.84331
979.74         76.9183
980.12        80.78622
980.51        83.06306
980.89        83.14371
981.28        81.53859
981.66        79.24136
982.05        77.98251
982.43        78.22461
982.82        79.33217
983.20        81.11238
983.59        83.04925
983.97         84.9187
984.35        86.85114
984.74        88.13967
985.12        87.76363
985.51        85.62184
985.89        81.99754
986.28        78.19795
986.66        76.20201
987.04        76.61646
987.43        78.92332
987.81        81.99313
988.20        83.60281
988.58        83.14314
988.96        81.09388
989.35        78.61482
989.73        77.55118
990.12        78.31085
990.50        80.35786
990.88        82.46095
991.27        82.67632
991.65        80.68951
992.03        77.25478
992.42        73.75013
992.80        71.98984
993.18        72.51405
993.56         74.6558
993.95        77.45525
994.33        79.55734
994.71        80.21489
995.10        79.90643
995.48        78.82541
995.86        77.28284
996.24        75.60374
996.63        73.71779
997.01        72.10479
997.39        71.49903
997.77        72.00251
998.15        73.50285
998.54        75.48666
998.92        76.94418
999.30        77.49237
999.68        77.32034
1000.06        76.78592
1000.45        76.54299
1000.83        76.94134
1001.21        77.67664
1001.59        78.45679
1001.97        78.82334
1002.35        78.62321
1002.73        78.02495
1003.12        77.29432
1003.50         76.7737
1003.88        76.60367
1004.26        76.71206
1004.64        76.85532
1005.02        76.65275
1005.40        76.06959
1005.78        75.26129
1006.16        74.57879
1006.54         74.6342
1006.92        75.52859
1007.30          76.935
1007.69        78.41402
1008.07        79.52048
1008.45        79.95464
1008.83        79.91109
1009.21        79.28761
1009.59        77.91743
1009.97        75.94419
1010.35        73.50775
1010.73        71.31768
1011.11        70.59911
1011.49        71.75613
1011.86        74.74799
1012.24        78.70883
1012.62        82.34202
1013.00        84.96349
1013.38        86.58016
1013.76         87.4513
1014.14        88.30003
1014.52        89.31102
1014.90        90.21392
1015.28        90.25183
1015.66        88.34355
1016.04        84.81105
1016.41        80.65287
1016.79        77.15563
1017.17        75.21318
1017.55        74.69483
1017.93         75.1815
1018.31        76.32101
1018.69         76.9051
1019.06        76.28574
1019.44        75.22498
1019.82        73.81158
1020.20        71.78526
1020.58         69.0488
1020.95        65.25496
1021.33        61.29686
1021.71        59.84116
1022.09        62.26639
1022.46        67.78465
1022.84        74.22939
1023.22        78.70023
1023.60        80.42672
1023.97        80.25359
1024.35        78.40349
1024.73        75.52248
