SpectraSmart Spectrum 2.9.0.0
--------- Device Information -----------
Spectrum Name :  反射率_0
Saving Time :  2024/05/01 17:22:44
Spectro-Module Model Name : SE2030-DUVN
Spectro-Module Serial Number : OS361AC55029948
Wavelength Start : 200
Wavelength End : 1025
Wavelength Unit : Wavelength(nm)
Spectrum Unit : Reflectance(%)
-----------Spectrum Setting ------------
Integration Time : 20ms
Average : 10
Boxcar : 0
Background removal :  enabled
linearity correction :  enabled
SC :  disabled
Intensity correction :  disabled
DWT denoise :  enabled
savitzky-golay :  disabled
FFT :  disabled
Running average :  disabled
Kalman :  disabled
High pass :  disabled
---------------BEGIN--------------------
Wavelength(nm)             Reflectance(%)
200.29               0
200.75        416.6898
201.21        1552.317
201.67       -591.1092
202.13       -212.1772
202.58       -103.4769
203.04        -45.1001
203.50       -12.39167
203.96        -1.74412
204.42       -11.58082
204.88       -69.93441
205.34        -1678.72
205.80        269.6471
206.26        170.8727
206.72        128.0004
207.18        64.86035
207.64        148.7973
208.10        86.83704
208.55         57.9283
209.01        36.36342
209.47        22.37748
209.93        13.11757
210.39        3.085923
210.85       -9.500559
211.31       -30.91537
211.77       -101.1517
212.23        432.6996
212.69        114.3723
213.14        115.3728
213.60        221.8005
214.06       -1053.687
214.52       -177.2859
214.98       -124.3858
215.44       -122.1544
215.90       -166.1349
216.36       -957.9265
216.81        253.0667
217.27        285.8208
217.73       -646.3511
218.19       -160.5898
218.65       -134.6637
219.11       -166.1693
219.57       -300.0321
220.02       -830.6282
220.48       -394.8621
220.94       -113.4919
221.40       -44.77174
221.86       -20.48906
222.32       -9.195643
222.77       -1.254684
223.23        6.912948
223.69        16.33656
224.15        22.63499
224.61        22.75219
225.06        19.62029
225.52        17.17025
225.98        17.38902
226.44        20.17863
226.90        25.23042
227.36        31.75419
227.81        35.07238
228.27        33.13841
228.73        29.15509
229.19        25.41691
229.65        22.78774
230.10        20.96618
230.56        19.58674
231.02        18.94876
231.48        20.01745
231.93        22.63079
232.39        25.88064
232.85        29.00613
233.31        31.54403
233.77        33.47383
234.22        34.96778
234.68        35.90276
235.14         36.2615
235.60        36.08902
236.05         35.2872
236.51        33.94452
236.97        32.88655
237.43        32.79169
237.88         33.7216
238.34        34.68047
238.80        34.36982
239.26        32.11796
239.71         27.4919
240.17        19.38848
240.63        9.041661
241.08        1.338129
241.54       -1.131208
242.00       0.2090895
242.46        2.746895
242.91        6.434156
243.37        12.13644
243.83        23.92864
244.28        42.86375
244.74        55.16851
245.20        58.23452
245.66        56.01244
246.11        50.70646
246.57         42.0122
247.03        26.84076
247.48        1.386862
247.94       -27.68746
248.40       -45.15787
248.85       -48.53974
249.31       -37.49028
249.77       -19.79526
250.22       -3.112719
250.68        10.63621
251.14        19.56868
251.59        22.66653
252.05        20.37261
252.51        9.935106
252.96       -18.26718
253.42       -57.58342
253.88        -48.6475
254.33       -5.346837
254.79        20.75495
255.25        30.93194
255.70        34.48444
256.16        36.10872
256.62        37.92654
257.07        41.11539
257.53        45.16264
257.99        48.95499
258.44        51.79855
258.90        53.55373
259.35        54.17334
259.81        54.30585
260.27        54.06351
260.72        53.62022
261.18        53.29924
261.63        52.78628
262.09        52.26926
262.55        51.60608
263.00        50.72297
263.46        49.81318
263.91         48.8002
264.37        47.86238
264.83        46.97058
265.28        46.11935
265.74        45.32208
266.19        44.35246
266.65        43.30846
267.11        42.17899
267.56        41.19297
268.02         40.7975
268.47        40.99127
268.93         41.5847
269.38        42.18462
269.84        42.10492
270.30        41.21898
270.75        39.74026
271.21        38.05709
271.66        36.64091
272.12        35.69186
272.57        35.01014
273.03        34.52686
273.48        34.07841
273.94        33.62657
274.39        33.21525
274.85        32.82317
275.31        32.33905
275.76        31.75051
276.22        31.12534
276.67         30.5009
277.13        30.04583
277.58        29.71844
278.04        29.49218
278.49        29.27686
278.95        29.05018
279.40        28.74243
279.86        28.41404
280.31        27.99518
280.77        27.47736
281.22        26.83994
281.68        26.16768
282.13        25.49958
282.59        24.96985
283.04        24.57675
283.50        24.32764
283.95        24.17833
284.41        24.10836
284.86        24.07896
285.32        24.09147
285.77        24.13649
286.22        24.23774
286.68        24.38853
287.13        24.55529
287.59         24.6682
288.04        24.57963
288.50        24.30712
288.95        23.87669
289.41        23.46508
289.86        23.24845
290.32        23.28047
290.77        23.49684
291.22         23.7735
291.68        23.90905
292.13        23.86566
292.59        23.74315
293.04        23.65067
293.50        23.80663
293.95         24.2354
294.40        24.85882
294.86        25.57333
295.31         26.2336
295.77        26.77532
296.22        27.22863
296.68        27.60058
297.13        27.88894
297.58        28.12533
298.04         28.3352
298.49        28.54558
298.95        28.84048
299.40        29.22083
299.85         29.6599
300.31        30.16909
300.76        30.75672
301.21        31.40582
301.67         32.1141
302.12        32.74481
302.58        33.11442
303.03         33.1785
303.48        33.01904
303.94        32.84174
304.39        32.88704
304.84        33.22171
305.30        33.75529
305.75        34.32531
306.20        34.69574
306.66        34.81339
307.11        34.74147
307.57        34.58829
308.02        34.45876
308.47        34.40238
308.93        34.38169
309.38         34.3531
309.83        34.30545
310.29        34.23689
310.74        34.16142
311.19        34.07407
311.65         33.9454
312.10        33.77289
312.55        33.56871
313.00        33.38474
313.46        33.30478
313.91         33.3314
314.36        33.42683
314.82        33.51994
315.27        33.50894
315.72         33.3562
316.18        33.09874
316.63        32.75692
317.08        32.36979
317.53        31.95867
317.99        31.52254
318.44        31.08423
318.89        30.69829
319.35        30.38581
319.80        30.14489
320.25        29.95814
320.70        29.78251
321.16        29.59708
321.61         29.4165
322.06         29.2429
322.51        29.08696
322.97        28.94299
323.42        28.80909
323.87        28.66826
324.32        28.50916
324.78        28.32178
325.23        28.11743
325.68        27.89772
326.13        27.67197
326.59        27.43525
327.04        27.20009
327.49        26.94928
327.94        26.66382
328.39        26.34403
328.85        25.99263
329.30        25.65243
329.75        25.36566
330.20         25.1462
330.66         24.9761
331.11        24.83999
331.56        24.68069
332.01        24.48271
332.46        24.26347
332.92        24.02822
333.37        23.81526
333.82        23.62973
334.27        23.46824
334.72        23.34157
335.17        23.27281
335.63        23.25074
336.08        23.26936
336.53        23.30795
336.98        23.34402
337.43        23.36252
337.88        23.37348
338.34        23.31998
338.79        23.12755
339.24        22.79196
339.69        22.34248
340.14        21.91582
340.59        21.72757
341.05        21.80877
341.50        22.09789
341.95        22.43426
342.40        22.55192
342.85        22.38816
343.30        22.03916
343.75        21.62387
344.20        21.32811
344.66        21.21171
345.11        21.19937
345.56        21.27588
346.01         21.4142
346.46        21.57982
346.91        21.77877
347.36        21.93454
347.81        21.92645
348.26        21.74294
348.72        21.42909
349.17        21.06244
349.62        20.81288
350.07        20.72186
350.52        20.73646
350.97        20.80151
351.42        20.81907
351.87        20.76045
352.32        20.67579
352.77         20.5542
353.22        20.37601
353.67         20.1543
354.13        19.89278
354.58        19.67154
355.03        19.64815
355.48        19.84028
355.93        20.20838
356.38         20.5957
356.83        20.73328
357.28        20.56703
357.73        20.18857
358.18        19.78108
358.63        19.62158
359.08        19.76282
359.53        20.10159
359.98         20.5049
360.43        20.74798
360.88        20.75414
361.33        20.60349
361.78         20.3448
362.23        20.04365
362.68        19.73895
363.13        19.41341
363.58        19.11715
364.03        18.94049
364.48        18.89744
364.93        18.96354
365.38        19.07367
365.83         19.1166
366.28        19.05911
366.73        18.93033
367.18        18.74859
367.63        18.55119
368.08        18.36255
368.53        18.17538
368.98        18.01231
369.43        17.90758
369.88        17.86113
370.33        17.86169
370.78        17.88269
371.23        17.87323
371.68        17.81443
372.13        17.71983
372.58        17.59158
373.03         17.4331
373.48        17.25256
373.93        17.05239
374.38        16.86112
374.83        16.72795
375.28        16.66632
375.72        16.66335
376.17        16.69099
376.62        16.70203
377.07        16.67727
377.52        16.61944
377.97        16.53846
378.42        16.45205
378.87        16.36625
379.32        16.28142
379.77        16.17722
380.22        16.02307
380.67        15.82084
381.11        15.58692
381.56        15.37722
382.01        15.28439
382.46        15.32789
382.91        15.48189
383.36        15.66267
383.81        15.74345
384.26        15.68974
384.71        15.52205
385.15        15.32047
385.60        15.23087
386.05        15.27463
386.50        15.41552
386.95        15.53432
387.40        15.44971
387.85        15.14901
388.29        14.69977
388.74         14.2927
389.19        14.14447
389.64         14.2834
390.09         14.6143
390.54        14.99099
390.98        15.17775
391.43        15.11744
391.88        14.90424
392.33         14.6155
392.78        14.36374
393.23        14.18948
393.67        14.03201
394.12        13.92849
394.57        13.94994
395.02        14.07074
395.47        14.18627
395.91        14.26145
396.36        14.30831
396.81        14.31826
397.26        14.25882
397.71        14.14879
398.15        14.05762
398.60        14.01619
399.05        13.94295
399.50        13.86296
399.95        13.91367
400.39        14.04896
400.84        14.02024
401.29        13.82175
401.74        13.66712
402.18        13.56946
402.63        13.39307
403.08        13.19175
403.53        13.11002
403.97        13.15833
404.42         13.2951
404.87        13.43982
405.32        13.46313
405.76        13.33579
406.21        13.10724
406.66         12.8566
407.11        12.71086
407.55        12.70631
408.00        12.80414
408.45        12.94524
408.90         13.0076
409.34        12.96342
409.79         12.8798
410.24        12.79159
410.68        12.71603
411.13        12.66925
411.58        12.65243
412.03        12.64743
412.47        12.62089
412.92        12.56469
413.37        12.49204
413.81        12.42845
414.26        12.42059
414.71        12.46864
415.15        12.56332
415.60        12.65006
416.05         12.6544
416.49        12.55929
416.94         12.3882
417.39        12.20273
417.83        12.10136
418.28        12.10611
418.73        12.18375
419.17        12.27931
419.62        12.29627
420.07        12.21742
420.51        12.07813
420.96        11.92759
421.41        11.81901
421.85        11.76648
422.30        11.75399
422.74        11.77547
423.19        11.83489
423.64        11.92127
424.08        12.03913
424.53        12.14043
424.98        12.16167
425.42        12.09085
425.87        11.95164
426.31        11.78775
426.76         11.6821
427.21         11.6503
427.65        11.66632
428.10        11.72307
428.54        11.80416
428.99        11.89607
429.44        12.02227
429.88         12.1189
430.33        12.09302
430.77        11.94116
431.22        11.70598
431.66        11.47634
432.11        11.41386
432.56        11.50482
433.00        11.67477
433.45        11.79406
433.89        11.60924
434.34        11.13888
434.78        11.12973
435.23        11.62085
435.67        11.80414
436.12        11.67323
436.57        11.66037
437.01        11.77202
437.46        11.78937
437.90        11.70391
438.35        11.59638
438.79        11.49053
439.24        11.39386
439.68        11.33742
440.13        11.39422
440.57        11.51405
441.02        11.56419
441.46         11.5279
441.91        11.39684
442.35        11.22776
442.80        11.29463
443.24        11.51297
443.69        11.42422
444.13        11.08293
444.58        10.96014
445.02        11.06567
445.47        11.15438
445.91        11.19461
446.36        11.25184
446.80        11.31433
447.24         11.3609
447.69         11.3977
448.13        11.43826
448.58         11.4833
449.02        11.52546
449.47        11.55666
449.91        11.55599
450.36        11.52551
450.80        11.47246
451.25        11.41133
451.69        11.35554
452.13        11.31252
452.58        11.28175
453.02        11.25958
453.47        11.24844
453.91        11.24512
454.36        11.25226
454.80         11.2621
455.24        11.25782
455.69        11.23844
456.13        11.19971
456.58        11.16346
457.02        11.14752
457.46          11.159
457.91        11.19304
458.35         11.2235
458.79        11.19186
459.24        11.09937
459.68        10.99253
460.13        10.93122
460.57        10.77937
461.01        10.86292
461.46        10.92587
461.90        11.02946
462.34        11.06864
462.79        11.08792
463.23        11.04936
463.68        11.00477
464.12        11.01045
464.56        11.07756
465.01        11.19903
465.45        11.30518
465.89         11.3142
466.34        11.22153
466.78        11.04845
467.22        10.86784
467.67        10.82498
468.11        10.90361
468.55        11.10212
468.99         11.3275
469.44        11.45614
469.88        11.46035
470.32        11.37635
470.77        11.25783
471.21        11.18862
471.65         11.1966
472.10        11.25269
472.54        11.33159
472.98        11.40357
473.42        11.45696
473.87        11.51077
474.31        11.55267
474.75        11.57384
475.20        11.57818
475.64        11.55696
476.08        11.53074
476.52         11.5631
476.97        11.66627
477.41        11.77161
477.85        11.82165
478.29        12.05929
478.74        11.95592
479.18        11.92532
479.62         11.8631
480.06         11.9223
480.50        12.11875
480.95        12.17669
481.39         12.4585
481.83        12.54135
482.27         12.5419
482.72        12.49123
483.16        12.42006
483.60        12.41507
484.04        12.49126
484.48        12.53369
484.93        12.61728
485.37         12.9397
485.81        13.29958
486.25        13.55034
486.69         12.7274
487.14        12.42123
487.58        13.06629
488.02        13.45609
488.46        13.22307
488.90        13.47468
489.34         13.2081
489.79        13.17685
490.23        13.63118
490.67        13.92979
491.11        14.15157
491.55        14.16294
491.99        14.03317
492.43        14.04779
492.88        14.22844
493.32        14.36631
493.76        14.45228
494.20        14.59771
494.64        14.80622
495.08        15.02818
495.52        15.22839
495.96        15.41064
496.41        15.54993
496.85        15.52091
497.29        15.40335
497.73        15.52846
498.17         15.8705
498.61        16.04707
499.05        16.04141
499.49        16.13241
499.93        16.31933
500.37        16.43161
500.82        16.47854
501.26        16.55561
501.70        16.67092
502.14        16.79745
502.58        16.91344
503.02        16.98668
503.46        17.01426
503.90        17.01337
504.34        17.01896
504.78        17.08347
505.22        17.21737
505.66        17.40132
506.10        17.59735
506.54        17.74278
506.98        17.81747
507.42        17.83895
507.86        17.82903
508.30        17.82191
508.74        17.83297
509.18        17.85735
509.62        17.89207
510.06        17.93291
510.50        17.97802
510.94        18.02732
511.38        18.09102
511.82        18.18307
512.26        18.29813
512.70        18.42457
513.14        18.52684
513.58        18.55154
514.02        18.49187
514.46        18.36986
514.90        18.22602
515.34        18.12708
515.78        18.09465
516.22        18.11051
516.66        18.16073
517.10        18.22032
517.54        18.27646
517.98        18.33678
518.42         18.3867
518.86        18.40094
519.30        18.37646
519.74        18.31747
520.18        18.24764
520.62        18.20837
521.06        18.20793
521.50        18.23253
521.93        18.26472
522.37        18.26989
522.81         18.2408
523.25        18.19209
523.69        18.12874
524.13         18.0563
524.57        17.98368
525.01        17.91255
525.45        17.85883
525.89        17.84894
526.32        17.88315
526.76        17.94463
527.20        18.01615
527.64        18.06799
528.08        18.08852
528.52        18.09002
528.96        18.05849
529.40        17.97362
529.83        17.84012
530.27        17.67157
530.71        17.52001
531.15        17.47289
531.59        17.54198
532.03        17.69551
532.46        17.86357
532.90        17.93415
533.34        17.88115
533.78        17.73019
534.22        17.53079
534.66        17.38841
535.09        17.31129
535.53        17.21704
535.97        17.11826
536.41        17.09708
536.85        17.15468
537.28         17.2535
537.72        17.36329
538.16        17.45016
538.60         17.5003
539.04        17.51768
539.47        17.52548
539.91         17.5742
540.35        17.66913
540.79        17.80323
541.22        17.94835
541.66        18.03276
542.10        18.09279
542.54        18.10651
542.97        18.11903
543.41        18.18941
543.85        18.32487
544.29        18.50869
544.72        18.70052
545.16        18.84672
545.60        18.93328
546.04        18.97627
546.47        19.01347
546.91        19.10964
547.35        19.27727
547.79        19.48754
548.22        19.68723
548.66        19.84039
549.10        19.93721
549.53        19.90315
549.97        19.95778
550.41         20.0408
550.84        20.21921
551.28        20.47061
551.72        20.74523
552.15        20.94179
552.59        21.04899
553.03         21.1229
553.46        21.18775
553.90        21.29343
554.34        21.45176
554.77        21.60933
555.21        21.72604
555.65        21.97668
556.08        21.93771
556.52        21.97262
556.96        21.97802
557.39        22.00719
557.83        22.07632
558.27        22.13938
558.70        22.19845
559.14        22.36564
559.57        22.43506
560.01        22.60143
560.45        22.74911
560.88        22.77215
561.32        22.71402
561.75        22.60909
562.19        22.53652
562.63        22.71424
563.06        23.05204
563.50        23.05934
563.93        22.79012
564.37        22.77641
564.80        23.02398
565.24        23.24299
565.68        23.38795
566.11        23.52587
566.55        23.65281
566.98        23.73987
567.42        23.82158
567.85        23.93423
568.29        24.09136
568.72        24.27134
569.16        24.47319
569.60        24.61084
570.03        24.65985
570.47        24.78312
570.90        24.93669
571.34        24.82674
571.77        25.06816
572.21        25.15901
572.64        25.30963
573.08        25.39467
573.51        25.92431
573.95        26.02186
574.38        25.80687
574.82        25.99619
575.25         26.0976
575.69        26.10797
576.12        25.93661
576.56        25.96102
576.99        26.50193
577.42        26.22647
577.86        26.26278
578.29        26.21183
578.73        26.28845
579.16        26.06458
579.60        25.80463
580.03         25.7358
580.47        25.90658
580.90        25.49328
581.33        25.83794
581.77        26.07644
582.20        25.75146
582.64         25.5119
583.07        25.37879
583.51        25.21981
583.94        25.17654
584.37        25.22896
584.81        25.33892
585.24        25.16831
585.68        24.77099
586.11        24.85844
586.54        24.61618
586.98         24.5416
587.41        24.36446
587.85        24.49039
588.28        24.63846
588.71        23.99694
589.15        24.66186
589.58        24.22407
590.01        24.45079
590.45        24.35432
590.88        24.31249
591.31        24.30145
591.75        24.29907
592.18        24.26846
592.61        24.18827
593.05        24.27979
593.48        24.23912
593.91        24.33476
594.35         24.3728
594.78        24.48338
595.21        24.61719
595.65        24.72824
596.08        24.80881
596.51        24.94998
596.94        25.01167
597.38         25.2106
597.81        25.53488
598.24        25.50021
598.68        26.03106
599.11        26.16158
599.54        26.29374
599.97        26.46881
600.41        26.93939
600.84        27.18504
601.27        27.50146
601.70         27.9714
602.14        28.46088
602.57        28.63707
603.00        28.91153
603.43        29.04163
603.87        29.40781
604.30        29.67453
604.73        29.94591
605.16        30.25805
605.60        30.66892
606.03        31.06585
606.46        31.38275
606.89        31.70871
607.32        31.92379
607.76        32.20819
608.19        32.52911
608.62        32.95912
609.05        33.22878
609.48        33.73742
609.92        33.77876
610.35          34.161
610.78        34.83842
611.21         35.1756
611.64         35.2489
612.07         35.4433
612.50        35.77956
612.94        35.95658
613.37         36.0127
613.80        36.17862
614.23        36.35511
614.66        36.79046
615.09        36.87157
615.52        37.08796
615.96        37.25773
616.39        37.69565
616.82        37.90953
617.25        38.19755
617.68        38.40752
618.11        38.57304
618.54        38.70515
618.97        38.83941
619.40        39.01186
619.84        39.18168
620.27        39.35051
620.70        39.68686
621.13        40.01579
621.56        40.08133
621.99        39.88868
622.42        40.09637
622.85        40.09435
623.28        40.02499
623.71        40.10027
624.14        40.19505
624.57        40.37502
625.00         40.4668
625.43         40.4625
625.86        40.38731
626.29        40.23265
626.72        40.22831
627.15        40.01554
627.58        39.84529
628.01        39.63248
628.44        39.56132
628.87        39.59372
629.30        39.42038
629.73        39.03291
630.16        39.01668
630.59        38.67731
631.02        38.46145
631.45        38.16396
631.88        37.85958
632.31         37.5512
632.74        37.23273
633.17        36.92424
633.60        36.63645
634.03        36.36952
634.46        36.11741
634.89        35.85865
635.32        35.55795
635.75        35.20864
636.18        34.82511
636.61         34.4193
637.04         34.0099
637.47        33.60836
637.89        33.20448
638.32        32.80134
638.75        32.45745
639.18         32.1879
639.61        31.85466
640.04        31.67693
640.47        31.42254
640.90        31.15377
641.33        30.86951
641.76        30.59354
642.18         30.4096
642.61        30.33044
643.04        30.26714
643.47        30.16122
643.90        30.34562
644.33        30.15177
644.76        30.07745
645.18        29.97616
645.61         30.0407
646.04        30.23488
646.47        30.30169
646.90        30.25817
647.33        30.34193
647.75         30.5612
648.18        30.75761
648.61        30.92545
649.04        31.14373
649.47        31.38509
649.89        31.61059
650.32         31.8197
650.75         31.9469
651.18         32.0589
651.61        32.50115
652.03        33.22642
652.46        33.59865
652.89        33.63392
653.32        33.99762
653.74         34.7526
654.17        34.76107
654.60        35.36033
655.03        35.42575
655.46        35.72281
655.88        36.36942
656.31        40.38944
656.74        39.72419
657.16        36.78156
657.59        36.85194
658.02        37.76138
658.45        37.92776
658.87        38.54255
659.30        38.02879
659.73        38.92549
660.15        39.17368
660.58        39.30252
661.01        39.48021
661.44        39.72061
661.86        39.95523
662.29         40.1955
662.72        40.50228
663.14        40.86871
663.57        41.22406
664.00        41.53201
664.42        41.76678
664.85        41.92938
665.27        42.01021
665.70        42.06777
666.13        42.20148
666.55         42.4391
666.98         42.7499
667.41        43.09512
667.83        43.38792
668.26         43.5904
668.69        43.76069
669.11        43.93425
669.54        44.02222
669.96        44.29177
670.39        44.46761
670.82        44.62797
671.24        44.80069
671.67        44.98331
672.09        45.14922
672.52        45.29069
672.94        45.37901
673.37        45.42065
673.80        45.42618
674.22        45.44198
674.65         45.5194
675.07        45.68332
675.50        45.90575
675.92        46.15726
676.35        46.38283
676.77        46.56646
677.20        46.71519
677.62        46.83953
678.05        46.94564
678.47        47.03536
678.90        47.11949
679.32         47.2009
679.75        47.26963
680.17        47.31986
680.60        47.48982
681.02        47.54736
681.45        47.66998
681.87        47.79522
682.30        47.92402
682.72        48.06055
683.15        48.19148
683.57        48.32083
684.00        48.43967
684.42        48.55291
684.85        48.67962
685.27         48.8079
685.70        48.93439
686.12         49.0265
686.54        49.05638
686.97        49.01917
687.39        48.95599
687.82        48.86863
688.24        48.85172
688.66        48.65738
689.09        48.85635
689.51        49.30032
689.94        49.60322
690.36        49.73109
690.78        49.85508
691.21        50.03749
691.63        50.33371
692.06        50.72551
692.48        51.11017
692.90        51.42815
693.33        51.59164
693.75        51.57242
694.17        51.45789
694.60        51.39366
695.02        50.97125
695.44        51.34452
695.87        51.40425
696.29        51.46588
696.71        51.46978
697.14        51.48873
697.56         51.7625
697.98        52.22407
698.41        52.54196
698.83        52.68219
699.25        52.83467
699.68        52.98924
700.10        53.09222
700.52        53.14275
700.94        53.12177
701.37        53.07385
701.79         53.1743
702.21        53.38079
702.64        53.52621
703.06        53.59092
703.48        53.59625
703.90        53.52563
704.33        53.70907
704.75        53.50106
705.17        53.52122
705.59        53.57952
706.01        53.70597
706.44        53.92562
706.86         54.0335
707.28        54.40943
707.70        54.76995
708.12        55.14286
708.55        55.21607
708.97        55.04105
709.39        55.01288
709.81        55.14694
710.23        55.16991
710.66        55.08861
711.08        55.09934
711.50        55.20776
711.92         55.3346
712.34        55.47407
712.76         55.6545
713.19        55.82187
713.61        55.92163
714.03        55.92525
714.45        55.84665
714.87        55.76121
715.29        55.79071
715.71        55.95947
716.13        56.23563
716.56        56.51967
716.98        56.71048
717.40        56.74566
717.82        56.66269
718.24        56.54802
718.66        56.54135
719.08        56.67397
719.50        56.89862
719.92        57.13437
720.34          57.251
720.76        57.21773
721.19        57.08555
721.61        56.92659
722.03        56.84371
722.45        56.87664
722.87        57.00237
723.29        57.19021
723.71        57.39052
724.13        57.57572
724.55        57.74105
724.97        57.90825
725.39        58.11221
725.81        58.34925
726.23        58.60568
726.65        58.79254
727.07         58.7737
727.49        58.54085
727.91        58.14951
728.33        57.75973
728.75        57.62308
729.17        57.79229
729.59        58.19054
730.01        58.66899
730.43        58.96465
730.85        59.00287
731.27        58.87786
731.69        58.67532
732.10        58.53029
732.52        58.49089
732.94        58.49585
733.36        58.57225
733.78        58.75045
734.20        59.01074
734.62        59.41363
735.04        59.83014
735.46        59.88773
735.88        59.64169
736.30        59.51123
736.72        59.54237
737.13        59.59252
737.55        59.61923
737.97        59.53106
738.39        59.39762
738.81        59.60564
739.23        60.08115
739.65        60.24402
740.06        60.06584
740.48        60.06379
740.90        60.22165
741.32        60.27801
741.74        60.21753
742.16        60.14061
742.57        60.05565
742.99         60.0003
743.41        60.01417
743.83        59.97701
744.25        59.96849
744.67        60.35543
745.08        60.99585
745.50        61.22829
745.92        60.98772
746.34         60.5782
746.75        60.15614
747.17        59.88633
747.59        59.82405
748.01         59.9534
748.42        60.18515
748.84        60.31594
749.26        60.33384
749.68        60.31568
750.09        60.32154
750.51        60.53447
750.93        60.88521
751.35        61.01831
751.76         60.9582
752.18        61.03505
752.60        61.25087
753.01         61.4487
753.43         61.5823
753.85        61.60859
754.27        61.50698
754.68        61.70098
755.10        61.50683
755.52        61.57377
755.93        61.68766
756.35        61.82484
756.77        61.95577
757.18        62.06824
757.60        62.16603
758.02        62.27296
758.43        62.23476
758.85          62.301
759.26        61.34145
759.68        61.28616
760.10        61.75286
760.51        62.01045
760.93        61.94502
761.34        61.96407
761.76        62.08839
762.18        61.98928
762.59        61.80967
763.01         62.0293
763.42        62.60075
763.84          62.864
764.26        62.78481
764.67        62.57032
765.09        62.37218
765.50         62.4416
765.92        62.71159
766.33        62.57684
766.75        62.04934
767.16        61.94943
767.58        62.30303
768.00        62.54359
768.41        62.68907
768.83        63.23635
769.24        63.99696
769.66        64.21487
770.07        63.89639
770.49        63.53988
770.90        63.28363
771.32        63.18339
771.73        63.23621
772.15        63.21218
772.56        63.12076
772.97         63.1707
773.39        63.33564
773.80        63.50227
774.22        63.60951
774.63        63.69894
775.05        63.73459
775.46        63.75659
775.88        63.74637
776.29        63.70621
776.70        63.65524
777.12        63.66066
777.53        63.74215
777.95        63.85318
778.36         63.9721
778.77        64.00124
779.19        63.92062
779.60        63.87804
780.02        63.85251
780.43        63.57635
780.84        63.19923
781.26        63.22313
781.67        63.61423
782.09        63.97577
782.50        64.16339
782.91        64.00028
783.33        63.66462
783.74        63.61938
784.15        63.93549
784.57        64.25498
784.98        64.55956
785.39        64.94579
785.81        65.38084
786.22        65.62759
786.63        65.98296
787.04        66.02107
787.46        65.87785
787.87        65.54939
788.28        65.22155
788.70        65.15374
789.11        65.36538
789.52        65.79595
789.93        66.26368
790.35        66.45662
790.76        66.32323
791.17          65.953
791.58        65.49205
792.00        65.19916
792.41        65.16628
792.82        65.18237
793.23        65.21039
793.65        65.54311
794.06        65.99306
794.47        65.77082
794.88        65.09688
795.29         64.9269
795.71        65.25047
796.12        65.65934
796.53         65.9787
796.94         66.1273
797.35        66.02084
797.76         65.7018
798.18        65.34203
798.59        65.16804
799.00        65.24985
799.41        65.51922
799.82         65.8824
800.23        66.17657
800.64        66.33906
801.06        66.39677
801.47        66.40802
801.88        66.37914
802.29        66.32951
802.70        66.24459
803.11        66.14852
803.52        66.09072
803.93        66.09188
804.34        66.14552
804.75        66.23936
805.17         66.3869
805.58        66.62032
805.99        66.73351
806.40        66.72101
806.81        67.00136
807.22        67.37757
807.63        66.90197
808.04        65.81248
808.45        65.37525
808.86        65.72083
809.27        66.19287
809.68        66.60506
810.09        66.91236
810.50        67.02213
810.91        66.95799
811.32        66.77948
811.73        66.58754
812.14        66.43404
812.55        66.29122
812.96        66.21219
813.37        66.28732
813.78        66.52142
814.19        66.88955
814.60         67.2881
815.01        67.55045
815.42        67.63569
815.83        67.57903
816.24        67.43204
816.65        67.30786
817.05         67.2542
817.46        67.21184
817.87        67.19154
818.28        67.16744
818.69        67.12858
819.10        67.09705
819.51         67.0607
819.92        66.98941
820.33        66.88462
820.74        66.75446
821.14        66.63609
821.55        66.61375
821.96        66.69203
822.37        66.86709
822.78        67.09114
823.19        67.27084
823.60        67.37856
824.00        67.44938
824.41        67.50891
824.82        67.70861
825.23        68.05988
825.64        68.49255
826.04        68.91296
826.45        69.09576
826.86        69.01053
827.27        68.73359
827.68        68.31455
828.08        67.85582
828.49         67.3858
828.90        66.89745
829.31        66.50507
829.72        66.37686
830.12        66.56893
830.53        67.02747
830.94        67.54801
831.35        67.70601
831.75         67.4192
832.16        66.76131
832.57        66.10452
832.97        66.01597
833.38        66.58556
833.79        67.62238
834.20         68.7536
834.60        69.33995
835.01         69.1792
835.42        68.51202
835.82        67.61834
836.23        66.92487
836.64        66.57943
837.04        66.45721
837.45        66.50977
837.86        66.71796
838.26          67.041
838.67        67.47083
839.08        67.87505
839.48        67.99241
839.89        67.76431
840.29        67.26077
840.70        66.67467
841.11         66.2906
841.51         66.2065
841.92         66.3262
842.33         66.5867
842.73        66.88224
843.14        67.11409
843.54        67.35905
843.95        67.57194
844.35        67.74403
844.76        67.84214
845.17        67.84924
845.57        67.80098
845.98        67.75577
846.38        67.74969
846.79        67.76485
847.19        67.77282
847.60        67.64744
848.00        67.39872
848.41        67.05016
848.81        66.73713
849.22        66.64393
849.62        66.81739
850.03        67.17262
850.43        67.57231
850.84        67.64472
851.24        67.36592
851.65        66.81731
852.05        66.23689
852.46        66.00963
852.86        66.24559
853.27        66.68013
853.67        67.10079
854.07        67.76828
854.48        68.66441
854.88        68.29308
855.29        69.24311
855.69        69.00527
856.10         68.3217
856.50        67.28519
856.90        66.25217
857.31        65.69057
857.71         65.6692
858.12        66.04253
858.52        66.65462
858.92        67.00345
859.33        66.90362
859.73         66.5416
860.13        65.97912
860.54        65.34196
860.94        64.71168
861.34         64.0466
861.75        63.47451
862.15        63.26784
862.55        63.46824
862.96        64.00298
863.36        64.70352
863.76        65.19312
864.17        65.36111
864.57        65.30231
864.97        65.14385
865.38        65.12303
865.78        65.32416
866.18        65.63181
866.58        65.93314
866.99        66.04237
867.39        65.94079
867.79        65.71808
868.19        65.41337
868.60        65.03638
869.00        64.61105
869.40        64.12975
869.80        63.76638
870.21        63.83012
870.61        64.41208
871.01         65.3548
871.41        66.28814
871.81        66.65874
872.22        66.35042
872.62        65.52209
873.02        64.51344
873.42        63.89531
873.82        63.85225
874.22        64.25286
874.63        64.84565
875.03        65.22279
875.43        65.27646
875.83        65.11987
876.23         64.9988
876.63        65.29385
877.03        66.05502
877.44        67.10345
877.84        68.10242
878.24        68.45916
878.64        68.04929
879.04        67.09946
879.44        65.98327
879.84        65.25681
880.24        65.06641
880.64        65.24429
881.04        65.62348
881.44        65.92484
881.84        66.05386
882.24         66.1226
882.65         66.1142
883.05        66.08817
883.45        66.03362
883.85        65.90843
884.25        65.82085
884.65        65.95651
885.05        66.33646
885.45        66.92052
885.85        67.52065
886.25        67.80122
886.65         67.6746
887.05        67.23162
887.45        66.69954
887.85         66.4402
888.25        66.54247
888.65        66.90118
889.04        67.31429
889.44        67.43129
889.84        67.17742
890.24        66.65915
890.64        66.08341
891.04        65.73447
891.44        65.68452
891.84        65.88225
892.24        66.12443
892.64        66.07399
893.04        65.67608
893.44        65.04111
893.83          64.505
894.23        64.58701
894.63         65.3447
895.03        66.61087
895.43        67.94256
895.83        68.53152
896.23        68.17349
896.63        67.17205
897.02        65.95126
897.42        65.22846
897.82        65.10519
898.22        65.39438
898.62        65.92368
899.01        66.42035
899.41        66.72306
899.81        66.97058
900.21        67.19327
900.61        67.42475
901.00        67.67435
901.40         67.8558
901.80        68.00076
902.20         68.1898
902.59        68.43218
902.99        68.71971
903.39        68.93222
903.79        68.86766
904.18        68.48566
904.58        67.86739
904.98        67.22811
905.38        66.90699
905.77        66.96809
906.17        67.35403
906.57        67.77792
906.96        67.77596
907.36        67.24885
907.76        66.36611
908.15        65.53211
908.55        65.35199
908.95        65.96577
909.34        67.15555
909.74        68.48129
910.14        69.30749
910.53        69.42616
910.93        69.03162
911.33        68.34814
911.72        67.72912
912.12        67.33221
912.52        67.05083
912.91        66.84407
913.31        66.65178
913.70        66.46694
914.10        66.35082
914.49        66.34138
914.89        66.45065
915.29        66.66508
915.68        66.93122
916.08        67.19588
916.47        67.39886
916.87        67.51173
917.26        67.57063
917.66        67.53673
918.05        67.35078
918.45         67.0246
918.84        66.61185
919.24        66.28036
919.64         66.3884
920.03        67.00233
920.42         67.9631
920.82        68.97791
921.21        69.64536
921.61        69.82742
922.00        69.63116
922.40        69.16465
922.79        68.71882
923.19        68.40075
923.58        68.15222
923.98        67.90916
924.37        67.51891
924.77        66.99371
925.16        66.40123
925.55        65.89363
925.95        65.67838
926.34        65.83026
926.74        66.23786
927.13        66.83685
927.52        67.42992
927.92         67.9237
928.31        68.36544
928.70        68.70477
929.10        68.89956
929.49        68.96139
929.89        68.86629
930.28        68.69557
930.67        68.55553
931.07        68.47355
931.46        68.43916
931.85        68.41939
932.24        68.35149
932.64         68.2272
933.03        68.12424
933.42        68.02042
933.82        67.89395
934.21        67.74728
934.60        67.54855
934.99        67.44843
935.39          67.648
935.78        68.18905
936.17        69.03899
936.56        69.84584
936.96        69.98264
937.35        69.36454
937.74        68.15873
938.13        66.90755
938.53        66.33195
938.92        66.51645
939.31        67.28672
939.70        68.23293
940.09        68.59744
940.49        68.17226
940.88        67.23821
941.27        66.17468
941.66        65.54097
942.05        65.48345
942.44        65.82196
942.84        66.36705
943.23        66.85383
943.62        67.11871
944.01        67.27518
944.40        67.35547
944.79        67.40222
945.18        67.44143
945.57        67.41083
945.97        67.35767
946.36        67.48063
946.75        67.76751
947.14        68.18551
947.53        68.56935
947.92        68.61168
948.31        68.25285
948.70        67.62082
949.09        66.93631
949.48        66.51971
949.87        66.47007
950.26        66.71747
950.65        67.17096
951.04        67.66244
951.43        68.09013
951.82        68.43885
952.21        68.73402
952.60        69.03677
952.99         69.3298
953.38        69.56648
953.77        69.57683
954.16        69.08751
954.55        68.11939
954.94        66.87744
955.33        65.66238
955.72        64.91134
956.11        64.72639
956.50         64.9277
956.89        65.45583
957.28        66.20654
957.66        67.10868
958.05        68.08259
958.44        68.75843
958.83        68.44495
959.22        67.07275
959.61        64.93631
960.00        62.74016
960.39        61.46806
960.78        61.33124
961.16        62.12798
961.55        63.38503
961.94        64.37956
962.33        64.84281
962.72        64.94273
963.11         64.8995
963.49        65.12922
963.88        65.66914
964.27        66.32201
964.66        66.81629
965.04        66.83925
965.43        66.34518
965.82        65.45221
966.21        64.42837
966.60        63.75213
966.98        63.61511
967.37        63.90397
967.76        64.36507
968.15        64.53871
968.53        64.30363
968.92        63.78411
969.31        63.24097
969.69        63.08139
970.08        63.35932
970.47        63.94093
970.86         64.5423
971.24        64.69057
971.63        64.20457
972.02        63.28604
972.40          62.238
972.79        61.52436
973.17        61.31128
973.56         61.5026
973.95        61.90423
974.33         62.2321
974.72        62.34258
975.11        62.21007
975.49        62.19101
975.88        62.91458
976.26        64.50872
976.65        66.70099
977.04        68.48679
977.42        68.27744
977.81        65.89941
978.19        61.95698
978.58         58.1697
978.96          56.846
979.35        58.45548
979.74        62.43356
980.12        67.57649
980.51          70.804
980.89        71.14956
981.28         69.3062
981.66        66.48227
982.05        64.78732
982.43        64.81432
982.82        65.83435
983.20        67.50175
983.59        69.10821
983.97        70.39547
984.35        71.59075
984.74        72.28379
985.12        71.88534
985.51        70.35008
985.89        67.81693
986.28        65.13074
986.66        63.52562
987.04        63.44504
987.43        64.58399
987.81        66.31085
988.20        67.31018
988.58        67.21748
988.96        66.24646
989.35        65.10605
989.73        64.90038
990.12        65.83851
990.50        67.64477
990.88        69.32633
991.27        69.32985
991.65        67.45802
992.03        64.25558
992.42         61.1002
992.80        59.84488
993.18        60.99484
993.56        63.95058
993.95         67.4317
994.33        69.46922
994.71        69.19452
995.10         67.1982
995.48         64.3521
995.86         62.1285
996.24        61.09144
996.63        60.83392
997.01        60.94307
997.39        60.80408
997.77        60.23943
998.15        59.47467
998.54        58.88215
998.92        59.04074
999.30        60.09972
999.68         61.8612
1000.06        63.66606
1000.45        64.39801
1000.83        63.86764
1001.21        62.25555
1001.59        60.37704
1001.97        59.68653
1002.35        60.56911
1002.73        62.57477
1003.12        64.85492
1003.50        65.93705
1003.88        65.50818
1004.26         64.1705
1004.64        62.52516
1005.02         61.3969
1005.40         61.0514
1005.78        61.18225
1006.16        61.80075
1006.54          62.946
1006.92        64.43483
1007.30        66.16302
1007.69        67.60779
1008.07        68.13288
1008.45        67.51902
1008.83        66.04434
1009.21        64.00998
1009.59        61.96768
1009.97        60.23875
1010.35        58.74026
1010.73        57.94113
1011.11        58.59341
1011.49        60.85009
1011.86        64.77553
1012.24        69.23788
1012.62        72.42427
1013.00        73.58281
1013.38        72.83094
1013.76         71.1596
1014.14        70.65748
1014.52        71.96676
1014.90        74.50156
1015.28         77.0364
1015.66        77.37498
1016.04        75.23246
1016.41        71.86041
1016.79        68.57133
1017.17        66.35482
1017.55        65.19189
1017.93        64.59216
1018.31         64.4274
1018.69         64.4959
1019.06        64.59701
1019.44        64.84818
1019.82        64.93715
1020.20        64.47655
1020.58        63.45157
1020.95        61.76517
1021.33        59.80565
1021.71        58.58617
1022.09        58.77548
1022.46        60.14351
1022.84        62.18932
1023.22        64.36538
1023.60         66.4201
1023.97        68.55693
1024.35        70.22833
1024.73        70.46682
