SpectraSmart Spectrum 2.9.0.0
--------- Device Information -----------
Spectrum Name :  反射率_0
Saving Time :  2024/05/01 17:11:10
Spectro-Module Model Name : SE2030-DUVN
Spectro-Module Serial Number : OS361AC55029948
Wavelength Start : 200
Wavelength End : 1025
Wavelength Unit : Wavelength(nm)
Spectrum Unit : Reflectance(%)
-----------Spectrum Setting ------------
Integration Time : 20ms
Average : 10
Boxcar : 0
Background removal :  enabled
linearity correction :  enabled
SC :  disabled
Intensity correction :  disabled
DWT denoise :  enabled
savitzky-golay :  disabled
FFT :  disabled
Running average :  disabled
Kalman :  disabled
High pass :  disabled
---------------BEGIN--------------------
Wavelength(nm)             Reflectance(%)
200.29               0
200.75        5.964294
201.21        165.2187
201.67       -95.99027
202.13       -28.72771
202.58        2.536519
203.04        25.41328
203.50        40.65922
203.96        46.62079
204.42        44.04542
204.88        24.22095
205.34       -469.5671
205.80        102.3896
206.26        39.49053
206.72        -53.6867
207.18       -488.1782
207.64        725.0592
208.10        286.1678
208.55        171.2438
209.01        114.5015
209.47        91.21464
209.93        88.50667
210.39        95.17429
210.85         109.987
211.31        138.7368
211.77        231.1389
212.23        -507.526
212.69       -53.34569
213.14       -6.026932
213.60        32.72643
214.06       -237.0105
214.52       -41.65617
214.98       -26.05527
215.44       -18.33831
215.90       -3.973991
216.36        231.7676
216.81       -172.2028
217.27       -309.8976
217.73        813.8364
218.19        197.3698
218.65        153.1468
219.11        173.9222
219.57        286.6985
220.02        756.7292
220.48        401.7766
220.94        152.5214
221.40        91.17599
221.86        73.21813
222.32         73.0929
222.77        83.79462
223.23        105.6558
223.69        135.1911
224.15        147.3693
224.61        133.5774
225.06        111.2615
225.52        96.24257
225.98        93.82758
226.44         102.435
226.90        121.0572
227.36        146.0379
227.81        158.4077
228.27        150.5314
228.73        134.6457
229.19        121.8022
229.65        118.1586
230.10        122.7929
230.56        133.5092
231.02        147.6907
231.48        156.4806
231.93        155.0757
232.39        148.7775
232.85        140.8109
233.31        133.8263
233.77        128.5933
234.22        124.0961
234.68          121.42
235.14        121.9135
235.60        125.9249
236.05        134.6739
236.51         147.686
236.97        159.9332
237.43        165.2593
237.88        161.9722
238.34         153.333
238.80        147.4122
239.26        146.4503
239.71        150.6316
240.17        156.7558
240.63        153.5707
241.08        134.3286
241.54        107.6689
242.00         87.9249
242.46        82.99163
242.91        93.40713
243.37         122.243
243.83        172.2257
244.28        203.4109
244.74        181.0585
245.20        141.0454
245.66        110.0511
246.11        93.15813
246.57        84.82538
247.03        79.69142
247.48        73.39824
247.94        57.86061
248.40        32.79901
248.85         7.06508
249.31       -4.657681
249.77        4.727351
250.22        25.21155
250.68        47.17129
251.14        64.23087
251.59        73.93544
252.05        78.50001
252.51        79.87846
252.96        81.13137
253.42        101.8884
253.88          142.91
254.33        154.7371
254.79        148.3581
255.25        137.5759
255.70        125.9307
256.16        116.6264
256.62        109.3671
257.07        104.3341
257.53        102.1101
257.99        101.2344
258.44        101.2897
258.90        102.9491
259.35        105.3116
259.81        108.4637
260.27        111.4187
260.72        112.8858
261.18        113.1738
261.63        112.2751
262.09        111.1685
262.55        110.1515
263.00        109.1208
263.46        108.2599
263.91        107.1788
264.37        106.1022
264.83        104.9208
265.28        103.6904
265.74        102.6049
266.19        101.3755
266.65        100.1953
267.11        98.96783
267.56        97.93761
268.02        97.65245
268.47        98.05911
268.93        98.93526
269.38        99.72661
269.84         99.5196
270.30        98.14643
270.75        95.89954
271.21        93.34126
271.66        91.14069
272.12        89.58395
272.57         88.3567
273.03        87.39737
273.48        86.46561
273.94        85.54571
274.39        84.65836
274.85        83.75594
275.31        82.54744
275.76        81.00025
276.22        79.32714
276.67        77.66274
277.13        76.48196
277.58        75.69313
278.04        75.22166
278.49         74.7751
278.95        74.14758
279.40        73.18195
279.86        72.08594
280.31        70.82871
280.77        69.60336
281.22         68.3435
281.68        67.13197
282.13        65.90566
282.59        64.79169
283.04        63.72549
283.50        62.79298
283.95         61.9127
284.41        61.08805
284.86        60.28713
285.32        59.56442
285.77         58.9466
286.22        58.58071
286.68        58.44321
287.13        58.42376
287.59        58.36314
288.04        57.95441
288.50        57.20418
288.95        56.17717
289.41        55.11483
289.86        54.19484
290.32        53.52934
290.77        53.01648
291.22        52.61543
291.68        52.24185
292.13        51.84412
292.59        51.48108
293.04        51.14153
293.50        50.87432
293.95        50.65944
294.40         50.4909
294.86        50.33352
295.31        50.14931
295.77        49.93622
296.22        49.69183
296.68        49.47424
297.13         49.3242
297.58        49.27027
298.04        49.32745
298.49        49.41319
298.95        49.45112
299.40        49.40475
299.85        49.29446
300.31        49.25316
300.76        49.45219
301.21        49.90802
301.67        50.55315
302.12        51.14464
302.58        51.35108
303.03        51.09246
303.48         50.5293
303.94        49.94942
304.39        49.66605
304.84        49.77977
305.30        50.16298
305.75        50.64141
306.20        50.98252
306.66        51.12085
307.11        51.10088
307.57        50.99284
308.02        50.81554
308.47        50.61333
308.93        50.37654
309.38        50.09987
309.83        49.84936
310.29        49.65365
310.74        49.50856
311.19        49.39997
311.65        49.27895
312.10        49.12683
312.55        48.95665
313.00        48.82468
313.46        48.82022
313.91        48.93695
314.36        49.12706
314.82        49.27761
315.27        49.22746
315.72         48.9345
316.18        48.47016
316.63        47.91257
317.08        47.39933
317.53        46.97532
317.99        46.61163
318.44        46.29778
318.89        46.02159
319.35         45.7809
319.80         45.5966
320.25        45.45628
320.70        45.32845
321.16         45.1938
321.61        45.05292
322.06        44.92015
322.51        44.83524
322.97        44.78883
323.42        44.77826
323.87        44.73899
324.32         44.5826
324.78        44.28829
325.23        43.90427
325.68        43.49578
326.13        43.17572
326.59         42.9683
327.04         42.8679
327.49        42.81992
327.94        42.74248
328.39        42.60611
328.85        42.41435
329.30        42.22799
329.75        42.09473
330.20        42.02785
330.66        41.99516
331.11        41.96277
331.56        41.82902
332.01        41.57967
332.46        41.25255
332.92        40.91656
333.37        40.72878
333.82        40.71865
334.27        40.85757
334.72        41.08421
335.17        41.28741
335.63        41.40669
336.08        41.47687
336.53        41.52269
336.98        41.61166
337.43         41.7569
337.88        41.93585
338.34        42.06143
338.79        42.02785
339.24        41.80809
339.69         41.4459
340.14        41.08452
340.59        40.94523
341.05        41.06501
341.50        41.38564
341.95        41.74794
342.40        41.88956
342.85        41.75437
343.30        41.44372
343.75        41.09295
344.20        40.91162
344.66        40.95709
345.11        41.13987
345.56        41.42123
346.01        41.73186
346.46        42.02385
346.91        42.32173
347.36         42.5452
347.81        42.57127
348.26        42.39652
348.72        42.06033
349.17          41.691
349.62        41.54704
350.07        41.67321
350.52        41.98406
350.97        42.31898
351.42        42.40631
351.87        42.18744
352.32        41.78084
352.77        41.28376
353.22        40.84458
353.67        40.52105
354.13        40.26372
354.58        40.10616
355.03        40.15094
355.48        40.38881
355.93        40.80733
356.38        41.20827
356.83        41.25264
357.28        40.88167
357.73        40.19966
358.18        39.48702
358.63        39.16847
359.08        39.31915
359.53        39.79981
359.98        40.35923
360.43         40.5713
360.88        40.31896
361.33        39.75309
361.78         39.0656
362.23         38.5302
362.68        38.22551
363.13        38.06432
363.58        37.97289
364.03        37.84442
364.48        37.63804
364.93        37.38827
365.38        37.13324
365.83        36.91677
366.28        36.74525
366.73        36.60398
367.18        36.42329
367.63        36.10256
368.08        35.64326
368.53        35.09479
368.98        34.58706
369.43        34.30669
369.88        34.27819
370.33        34.43406
370.78         34.6435
371.23        34.67564
371.68        34.45959
372.13        34.07242
372.58        33.59853
373.03        33.16288
373.48        32.80928
373.93        32.49853
374.38        32.24271
374.83        32.06704
375.28        31.96905
375.72        31.94649
376.17         31.9515
376.62        31.88875
377.07        31.73591
377.52        31.50841
377.97        31.25512
378.42        31.06137
378.87        30.94429
379.32        30.87535
379.77        30.80713
380.22        30.66509
380.67        30.43874
381.11        30.16862
381.56        29.89583
382.01        29.69355
382.46        29.58659
382.91        29.54721
383.36        29.56186
383.81        29.61148
384.26        29.67318
384.71        29.74045
385.15        29.76915
385.60        29.71464
386.05        29.56491
386.50        29.34523
386.95        29.08985
387.40        28.85744
387.85        28.67167
388.29        28.49718
388.74        28.38751
389.19        28.33527
389.64        28.32909
390.09        28.36029
390.54        28.37943
390.98        28.30183
391.43        28.13132
391.88        27.89889
392.33         27.6579
392.78        27.49669
393.23         27.4319
393.67        27.38922
394.12        27.37262
394.57        27.41468
395.02        27.46092
395.47        27.33369
395.91        27.08894
396.36        26.96965
396.81        27.00706
397.26        27.08258
397.71        27.13334
398.15        27.13193
398.60        27.09582
399.05         26.9243
399.50        26.71419
399.95        26.79718
400.39        27.10302
400.84        27.12065
401.29        26.82247
401.74        26.60194
402.18        26.47518
402.63        26.18548
403.08        25.82747
403.53        25.66232
403.97        25.71056
404.42        25.90037
404.87        26.10629
405.32        26.12952
405.76        25.92621
406.21        25.57695
406.66        25.20022
407.11        24.98315
407.55        24.98133
408.00        25.13445
408.45        25.36578
408.90         25.5019
409.34        25.50268
409.79        25.48154
410.24        25.45719
410.68        25.39738
411.13        25.31908
411.58        25.23716
412.03        25.16616
412.47        25.12669
412.92        25.11768
413.37        25.14284
413.81        25.17199
414.26        25.17561
414.71        25.13892
415.15        25.07988
415.60        25.00158
416.05        24.93828
416.49        24.89878
416.94        24.86583
417.39        24.84122
417.83        24.82549
418.28        24.81736
418.73        24.82449
419.17        24.82184
419.62        24.76224
420.07        24.64988
420.51        24.49771
420.96        24.38116
421.41        24.38559
421.85        24.50961
422.30        24.72376
422.74        24.95366
423.19        25.11584
423.64        25.17856
424.08        25.17764
424.53        25.10084
424.98        24.97168
425.42        24.81601
425.87        24.63301
426.31        24.46348
426.76        24.37937
427.21        24.38641
427.65        24.46233
428.10        24.57871
428.54          24.697
428.99        24.81062
429.44        24.90321
429.88        24.91455
430.33        24.90972
430.77        24.82494
431.22        24.41013
431.66        23.85186
432.11        23.77121
432.56         24.1569
433.00         24.5749
433.45        24.77253
433.89        24.59615
434.34        23.95445
434.78        23.89084
435.23        24.56192
435.67        24.79081
436.12        24.61474
436.57        24.64008
437.01        24.86261
437.46         24.9195
437.90        24.78898
438.35        24.62303
438.79        24.46261
439.24         24.3028
439.68        24.20243
440.13        24.32212
440.57        24.58276
441.02         24.7232
441.46        24.70251
441.91        24.57343
442.35        24.39137
442.80        24.47118
443.24        24.71263
443.69        24.58767
444.13        24.16141
444.58        23.99464
445.02        24.09897
445.47        24.18892
445.91        24.24318
446.36        24.36386
446.80        24.53328
447.24        24.71501
447.69        24.88044
448.13        24.98565
448.58        25.02131
449.02        24.99118
449.47        24.92152
449.91        24.83834
450.36        24.76274
450.80        24.68775
451.25        24.61254
451.69        24.51723
452.13        24.40498
452.58        24.28997
453.02        24.18845
453.47        24.13652
453.91         24.1367
454.36        24.18669
454.80        24.25072
455.24        24.27276
455.69        24.24569
456.13        24.16698
456.58        24.09861
457.02        24.10423
457.46         24.1983
457.91        24.35775
458.35         24.5053
458.79        24.48455
459.24        24.28792
459.68        24.03623
460.13        23.86275
460.57        23.49009
461.01        23.62847
461.46        23.71711
461.90        23.89902
462.34        23.97415
462.79        24.04288
463.23         24.0263
463.68        23.99222
464.12        23.99448
464.56        24.04512
465.01        24.14985
465.45        24.23326
465.89        24.23413
466.34        24.15048
466.78        24.00024
467.22        23.83264
467.67        23.77396
468.11        23.75289
468.55        23.82808
468.99        23.93824
469.44        24.03479
469.88        24.10291
470.32         24.1498
470.77        24.18116
471.21        24.20454
471.65        24.22124
472.10        24.23252
472.54        24.22541
472.98        24.19629
473.42        24.15038
473.87        24.10169
474.31        24.06158
474.75        24.07099
475.20        24.13891
475.64         24.2344
476.08        24.32029
476.52        24.40027
476.97        24.47318
477.41        24.42241
477.85        24.22365
478.29        24.52145
478.74        24.27222
479.18        24.28158
479.62        24.24449
480.06         24.3223
480.50        24.52336
480.95        24.35671
481.39        24.64394
481.83        24.67922
482.27        24.71813
482.72        24.77385
483.16        24.82989
483.60        24.87354
484.04        24.86809
484.48        24.77434
484.93        24.81337
485.37        25.04377
485.81        25.28172
486.25        26.22191
486.69        25.46359
487.14        24.82185
487.58        25.10302
488.02        25.76727
488.46        25.47498
488.90        25.15681
489.34        25.51371
489.79        25.32203
490.23         25.8828
490.67        26.04512
491.11        26.10452
491.55        26.10113
491.99        26.07257
492.43         26.0914
492.88        26.16372
493.32         26.2425
493.76        26.32631
494.20        26.46404
494.64        26.66224
495.08        26.87882
495.52        27.07655
495.96        27.29378
496.41        27.49086
496.85        27.43477
497.29        27.22039
497.73        27.35482
498.17        27.77841
498.61        27.85799
499.05         27.6197
499.49        27.60831
499.93        27.83873
500.37        28.00694
500.82        28.09422
501.26        28.20667
501.70        28.33839
502.14        28.46106
502.58        28.55778
503.02        28.60391
503.46        28.60194
503.90        28.56864
504.34        28.54629
504.78        28.59935
505.22        28.74112
505.66        28.94989
506.10        29.18122
506.54        29.35968
506.98         29.4591
507.42        29.49817
507.86         29.4962
508.30         29.4847
508.74        29.47875
509.18        29.47298
509.62        29.46972
510.06        29.47469
510.50        29.49084
510.94        29.51989
511.38        29.56847
511.82        29.64242
512.26        29.73647
512.70        29.84265
513.14        29.93527
513.58        29.97659
514.02          29.959
514.46        29.89316
514.90        29.80538
515.34        29.73984
515.78        29.71249
516.22        29.71705
516.66        29.73884
517.10        29.75189
517.54        29.74979
517.98        29.74006
518.42        29.73989
518.86         29.7755
519.30        29.84814
519.74        29.94296
520.18        30.02894
520.62        30.06157
521.06         30.0306
521.50        29.94862
521.93        29.84578
522.37        29.76551
522.81         29.7261
523.25        29.72013
523.69        29.72613
524.13        29.70797
524.57         29.6604
525.01        29.59704
525.45        29.54625
525.89        29.55189
526.32         29.6167
526.76        29.71499
527.20        29.81049
527.64        29.84763
528.08        29.81137
528.52        29.72532
528.96        29.60174
529.40        29.45932
529.83        29.31071
530.27         29.1622
530.71        29.04209
531.15        29.00173
531.59        29.04489
532.03        29.15153
532.46        29.27077
532.90        29.32528
533.34        29.29623
533.78        29.18734
534.22        29.03121
534.66         28.9294
535.09        28.87267
535.53        28.74409
535.97        28.57634
536.41        28.52453
536.85        28.59762
537.28        28.72113
537.72        28.85029
538.16         28.9395
538.60        28.96898
539.04        28.94905
539.47        28.90934
539.91        28.91455
540.35        28.97263
540.79        29.07933
541.22        29.20677
541.66        29.26823
542.10        29.32823
542.54        29.34154
542.97        29.36236
543.41        29.45484
543.85        29.62288
544.29        29.84665
544.72        30.07316
545.16        30.23742
545.60        30.32014
546.04        30.33976
546.47        30.34739
546.91        30.43098
547.35        30.61056
547.79        30.85019
548.22        31.07491
548.66        31.23974
549.10        31.33114
549.53        31.22762
549.97        31.27139
550.41        31.36784
550.84        31.61854
551.28         31.9852
551.72        32.38068
552.15        32.63248
552.59        32.72092
553.03        32.73882
553.46        32.73278
553.90        32.79293
554.34        32.94351
554.77        33.10211
555.21        33.20743
555.65        33.52622
556.08        33.41093
556.52         33.4141
556.96        33.38078
557.39        33.39536
557.83        33.47945
558.27        33.56071
558.70        33.62501
559.14        33.81501
559.57        33.82085
560.01        33.95164
560.45        34.06189
560.88        34.03652
561.32         33.9477
561.75        33.82664
562.19        33.77724
562.63        34.10262
563.06        34.65529
563.50         34.7014
563.93        34.30298
564.37        34.23321
564.80        34.50023
565.24        34.67589
565.68        34.73001
566.11        34.82072
566.55        34.95661
566.98        35.08152
567.42        35.21359
567.85         35.3529
568.29        35.51659
568.72        35.67222
569.16        35.83889
569.60        36.00876
570.03         36.1658
570.47        36.24523
570.90         36.5244
571.34          36.488
571.77        36.68453
572.21        36.78265
572.64        36.97566
573.08        36.95939
573.51        37.46158
573.95        37.68542
574.38        37.39162
574.82        37.45404
575.25        37.71516
575.69        37.76126
576.12        37.66475
576.56        37.43946
576.99        38.36456
577.42        37.94357
577.86        38.07275
578.29        38.22564
578.73        38.57325
579.16        37.92755
579.60        37.31397
580.03        37.27925
580.47        37.86082
580.90         37.3629
581.33        37.63247
581.77        37.97609
582.20        37.76705
582.64        37.70778
583.07        37.43888
583.51        37.16756
583.94        37.02242
584.37        37.08119
584.81        37.30885
585.24        37.13024
585.68        36.92949
586.11        36.71935
586.54        36.55696
586.98        36.45211
587.41        36.36818
587.85        36.47033
588.28        36.61168
588.71        35.91307
589.15        36.48607
589.58        36.04512
590.01        36.04433
590.45        36.04558
590.88        36.23895
591.31        36.17213
591.75        35.88596
592.18        35.77492
592.61        35.71503
593.05        36.24754
593.48        36.31633
593.91        36.26746
594.35        36.29992
594.78         36.2766
595.21        36.29248
595.65        36.70821
596.08        36.43559
596.51        36.76475
596.94        36.64531
597.38        36.86833
597.81        37.23934
598.24        37.21076
598.68        37.92713
599.11        37.83427
599.54        38.67743
599.97        38.68125
600.41        38.62229
600.84        39.30369
601.27        39.38314
601.70        40.02759
602.14         40.4539
602.57        40.79412
603.00        40.96949
603.43        41.04575
603.87        41.37223
604.30        41.75143
604.73        41.94108
605.16        42.25347
605.60        42.58039
606.03         43.2073
606.46        43.90101
606.89        44.14365
607.32        44.07819
607.76        44.19502
608.19        44.52293
608.62        45.22281
609.05        45.67691
609.48        45.75699
609.92        45.42599
610.35         46.0693
610.78        47.00085
611.21        47.50731
611.64        47.33535
612.07        47.88503
612.50        48.13865
612.94        48.19991
613.37        48.19026
613.80        48.61509
614.23        48.54408
614.66          49.084
615.09        49.14574
615.52        49.48026
615.96         49.8149
616.39        50.10811
616.82        50.28843
617.25        50.56643
617.68        50.97508
618.11        51.11865
618.54        51.04052
618.97        50.98465
619.40        51.03719
619.84        51.11478
620.27        51.23171
620.70        51.63798
621.13        52.24921
621.56        52.16423
621.99        51.80029
622.42        52.24677
622.85        52.41471
623.28        52.43744
623.71        52.56476
624.14        52.64198
624.57          52.816
625.00        52.84495
625.43        52.72158
625.86        52.57713
626.29        52.44881
626.72        52.05297
627.15        51.99376
627.58        51.76512
628.01        51.55864
628.44        51.46193
628.87        51.43922
629.30        51.29427
629.73        51.03088
630.16          50.917
630.59        50.74338
631.02        50.58221
631.45        50.34476
631.88        50.03131
632.31        49.63921
632.74        49.17935
633.17        48.70642
633.60        48.29723
634.03        47.97245
634.46         47.7221
634.89         47.5032
635.32        47.22372
635.75        46.87138
636.18        46.50825
636.61        46.15225
637.04        45.79431
637.47        45.44543
637.89        45.11217
638.32        44.76381
638.75        44.41507
639.18        44.07912
639.61        43.58526
640.04        43.29899
640.47        43.00812
640.90        42.81821
641.33        42.69538
641.76         42.5961
642.18        42.50753
642.61        42.41318
643.04        42.22988
643.47        41.94118
643.90        42.11379
644.33        41.85207
644.76        41.81561
645.18        41.76724
645.61        41.92138
646.04        42.20636
646.47        42.27677
646.90        42.17553
647.33        42.25309
647.75        42.53102
648.18        42.81087
648.61        43.05115
649.04        43.27428
649.47          43.474
649.89        43.66906
650.32        43.89335
650.75        44.17593
651.18        44.51456
651.61         45.0195
652.03        45.66595
652.46        46.00007
652.89        46.08489
653.32        46.59605
653.74        47.58318
654.17        47.60532
654.60        48.19971
655.03        48.32743
655.46        48.43948
655.88        49.48418
656.31        55.80301
656.74        55.35284
657.16        51.09501
657.59        50.41341
658.02         51.2325
658.45        51.73898
658.87         51.8834
659.30        51.64697
659.73        52.07786
660.15        52.76738
660.58        52.62103
661.01        52.99687
661.44        53.46438
661.86        53.88813
662.29        54.22383
662.72         54.4656
663.14        54.65351
663.57        54.85213
664.00        55.08575
664.42        55.27378
664.85        55.43636
665.27        55.63977
665.70        55.88255
666.13        56.11353
666.55        56.33311
666.98        56.54835
667.41        56.77198
667.83        57.01978
668.26        57.27531
668.69        57.52936
669.11        57.75495
669.54        57.93388
669.96        58.05602
670.39        58.08147
670.82        58.06416
671.24        58.12989
671.67        58.29845
672.09        58.50264
672.52        58.72513
672.94        58.91285
673.37        59.05578
673.80        59.17197
674.22        59.26867
674.65        59.32387
675.07        59.35956
675.50        59.37251
675.92        59.41531
676.35        59.53913
676.77        59.75146
677.20        60.07029
677.62           60.46
678.05        60.59124
678.47        60.83859
678.90        60.91733
679.32        60.96865
679.75        61.00031
680.17        61.02022
680.60         61.0883
681.02        61.24975
681.45        61.17755
681.87         61.5065
682.30        61.74142
682.72        62.01818
683.15         62.1528
683.57        62.15675
684.00        62.16156
684.42        62.20608
684.85        62.28155
685.27         62.3866
685.70        62.57283
686.12        62.77724
686.54        62.84805
686.97        62.77608
687.39        62.73722
687.82        62.73692
688.24        62.61882
688.66        62.49435
689.09        62.61393
689.51        63.20741
689.94        63.54945
690.36        63.68262
690.78        63.77327
691.21        63.91124
691.63        64.24223
692.06         64.7392
692.48        65.19582
692.90        65.51372
693.33        65.69711
693.75        65.72081
694.17        65.47749
694.60        65.14173
695.02        65.02303
695.44        65.10811
695.87         65.3743
696.29        65.73525
696.71        65.33168
697.14        65.01414
697.56        65.41813
697.98        66.54709
698.41        67.09288
698.83        66.97646
699.25        66.91616
699.68         66.9681
700.10        66.98264
700.52        66.98631
700.94        66.97391
701.37        66.99161
701.79        67.23811
702.21        67.64182
702.64        67.98373
703.06        68.19368
703.48        68.23394
703.90        68.07232
704.33        68.13828
704.75        67.66328
705.17        67.55615
705.59        67.61399
706.01        67.79258
706.44        68.06215
706.86        68.39481
707.28        68.74172
707.70        69.13923
708.12        69.51999
708.55        69.66586
708.97         69.6078
709.39        69.61912
709.81        69.71679
710.23        69.72887
710.66        69.66875
711.08        69.67426
711.50        69.76104
711.92        69.89906
712.34        70.08725
712.76        70.34045
713.19        70.58224
713.61        70.72984
714.03        70.73746
714.45        70.62737
714.87        70.49599
715.29        70.48138
715.71        70.61374
716.13        70.90501
716.56        71.22778
716.98        71.34074
717.40        71.22166
717.82        71.16947
718.24        71.25301
718.66        71.35863
719.08        71.50125
719.50        71.77734
719.92         72.0925
720.34        72.22726
720.76        72.14704
721.19        71.92736
721.61         71.6757
722.03        71.55129
722.45        71.60833
722.87        71.80811
723.29        72.08546
723.71        72.33316
724.13        72.50677
724.55        72.61669
724.97        72.71609
725.39        72.89103
725.81        73.15072
726.23        73.46538
726.65        73.71579
727.07        73.71844
727.49        73.45456
727.91        72.99666
728.33        72.53679
728.75        72.37546
729.17        72.57702
729.59        73.04945
730.01        73.61591
730.43        73.96475
730.85        74.01005
731.27         73.8658
731.69        73.63751
732.10        73.49254
732.52        73.48312
732.94        73.52389
733.36        73.64592
733.78        73.86892
734.20        74.16824
734.62        74.67251
735.04        75.19385
735.46         75.1564
735.88         74.6811
736.30        74.42673
736.72        74.48047
737.13        74.71916
737.55        74.97255
737.97         74.7787
738.39        74.28456
738.81        74.31833
739.23        74.88783
739.65        75.32058
740.06        75.45221
740.48        75.58559
740.90        75.67106
741.32        75.58084
741.74        75.35182
742.16        75.14341
742.57        75.00836
742.99        74.88768
743.41        74.84801
743.83        75.01084
744.25        75.35255
744.67        75.76078
745.08        76.13593
745.50        76.30776
745.92        76.24136
746.34        75.94748
746.75          75.552
747.17        75.27547
747.59        75.15799
748.01        75.26572
748.42        75.55091
748.84        75.47514
749.26        75.53954
749.68        75.68513
750.09        76.02313
750.51        76.37321
750.93         76.6497
751.35        76.71985
751.76        76.63796
752.18        76.67648
752.60        76.86515
753.01         77.0591
753.43        77.19073
753.85        77.27701
754.27        77.31426
754.68        77.30982
755.10         77.3175
755.52         77.4145
755.93        77.59113
756.35         77.8043
756.77         78.0202
757.18        78.08472
757.60        77.98997
758.02        78.05267
758.43        78.14892
758.85        77.67663
759.26        76.98112
759.68        76.96932
760.10        78.16891
760.51        79.15465
760.93         78.8764
761.34        78.68539
761.76        78.47466
762.18        77.93469
762.59        77.40075
763.01        77.78056
763.42        78.90112
763.84        79.36353
764.26        79.05183
764.67        78.50423
765.09        78.04812
765.50         78.1323
765.92        78.68002
766.33         78.7654
766.75         78.3559
767.16        78.28557
767.58        78.60588
768.00        78.60398
768.41        78.47814
768.83        79.34714
769.24        80.84936
769.66        81.33001
770.07        80.77055
770.49        80.21185
770.90        79.90814
771.32        79.93907
771.73        80.20744
772.15        80.16063
772.56        79.80046
772.97        79.49043
773.39        79.34678
773.80        79.58475
774.22         80.0741
774.63        80.33965
775.05        80.29117
775.46        80.35768
775.88        80.50744
776.29        80.47815
776.70         80.3226
777.12        80.32722
777.53         80.5289
777.95         80.7895
778.36         81.0603
778.77        81.17728
779.19         81.1052
779.60         81.1086
780.02        81.12008
780.43        80.66879
780.84        80.01424
781.26        79.89861
781.67        80.34129
782.09        81.10864
782.50        81.81901
782.91        81.48294
783.33        80.39581
783.74        80.15936
784.15        80.89391
784.57        81.63763
784.98        82.24781
785.39        82.75989
785.81        83.06042
786.22        83.41442
786.63        83.42524
787.04        83.34235
787.46        83.16325
787.87        83.11316
788.28        83.23486
788.70        83.31342
789.11        83.32195
789.52        83.52464
789.93        83.81539
790.35        83.71808
790.76        83.31819
791.17        83.13792
791.58        83.22836
792.00        83.22374
792.41        83.14135
792.82         83.2647
793.23        83.51321
793.65        83.52718
794.06        83.33685
794.47        83.20731
794.88        83.19738
795.29         83.2368
795.71        83.26825
796.12        83.47705
796.53        83.75577
796.94        83.81908
797.35        83.62387
797.76        83.35503
798.18        83.14788
798.59        83.08483
799.00        83.21722
799.41        83.52411
799.82        83.93173
800.23        84.29417
800.64        84.55096
801.06        84.71125
801.47        84.79473
801.88        84.72214
802.29        84.50106
802.70        84.14538
803.11        83.77305
803.52        83.57923
803.93        83.62868
804.34         83.8864
804.75        84.24774
805.17        84.59685
805.58         84.9336
805.99        84.95305
806.40        84.75759
806.81        85.22916
807.22        86.06991
807.63        85.63274
808.04        84.16961
808.45        83.56049
808.86        83.97113
809.27        84.38548
809.68        84.64037
810.09        84.91795
810.50         85.1433
810.91        85.27104
811.32        85.31114
811.73         85.2812
812.14        85.20376
812.55        85.08194
812.96         84.9789
813.37        85.00161
813.78        85.17276
814.19        85.46127
814.60         85.7998
815.01         86.0803
815.42        86.26649
815.83        86.37849
816.24        86.41095
816.65        86.35887
817.05        86.23862
817.46        86.03667
817.87        85.81851
818.28        85.62719
818.69        85.47832
819.10        85.36413
819.51        85.32065
819.92        85.40092
820.33        85.59624
820.74        85.87423
821.14        86.12527
821.55        86.22065
821.96        86.12236
822.37        85.88625
822.78        85.59801
823.19        85.41702
823.60        85.41312
824.00        85.57175
824.41        85.83382
824.82        86.22411
825.23        86.69999
825.64        87.22701
826.04        87.73476
826.45        88.00778
826.86         88.0258
827.27        87.84163
827.68         87.4723
828.08        86.98632
828.49        86.40538
828.90        85.74654
829.31        85.18787
829.72        84.99263
830.12        85.25013
830.53        85.87579
830.94        86.60883
831.35        86.90369
831.75        86.64419
832.16        85.93015
832.57        85.20115
832.97         85.1308
833.38        85.82466
833.79        87.04153
834.20        88.35772
834.60        89.05361
835.01        88.88914
835.42        88.15231
835.82        87.12313
836.23        86.22302
836.64        85.62383
837.04        85.21769
837.45        85.03651
837.86        85.21748
838.26         85.7457
838.67        86.54114
839.08        87.36656
839.48        87.77594
839.89        87.64461
840.29        87.10207
840.70        86.34998
841.11        85.69286
841.51         85.2648
841.92        84.95974
842.33        84.84274
842.73        85.01979
843.14         85.4273
843.54        86.11803
843.95        86.84231
844.35        87.25587
844.76        87.22539
845.17        86.81994
845.57        86.30262
845.98        86.09851
846.38        86.33204
846.79        86.86964
847.19        87.45885
847.60        87.55743
848.00        87.07796
848.41         86.1868
848.81        85.26634
849.22        84.87122
849.62        85.14455
850.03         85.8863
850.43        86.79664
850.84        87.17717
851.24        86.92307
851.65          86.205
852.05         85.4155
852.46        85.14768
852.86        85.51854
853.27         86.2794
853.67        87.13817
854.07        87.95229
854.48          88.574
854.88        89.20869
855.29        89.52795
855.69        89.26277
856.10         88.2741
856.50        86.79527
856.90        85.34024
857.31        84.66888
857.71         84.9155
858.12        85.80979
858.52        87.07191
858.92        87.87703
859.33        87.90714
859.73        87.45215
860.13        86.61532
860.54        85.60391
860.94        84.56345
861.34        83.42718
861.75        82.45016
862.15        82.15324
862.55         82.6072
862.96        83.66909
863.36        84.97163
863.76        85.78858
864.17        85.91238
864.57         85.5405
864.97        84.92369
865.38        84.50826
865.78        84.47144
866.18        84.63205
866.58        84.88097
866.99        85.03921
867.39        85.08221
867.79        85.09925
868.19        85.05654
868.60        84.84185
869.00        84.44688
869.40        83.87149
869.80        83.34635
870.21        83.30063
870.61         83.8781
871.01        84.88537
871.41        85.86308
871.81        86.11874
872.22        85.51627
872.62        84.26749
873.02          82.855
873.42        82.07623
873.82        82.16673
874.22        82.92661
874.63        83.93826
875.03        84.52586
875.43        84.51995
875.83        84.11341
876.23        83.70412
876.63        83.91682
877.03        84.85665
877.44        86.25053
877.84        87.63653
878.24        88.20511
878.64        87.76463
879.04        86.61482
879.44        85.21441
879.84         84.2411
880.24         83.8849
880.64        83.95172
881.04        84.25166
881.44        84.46606
881.84        84.50033
882.24        84.49939
882.65        84.48042
883.05        84.58321
883.45         84.7802
883.85        84.96298
884.25        85.19636
884.65        85.62006
885.05        86.23632
885.45        87.02771
885.85        87.72849
886.25        87.88017
886.65        87.38931
887.05        86.38087
887.45        85.29129
887.85        84.80522
888.25        85.07481
888.65        85.92242
889.04        86.87892
889.44        87.15016
889.84        86.57461
890.24        85.40685
890.64        84.16079
891.04         83.5705
891.44        83.79758
891.84        84.65028
892.24        85.65191
892.64        86.00098
893.04        85.51103
893.44        84.43362
893.83        83.36338
894.23        83.21741
894.63        84.12856
895.03        85.79864
895.43        87.56065
895.83        88.21802
896.23         87.4781
896.63        85.82656
897.02         83.9041
897.42        82.72739
897.82        82.46451
898.22        82.86719
898.62         83.6821
899.01         84.5128
899.41         85.1188
899.81         85.6395
900.21        86.18848
900.61        86.93486
901.00        87.87202
901.40        88.82696
901.80        89.54347
902.20        89.68119
902.59        89.20683
902.99        88.27376
903.39        87.19067
903.79         86.4445
904.18        86.17124
904.58        86.26855
904.98        86.57326
905.38        86.83391
905.77        86.95454
906.17        87.03544
906.57        87.04891
906.96        86.95883
907.36         86.7618
907.76        86.47278
908.15        86.22352
908.55        86.19183
908.95        86.43607
909.34        86.91144
909.74        87.46478
910.14        87.92672
910.53        88.20455
910.93        88.31515
911.33        88.27686
911.72         88.1232
912.12        87.89761
912.52        87.60099
912.91        87.20178
913.31         86.6444
913.70        85.97884
914.10        85.27139
914.49        84.71817
914.89        84.58331
915.29        84.90763
915.68        85.59858
916.08        86.43374
916.47         87.0574
916.87        87.33931
917.26        87.36462
917.66        87.23988
918.05        87.13403
918.45        87.10053
918.84        87.12656
919.24        87.18547
919.64        87.34045
920.03        87.60452
920.42        87.94028
920.82        88.31049
921.21        88.66236
921.61         88.9326
922.00        89.13348
922.40        89.19464
922.79         89.1125
923.19        88.88095
923.58        88.53693
923.98        88.11379
924.37        87.55833
924.77        86.93498
925.16        86.25746
925.55        85.70473
925.95        85.53123
926.34        85.82935
926.74        86.48026
927.13        87.34005
927.52        88.06142
927.92        88.51716
928.31        88.79124
928.70        88.94006
929.10        89.10379
929.49        89.34653
929.89        89.58333
930.28        89.76839
930.67        89.79138
931.07        89.60532
931.46        89.23895
931.85        88.80192
932.24        88.46982
932.64        88.30258
933.03        88.34061
933.42        88.34596
933.82        87.96025
934.21        87.14831
934.60        86.00597
934.99        85.04887
935.39        85.02916
935.78        86.10199
936.17        88.07165
936.56        90.15775
936.96        90.91318
937.35        90.01523
937.74        87.90945
938.13         85.5754
938.53        84.31815
938.92        84.36476
939.31        85.38224
939.70        86.84773
940.09        87.79149
940.49        87.88723
940.88        87.46482
941.27        86.89748
941.66        86.74712
942.05         87.1631
942.44        87.92555
942.84        88.76409
943.23         89.3641
943.62        89.52818
944.01        89.41556
944.40        89.17296
944.79        89.01586
945.18        89.01845
945.57         89.0763
945.97         89.1811
946.36        89.43027
946.75        89.77682
947.14        90.22303
947.53        90.58689
947.92        90.53132
948.31        90.00648
948.70        89.15214
949.09        88.26699
949.48        87.78999
949.87        87.85064
950.26        88.36436
950.65        89.16691
951.04        89.95125
951.43        90.55877
951.82        90.97746
952.21        91.30886
952.60        91.75013
952.99        92.28777
953.38        92.80961
953.77        92.99757
954.16        92.32489
954.55        90.79549
954.94        88.78526
955.33        86.76714
955.72        85.42139
956.11        84.94196
956.50        85.06264
956.89        85.80509
957.28        87.19808
957.66        89.13794
958.05        91.46062
958.44         93.4273
958.83         93.6451
959.22        91.89423
959.61        88.74558
960.00        85.32786
960.39        83.25317
960.78        82.89683
961.16        83.83868
961.55        85.59531
961.94        87.43274
962.33        88.97839
962.72        90.43219
963.11        91.54292
963.49        91.85925
963.88        91.27674
964.27         89.9513
964.66        88.36285
965.04        87.23405
965.43        86.72005
965.82        86.63094
966.21        86.87355
966.60        87.21072
966.98        87.53176
967.37        87.91486
967.76        88.16669
968.15        87.91114
968.53        87.13664
968.92         85.9308
969.31        84.74775
969.69        84.34223
970.08        84.81226
970.47        85.92978
970.86        87.27277
971.24        88.05747
971.63        87.92989
972.02        87.21384
972.40        86.08253
972.79        84.85013
973.17        83.72593
973.56        82.67374
973.95        81.93589
974.33        81.91681
974.72        82.59313
975.11        83.82819
975.49        85.42556
975.88        86.82504
976.26        87.81402
976.65        88.40659
977.04        88.37733
977.42        87.37917
977.81        85.52045
978.19        82.97395
978.58        80.79889
978.96        80.33308
979.35         81.7941
979.74        84.90483
980.12        88.92188
980.51        91.57839
980.89         92.2745
981.28        91.39587
981.66        89.73064
982.05        88.70651
982.43        88.73286
982.82        89.27551
983.20        90.29695
983.59        91.54974
983.97        92.94002
984.35        94.52002
984.74        95.65511
985.12        95.41796
985.51        93.67607
985.89        90.70277
986.28        87.52525
986.66        85.65547
987.04        85.61838
987.43        87.01757
987.81        89.09521
988.20        90.28262
988.58        90.15366
988.96        88.96814
989.35        87.56407
989.73        87.26675
990.12        88.30253
990.50         90.2905
990.88        92.08383
991.27         91.8815
991.65        89.47235
992.03        85.59171
992.42        81.69946
992.80        79.73489
993.18        80.28127
993.56        82.67538
993.95        85.92098
994.33        88.59068
994.71        89.83281
995.10        90.03079
995.48        89.33021
995.86        87.97337
996.24        86.26662
996.63        84.22731
997.01        82.18513
997.39        80.65171
997.77        79.76664
998.15        79.48786
998.54        79.86242
998.92        80.91058
999.30        82.51415
999.68        84.61481
1000.06        86.73624
1000.45        88.04001
1000.83        88.41116
1001.21        87.85194
1001.59        86.76669
1001.97        85.99704
1002.35        85.81332
1002.73         85.9843
1003.12         86.2738
1003.50        86.21643
1003.88        85.71729
1004.26        85.04096
1004.64        84.25439
1005.02        83.35586
1005.40        82.43533
1005.78        81.53725
1006.16        80.88375
1006.54        80.89946
1006.92        81.63641
1007.30        82.83041
1007.69        84.25307
1008.07        85.78101
1008.45        87.14521
1008.83        88.40588
1009.21        89.06382
1009.59        88.32449
1009.97        86.15697
1010.35        82.83018
1010.73        79.46829
1011.11        78.04017
1011.49        79.20857
1011.86        82.83653
1012.24        87.64705
1012.62        91.54889
1013.00        93.61358
1013.38        94.09152
1013.76        93.86662
1014.14        94.75076
1014.52        97.24494
1014.90        100.7094
1015.28        103.6143
1015.66        103.4551
1016.04         100.039
1016.41         94.7721
1016.79        89.75941
1017.17        86.56121
1017.55        85.09728
1017.93        84.81065
1018.31        84.87653
1018.69        83.40229
1019.06        80.24047
1019.44        77.03452
1019.82        74.71008
1020.20        73.60762
1020.58        73.58254
1020.95        74.30909
1021.33        76.21246
1021.71        79.69659
1022.09        84.35242
1022.46        89.57384
1022.84        93.93548
1023.22        96.11383
1023.60        95.92556
1023.97        93.72412
1024.35        90.02208
1024.73        86.09555
