SpectraSmart Spectrum 2.9.0.0
--------- Device Information -----------
Spectrum Name :  反射率_0
Saving Time :  2024/05/01 17:06:51
Spectro-Module Model Name : SE2030-DUVN
Spectro-Module Serial Number : OS361AC55029948
Wavelength Start : 200
Wavelength End : 1025
Wavelength Unit : Wavelength(nm)
Spectrum Unit : Reflectance(%)
-----------Spectrum Setting ------------
Integration Time : 20ms
Average : 10
Boxcar : 0
Background removal :  enabled
linearity correction :  enabled
SC :  disabled
Intensity correction :  disabled
DWT denoise :  enabled
savitzky-golay :  disabled
FFT :  disabled
Running average :  disabled
Kalman :  disabled
High pass :  disabled
---------------BEGIN--------------------
Wavelength(nm)             Reflectance(%)
200.29               0
200.75       -219.7001
201.21       -516.6055
201.67        117.5522
202.13        47.87572
202.58        51.89732
203.04        64.49996
203.50        76.81038
203.96        86.50775
204.42        97.11791
204.88        125.8476
205.34        872.5378
205.80       -51.13643
206.26       -32.23056
206.72       -72.61923
207.18       -358.8905
207.64        526.3964
208.10        238.6798
208.55        179.7906
209.01         155.943
209.47        143.6831
209.93        136.7881
210.39        131.3737
210.85        133.4989
211.31        161.3092
211.77        293.5723
212.23       -830.7133
212.69       -153.8437
213.14       -107.2859
213.60       -139.0132
214.06        450.9925
214.52        59.02472
214.98        44.73813
215.44        63.31211
215.90         143.715
216.36        1449.706
216.81       -583.9206
217.27       -764.0796
217.73        1611.497
218.19        334.7665
218.65        236.8859
219.11         258.163
219.57        420.5853
220.02        1131.317
220.48        625.2734
220.94         245.926
221.40        150.6558
221.86        120.2377
222.32        114.0253
222.77        120.4367
223.23        138.0796
223.69        162.6308
224.15        171.0427
224.61        156.7285
225.06        135.4843
225.52        122.6782
225.98        123.6651
226.44        137.3053
226.90        163.6494
227.36        197.6974
227.81        213.4585
228.27        201.1442
228.73        177.6579
229.19        158.8853
229.65         153.731
230.10        160.7335
230.56        176.8231
231.02        197.7502
231.48        209.4491
231.93        205.1048
232.39        193.3508
232.85        179.8401
233.31        169.1985
233.77        162.2928
234.22        157.0467
234.68        154.7123
235.14        156.9945
235.60        164.4081
236.05        179.0895
236.51        200.1368
236.97        218.7331
237.43        224.8106
237.88        216.0967
238.34        199.2293
238.80        188.2159
239.26        186.9462
239.71        195.8478
240.17        212.0134
240.63        219.3467
241.08        203.7206
241.54        173.8204
242.00         148.841
242.46         141.466
242.91        153.0555
243.37        185.9657
243.83        240.2687
244.28        264.2455
244.74        224.3721
245.20        169.7507
245.66        130.7268
246.11        110.8372
246.57        102.5888
247.03        100.2048
247.48        99.50221
247.94        88.82204
248.40        63.75711
248.85        34.60762
249.31        17.73642
249.77        22.71626
250.22         40.5365
250.68        60.80807
251.14        77.81481
251.59        90.35525
252.05        101.9779
252.51        119.6728
252.96        159.3208
253.42        236.2278
253.88        272.9311
254.33        230.8065
254.79        191.7207
255.25        170.1011
255.70        156.7858
256.16        148.8535
256.62        142.5479
257.07        135.8382
257.53        130.6461
257.99        126.8586
258.44        124.8407
258.90        126.1094
259.35        129.3548
259.81        134.0862
260.27        138.7992
260.72        141.5573
261.18        142.5446
261.63        141.8305
262.09        140.5658
262.55        139.0039
263.00        137.1136
263.46        135.2815
263.91        133.1768
264.37        131.2982
264.83        129.5383
265.28        127.8722
265.74        126.5418
266.19        125.1979
266.65         124.035
267.11        122.9321
267.56        122.0353
268.02        121.7641
268.47        122.0245
268.93        122.6243
269.38        123.0886
269.84        122.6641
270.30        121.2036
270.75        118.9171
271.21        116.2963
271.66        113.8786
272.12        111.9296
272.57        110.1815
273.03        108.6057
273.48        106.9704
273.94        105.3422
274.39        103.7661
274.85        102.3047
275.31        100.7671
275.76        99.10677
276.22        97.48981
276.67         95.9622
277.13        94.94878
277.58        94.27527
278.04        93.87384
278.49        93.35675
278.95         92.4311
279.40        90.93596
279.86        89.17839
280.31        87.20744
280.77        85.38375
281.22        83.65657
281.68        82.09337
282.13        80.61224
282.59        79.35499
283.04        78.21577
283.50        77.29201
283.95        76.40636
284.41        75.44424
284.86        74.34824
285.32         73.2238
285.77        72.19241
286.22        71.56942
286.68        71.35043
287.13         71.3649
287.59        71.35126
288.04        70.83376
288.50        69.79465
288.95        68.35334
289.41        66.86657
289.86        65.63423
290.32        64.80982
290.77        64.24632
291.22        63.83462
291.68        63.38086
292.13         62.8111
292.59        62.22742
293.04         61.7027
293.50        61.42615
293.95        61.38654
294.40        61.50746
294.86        61.64308
295.31        61.58216
295.77        61.28265
296.22        60.80384
296.68        60.26251
297.13         59.7771
297.58        59.41909
298.04        59.18023
298.49        59.02158
298.95        58.94468
299.40         58.9081
299.85        58.90942
300.31        58.98564
300.76        59.14417
301.21        59.37833
301.67         59.6732
302.12        59.87286
302.58        59.80077
303.03        59.41598
303.48        58.83017
303.94        58.28918
304.39        58.02906
304.84        58.13009
305.30        58.48645
305.75         58.9175
306.20        59.18634
306.66        59.23277
307.11        59.09267
307.57        58.85578
308.02        58.56083
308.47        58.26219
308.93        57.95057
309.38        57.60752
309.83         57.2826
310.29        57.00327
310.74        56.76841
311.19        56.58044
311.65        56.41449
312.10        56.25101
312.55        56.09221
313.00        55.97184
313.46        55.94411
313.91        55.99569
314.36        56.09366
314.82        56.14207
315.27        56.00966
315.72        55.66526
316.18        55.17283
316.63        54.60968
317.08        54.11756
317.53        53.73646
317.99        53.43453
318.44        53.17977
318.89        52.92164
319.35        52.64836
319.80        52.38873
320.25        52.15662
320.70        51.96554
321.16        51.80762
321.61        51.67548
322.06        51.55775
322.51        51.45195
322.97        51.33704
323.42        51.22454
323.87        51.08128
324.32        50.87128
324.78        50.58578
325.23        50.26032
325.68        49.91621
326.13        49.59759
326.59        49.31214
327.04        49.07574
327.49         48.8845
327.94         48.7445
328.39        48.64795
328.85        48.56955
329.30        48.51987
329.75        48.44819
330.20        48.34336
330.66        48.20933
331.11        48.05982
331.56        47.86454
332.01        47.63417
332.46        47.37442
332.92        47.15184
333.37        47.12881
333.82        47.31695
334.27        47.68538
334.72        48.10463
335.17        48.34464
335.63        48.32049
336.08        48.10608
336.53        47.82153
336.98        47.69529
337.43        47.78878
337.88        48.04289
338.34        48.31316
338.79        48.39376
339.24        48.21817
339.69        47.85938
340.14        47.48394
340.59        47.34763
341.05        47.49884
341.50        47.86394
341.95        48.26484
342.40        48.41787
342.85        48.26125
343.30         47.9006
343.75        47.50377
344.20        47.32735
344.66        47.43448
345.11        47.72472
345.56         48.0989
346.01        48.39062
346.46        48.53537
346.91        48.58832
347.36        48.55935
347.81        48.46009
348.26        48.31454
348.72        48.12787
349.17         47.9311
349.62        47.82724
350.07        47.82744
350.52        47.89194
350.97        47.97165
351.42        47.97628
351.87        47.88131
352.32        47.73501
352.77         47.5101
353.22        47.16775
353.67        46.72665
354.13        46.20874
354.58         45.7385
355.03        45.56007
355.48        45.70457
355.93        46.11437
356.38         46.5564
356.83        46.63353
357.28         46.2673
357.73        45.59237
358.18        44.88825
358.63        44.57267
359.08        44.72252
359.53        45.18679
359.98        45.74146
360.43        46.01305
360.88        45.88314
361.33        45.47717
361.78        44.92467
362.23        44.40631
362.68        43.98726
363.13        43.61664
363.58        43.27657
364.03        42.95428
364.48        42.64215
364.93        42.34871
365.38        42.09616
365.83        41.90038
366.28         41.7511
366.73         41.6419
367.18        41.48298
367.63        41.13857
368.08        40.60594
368.53        39.94384
368.98        39.30921
369.43        38.93225
369.88        38.84872
370.33        38.98096
370.78        39.19072
371.23        39.23027
371.68        39.02357
372.13        38.65843
372.58        38.21434
373.03        37.80746
373.48         37.4806
373.93        37.18856
374.38        36.95776
374.83        36.84248
375.28        36.83382
375.72        36.90545
376.17        36.97495
376.62        36.89188
377.07        36.62831
377.52        36.23382
377.97        35.77789
378.42        35.37588
378.87        35.07154
379.32        34.83766
379.77        34.67096
380.22         34.5621
380.67        34.49868
381.11        34.48988
381.56        34.50124
382.01         34.4795
382.46        34.41059
382.91        34.29975
383.36        34.16914
383.81        34.06337
384.26          33.985
384.71        33.90697
385.15        33.80476
385.60        33.66716
386.05        33.48289
386.50        33.27657
386.95        33.03613
387.40        32.74149
387.85        32.41014
388.29        32.03824
388.74        31.73986
389.19        31.58739
389.64        31.58327
390.09        31.68552
390.54        31.81113
390.98        31.82072
391.43        31.69818
391.88        31.48833
392.33          31.244
392.78        31.05351
393.23        30.94167
393.67        30.83245
394.12        30.75044
394.57        30.76531
395.02        30.82372
395.47         30.7156
395.91        30.49737
396.36        30.43145
396.81         30.5413
397.26        30.69205
397.71         30.7939
398.15        30.78733
398.60        30.69504
399.05        30.42288
399.50         30.1039
399.95        30.14101
400.39        30.46362
400.84        30.49145
401.29        30.19845
401.74        30.02366
402.18        29.97846
402.63        29.77767
403.08         29.4789
403.53        29.30264
403.97        29.26464
404.42        29.30405
404.87         29.3559
405.32        29.32027
405.76        29.17028
406.21         28.9563
406.66        28.72741
407.11        28.55825
407.55         28.4788
408.00        28.46483
408.45        28.49774
408.90        28.50355
409.34        28.47675
409.79        28.50277
410.24        28.56236
410.68        28.56183
411.13        28.50054
411.58        28.41751
412.03        28.32733
412.47        28.24731
412.92        28.18109
413.37        28.13134
413.81        28.08866
414.26        28.05942
414.71        28.03268
415.15        28.01916
415.60         27.9961
416.05        27.95211
416.49        27.88584
416.94        27.79603
417.39        27.70589
417.83        27.65166
418.28        27.63888
418.73        27.65398
419.17        27.66705
419.62        27.62538
420.07        27.52473
420.51        27.38386
420.96        27.24887
421.41        27.15582
421.85        27.10787
422.30        27.10359
422.74        27.13095
423.19        27.20176
423.64        27.30132
424.08         27.4372
424.53        27.54783
424.98        27.56536
425.42         27.4828
425.87        27.32589
426.31        27.15093
426.76         27.0566
427.21        27.05824
427.65        27.11656
428.10        27.22535
428.54         27.3653
428.99        27.52576
429.44        27.74389
429.88        27.89792
430.33         27.8269
430.77        27.53197
431.22        27.10519
431.66        26.70197
432.11        26.64375
432.56        26.89623
433.00         27.1374
433.45        27.15996
433.89        26.95709
434.34         26.3819
434.78        26.28208
435.23        26.85062
435.67        27.07464
436.12        27.00219
436.57        27.12482
437.01        27.40241
437.46        27.45233
437.90        27.24339
438.35        26.94105
438.79        26.63719
439.24        26.39983
439.68        26.30934
440.13         26.5225
440.57        26.92021
441.02        27.15971
441.46        27.17734
441.91         27.0372
442.35        26.82242
442.80        26.93627
443.24        27.26179
443.69        27.13862
444.13        26.63849
444.58        26.43695
445.02        26.54471
445.47        26.61879
445.91         26.6219
446.36        26.65715
446.80        26.70901
447.24        26.75045
447.69        26.78505
448.13        26.81718
448.58        26.84801
449.02        26.86351
449.47        26.86947
449.91        26.85645
450.36        26.83223
450.80        26.79934
451.25        26.74969
451.69        26.65215
452.13        26.51214
452.58        26.34392
453.02        26.19017
453.47         26.1326
453.91        26.17947
454.36        26.31469
454.80        26.46631
455.24         26.5193
455.69        26.45601
456.13        26.29657
456.58        26.13491
457.02        26.07995
457.46        26.15955
457.91        26.33411
458.35        26.51831
458.79         26.5405
459.24        26.38381
459.68        26.17809
460.13        26.04713
460.57        25.65584
461.01        25.77489
461.46        25.80111
461.90        25.91364
462.34        25.93623
462.79         25.9891
463.23        25.97614
463.68        25.95657
464.12        25.96362
464.56        26.00396
465.01        26.09643
465.45        26.16414
465.89        26.14628
466.34        26.04256
466.78        25.86736
467.22         25.6804
467.67        25.63134
468.11        25.64281
468.55        25.77171
468.99        25.93339
469.44        26.04535
469.88        26.08694
470.32        26.07855
470.77        26.04283
471.21        26.01759
471.65        26.01341
472.10        26.01913
472.54        26.02277
472.98        26.02269
473.42        26.01828
473.87        26.02481
474.31        26.02596
474.75        26.01965
475.20        26.01225
475.64        25.99289
476.08         25.9764
476.52        26.00619
476.97         26.0875
477.41        26.16148
477.85        26.18625
478.29        26.37878
478.74        26.31644
479.18        26.30024
479.62        26.22464
480.06        26.25841
480.50        26.42635
480.95        26.19817
481.39          26.452
481.83        26.43781
482.27        26.43011
482.72        26.44105
483.16        26.48082
483.60        26.56178
484.04        26.64596
484.48        26.70275
484.93         26.8869
485.37        27.09608
485.81        27.18614
486.25        27.93646
486.69        27.31163
487.14        26.53708
487.58        26.60864
488.02        27.38519
488.46        27.25856
488.90        27.34102
489.34        27.35107
489.79         27.1936
490.23        27.29675
490.67         27.5832
491.11         28.0335
491.55        28.06842
491.99        27.74351
492.43        27.68662
492.88        27.93122
493.32        28.09287
493.76        28.14055
494.20        28.23292
494.64        28.37597
495.08        28.49923
495.52        28.59377
495.96        28.75187
496.41        28.94556
496.85        28.91953
497.29        28.75174
497.73        28.94577
498.17        29.42413
498.61        29.50853
499.05        29.24061
499.49        29.23614
499.93        29.51621
500.37        29.73827
500.82        29.86777
501.26        30.00236
501.70        30.13119
502.14        30.23036
502.58        30.29443
503.02        30.31643
503.46        30.30305
503.90        30.26426
504.34        30.23698
504.78        30.27649
505.22        30.39338
505.66        30.57254
506.10        30.76794
506.54        30.89974
506.98        30.94683
507.42        30.93426
507.86        30.89674
508.30          30.889
508.74         30.9294
509.18        31.00191
509.62        31.09614
510.06         31.1962
510.50        31.29211
510.94        31.38576
511.38         31.4737
511.82        31.54926
512.26        31.60714
512.70        31.64334
513.14         31.6503
513.58        31.61961
514.02        31.55455
514.46        31.46455
514.90        31.36639
515.34        31.28602
515.78        31.23428
516.22        31.20829
516.66        31.20721
517.10        31.22577
517.54        31.25917
517.98        31.30789
518.42         31.3606
518.86        31.39823
519.30         31.4156
519.74        31.41401
520.18        31.40326
520.62        31.40286
521.06        31.41487
521.50        31.42846
521.93        31.43612
522.37        31.41994
522.81        31.37881
523.25        31.32384
523.69        31.25179
524.13        31.15518
524.57         31.0418
525.01        30.92007
525.45        30.81955
525.89        30.78572
526.32        30.82344
526.76        30.91183
527.20        31.01787
527.64        31.08817
528.08        31.10382
528.52        31.08017
528.96        31.02075
529.40        30.93331
529.83        30.82478
530.27         30.7034
530.71        30.59208
531.15        30.53505
531.59        30.54015
532.03        30.59442
532.46         30.6643
532.90        30.70099
533.34        30.69063
533.78        30.62296
534.22        30.51999
534.66        30.46926
535.09        30.45161
535.53         30.3491
535.97        30.18097
536.41        30.08786
536.85        30.08075
537.28        30.09059
537.72        30.10679
538.16        30.13945
538.60        30.18147
539.04        30.22838
539.47        30.27676
539.91        30.34005
540.35        30.41034
540.79        30.49401
541.22        30.58511
541.66        30.63099
542.10        30.70735
542.54        30.75489
542.97        30.80071
543.41        30.86711
543.85        30.95456
544.29        31.06328
544.72        31.18088
545.16        31.30353
545.60        31.42319
546.04        31.53539
546.47        31.65502
546.91        31.81116
547.35        32.00403
547.79        32.21338
548.22        32.38021
548.66        32.48624
549.10        32.52872
549.53         32.3765
549.97        32.38055
550.41        32.43815
550.84        32.65572
551.28         32.9977
551.72        33.38937
552.15        33.67327
552.59        33.82813
553.03        33.93863
553.46        34.02116
553.90         34.1225
554.34        34.25838
554.77        34.35577
555.21        34.38225
555.65        34.66497
556.08        34.54734
556.52        34.58665
556.96        34.59741
557.39        34.62713
557.83        34.69183
558.27        34.73385
558.70        34.75951
559.14        34.94876
559.57        34.98583
560.01        35.17105
560.45         35.3429
560.88        35.35979
561.32        35.28762
561.75        35.18826
562.19        35.15125
562.63        35.41691
563.06        35.85351
563.50         35.8144
563.93        35.38668
564.37        35.30817
564.80        35.59004
565.24         35.8387
565.68        35.98556
566.11        36.10719
566.55        36.20058
566.98        36.23372
567.42        36.26859
567.85        36.36972
568.29        36.56696
568.72        36.81004
569.16        37.09156
569.60         37.2971
570.03        37.38239
570.47        37.42477
570.90         37.7737
571.34        37.37608
571.77        37.76031
572.21        37.87521
572.64        38.15368
573.08        38.05096
573.51         38.3592
573.95        38.68591
574.38        38.42221
574.82        38.73702
575.25        38.91602
575.69        39.01168
576.12         38.8537
576.56        38.66462
576.99        39.28021
577.42        39.29204
577.86        39.13111
578.29        39.22627
578.73        39.33503
579.16        39.16305
579.60        38.51229
580.03        38.33312
580.47        38.76887
580.90        38.12954
581.33        38.58265
581.77        38.93753
582.20         38.7895
582.64        38.73655
583.07        38.48515
583.51        38.16791
583.94        37.95353
584.37        38.03685
584.81        38.37958
585.24        38.37044
585.68        38.03083
586.11        37.86322
586.54        37.95443
586.98        37.40297
587.41        37.26796
587.85        37.58656
588.28        37.48256
588.71        36.94609
589.15        37.43383
589.58        36.92619
590.01        36.98014
590.45        36.95539
590.88        37.13934
591.31        37.21324
591.75        37.14904
592.18        37.02707
592.61        36.84449
593.05        37.13043
593.48        37.07564
593.91        37.14136
594.35        37.23963
594.78         37.3607
595.21         37.4719
595.65        37.66191
596.08        37.48883
596.51        37.54002
596.94        37.83669
597.38        38.08128
597.81        38.37563
598.24         38.2097
598.68         38.7677
599.11        38.90287
599.54        39.67963
599.97        39.36868
600.41        39.93247
600.84        40.42788
601.27        40.52064
601.70         41.0365
602.14        41.41369
602.57        41.64952
603.00        41.72506
603.43        41.92108
603.87        42.52459
604.30        42.97165
604.73        43.42124
605.16         43.3828
605.60        43.99163
606.03        44.49076
606.46        45.04216
606.89        45.23777
607.32         45.2589
607.76        45.42433
608.19        45.78917
608.62        46.45587
609.05        46.79688
609.48        47.15535
609.92        47.46457
610.35        47.51972
610.78         48.3902
611.21        48.83457
611.64        48.85277
612.07        49.01724
612.50        49.28999
612.94        49.41072
613.37        49.41412
613.80        49.85111
614.23        50.04175
614.66        50.57042
615.09        50.50195
615.52        50.78412
615.96        51.12489
616.39        51.74474
616.82        51.98329
617.25        51.97741
617.68        52.16644
618.11        52.23171
618.54        52.37059
618.97         52.4942
619.40        52.65114
619.84        52.80772
620.27        52.95761
620.70        53.35532
621.13        53.91332
621.56        53.54091
621.99        53.35413
622.42        53.31023
622.85        53.68572
623.28        54.04168
623.71         53.5741
624.14         54.1265
624.57        54.04353
625.00        54.26088
625.43        54.39402
625.86         53.8266
626.29        53.77832
626.72        53.74356
627.15        53.39432
627.58         53.1962
628.01         52.9617
628.44        52.93826
628.87        53.04585
629.30        52.83572
629.73        52.31039
630.16        52.35325
630.59         51.9642
631.02        51.78835
631.45        51.53587
631.88        51.20772
632.31        50.77277
632.74        50.73363
633.17        50.21534
633.60        49.91108
634.03        49.55819
634.46        49.18621
634.89         48.7955
635.32        48.40453
635.75        48.02836
636.18        47.65758
636.61         47.2892
637.04        46.91476
637.47        46.53585
637.89         46.1497
638.32        45.74686
638.75        45.38755
639.18        45.08975
639.61        44.65734
640.04        44.43372
640.47        44.15578
640.90        43.92198
641.33        43.71658
641.76        43.51718
642.18        43.34715
642.61        43.20459
643.04         42.9941
643.47        42.70229
643.90        42.91079
644.33        42.70097
644.76        42.74244
645.18        42.76813
645.61        42.95386
646.04        43.21941
646.47        43.22712
646.90        43.04433
647.33        43.06883
647.75        43.33134
648.18        43.61289
648.61        43.87686
649.04        44.13089
649.47        44.35535
649.89        44.64545
650.32        44.99038
650.75        45.16143
651.18        45.24749
651.61        45.78444
652.03        46.70046
652.46        47.15741
652.89        47.17032
653.32        47.48729
653.74        48.27601
654.17        48.38993
654.60         49.3227
655.03        49.59908
655.46        49.74136
655.88        50.47411
656.31        56.63188
656.74        56.29278
657.16        51.83468
657.59        50.72144
658.02        51.96209
658.45        52.34449
658.87        53.07673
659.30        52.77379
659.73        53.38512
660.15        54.26315
660.58        54.17261
661.01         54.4241
661.44        54.59336
661.86        54.89356
662.29         55.3211
662.72        55.76497
663.14        56.19926
663.57        56.55609
664.00        56.81003
664.42        56.97753
664.85         57.0703
665.27        57.03942
665.70        56.96969
666.13        57.03292
666.55        57.27151
666.98        57.62931
667.41        58.04931
667.83        58.43116
668.26        58.72045
668.69        58.94505
669.11        59.12405
669.54         59.3033
669.96         59.4845
670.39        59.61666
670.82        59.71494
671.24        59.78436
671.67        59.86369
672.09        60.06177
672.52        60.33263
672.94        60.44762
673.37        60.39729
673.80          60.292
674.22        60.21648
674.65        60.23779
675.07        60.39866
675.50        60.66283
675.92        60.97326
676.35         61.2287
676.77        61.40084
677.20        61.51519
677.62        61.60943
678.05        61.71331
678.47          61.835
678.90        62.04137
679.32        62.16618
679.75        62.30238
680.17        62.39775
680.60        62.48042
681.02        62.56829
681.45        62.64896
681.87        62.75187
682.30        62.92227
682.72        63.14591
683.15        63.29716
683.57        63.37921
684.00         63.4771
684.42        63.59975
684.85        63.72227
685.27        63.83405
685.70         63.9551
686.12        64.05994
686.54        64.14066
686.97        64.19166
687.39        64.23265
687.82        64.22141
688.24          64.316
688.66         64.0078
689.09        64.19022
689.51        64.64572
689.94        64.93248
690.36        65.01797
690.78        65.09119
691.21         65.2394
691.63        65.55709
692.06        66.03006
692.48        66.52396
692.90        66.92537
693.33        67.14827
693.75        67.16039
694.17        66.89734
694.60        66.53764
695.02        66.41061
695.44        66.51059
695.87        66.74406
696.29        67.02597
696.71        66.74928
697.14        66.42542
697.56        66.83318
697.98        67.89294
698.41        68.37151
698.83        68.22448
699.25        68.23533
699.68        68.43811
700.10        68.54592
700.52        68.56538
700.94        68.57019
701.37        68.59987
701.79        68.80402
702.21         69.1143
702.64        69.33456
703.06        69.42234
703.48        69.38139
703.90        69.19444
704.33        69.28577
704.75        68.87301
705.17        68.87744
705.59        69.07353
706.01        69.40234
706.44        69.79667
706.86        70.15184
707.28        70.40366
707.70        70.67231
708.12        70.90624
708.55        70.78616
708.97        70.42264
709.39         70.3686
709.81        70.62836
710.23        70.74117
710.66        70.69353
711.08        70.79576
711.50        71.02866
711.92        71.22507
712.34        71.37065
712.76        71.51079
713.19        71.62257
713.61        71.72174
714.03        71.78867
714.45        71.81136
714.87        71.83145
715.29        71.92003
715.71        72.08841
716.13        72.32438
716.56        72.53603
716.98        72.65688
717.40        72.63155
717.82        72.48867
718.24        72.33099
718.66        72.32314
719.08        72.49793
719.50        72.80602
719.92        73.12782
720.34        73.26782
720.76        73.18163
721.19        72.93468
721.61         72.6527
722.03        72.52551
722.45         72.6116
722.87        72.86343
723.29        73.18844
723.71         73.4331
724.13         73.5445
724.55        73.55347
724.97        73.55336
725.39        73.66932
725.81        73.91983
726.23        74.30447
726.65        74.69319
727.07        74.63799
727.49        74.49609
727.91        74.04601
728.33        73.59473
728.75        73.43311
729.17        73.63067
729.59        74.08159
730.01        74.63294
730.43        75.02628
730.85        75.17781
731.27        75.18441
731.69        75.07986
732.10        74.94413
732.52        74.82096
732.94        74.60529
733.36        74.39511
733.78        74.58775
734.20        74.80524
734.62        75.37791
735.04        76.19843
735.46          76.199
735.88        75.62487
736.30        75.59991
736.72        76.12546
737.13        76.48058
737.55        76.48906
737.97        76.09454
738.39        75.51002
738.81        75.50537
739.23        76.06649
739.65        76.39306
740.06         76.3649
740.48        76.49265
740.90        76.73078
741.32        76.82478
741.74        76.76051
742.16        76.67374
742.57        76.58729
742.99        76.44717
743.41        76.34623
743.83        76.41882
744.25        76.67335
744.67         77.0727
745.08        77.48271
745.50        77.59755
745.92        77.37444
746.34        76.89632
746.75        76.34189
747.17         76.0141
747.59        75.97244
748.01        76.19559
748.42        76.55669
748.84        76.70563
749.26        76.64633
749.68        76.63794
750.09        76.74537
750.51         77.0077
750.93        77.36668
751.35        77.60027
751.76        77.69104
752.18        77.82069
752.60         77.9817
753.01        78.02934
753.43         77.9653
753.85        77.95324
754.27         78.0232
754.68        78.12483
755.10        78.26463
755.52        78.45815
755.93        78.67571
756.35        78.89372
756.77        79.09844
757.18        79.18057
757.60        79.13356
758.02        79.22121
758.43        79.31638
758.85        78.86994
759.26        78.13718
759.68        78.07397
760.10        78.61257
760.51        79.37281
760.93        79.23521
761.34        78.97726
761.76        79.38458
762.18        78.83583
762.59        78.01199
763.01        78.35291
763.42        79.71235
763.84        80.25007
764.26        79.83507
764.67        79.25712
765.09        78.83484
765.50        78.99031
765.92        79.63869
766.33        79.69391
766.75        79.02728
767.16        79.31561
767.58        79.51762
768.00        79.57677
768.41        79.39334
768.83        80.09701
769.24        81.37684
769.66        82.00114
770.07        81.89073
770.49        80.97217
770.90        80.49085
771.32        80.44823
771.73        81.00974
772.15        81.14107
772.56        80.84505
772.97        80.38672
773.39        80.66284
773.80        80.71423
774.22        80.75521
774.63        80.91034
775.05        81.09211
775.46        81.21072
775.88        81.20572
776.29        81.13129
776.70          81.047
777.12        81.09303
777.53        81.30435
777.95        81.59217
778.36        81.88339
778.77        81.99765
779.19        81.90049
779.60        81.77671
780.02        81.63152
780.43        81.28824
780.84        80.97945
781.26        80.96976
781.67        81.19215
782.09        81.90937
782.50         82.8821
782.91        81.51942
783.33        81.03439
783.74        80.63503
784.15        81.30234
784.57        82.12088
784.98        82.95556
785.39        83.61943
785.81        83.91793
786.22        84.58025
786.63        84.46294
787.04        84.42674
787.46        84.23277
787.87        84.00081
788.28        83.84892
788.70        83.80883
789.11        83.87778
789.52        84.18674
789.93        84.56249
790.35        84.47186
790.76        83.97444
791.17        83.58881
791.58        83.40258
792.00        83.21609
792.41        83.09907
792.82        83.07291
793.23        83.14291
793.65        83.61835
794.06        84.27351
794.47        84.13952
794.88        83.45656
795.29        83.30121
795.71        83.63709
796.12        84.18228
796.53         84.6806
796.94        84.45821
797.35        83.62648
797.76        83.39365
798.18        83.81826
798.59        83.93927
799.00        83.76393
799.41        83.88147
799.82        84.27213
800.23         84.5789
800.64        84.75491
801.06        84.87494
801.47        84.95439
801.88        84.90424
802.29        84.72486
802.70        84.41182
803.11         84.0867
803.52        83.96125
803.93        84.10166
804.34        84.46805
804.75        84.90895
805.17        85.26717
805.58        85.54346
805.99        85.34981
806.40        84.88902
806.81         85.4534
807.22        86.65749
807.63        86.24261
808.04        84.48891
808.45        83.82878
808.86        84.44794
809.27         85.0051
809.68        85.27769
810.09        85.51359
810.50        85.63088
810.91        85.56897
811.32        85.41118
811.73        85.29955
812.14        85.28703
812.55        85.34656
812.96        85.47997
813.37        85.67657
813.78        85.91768
814.19        86.20725
814.60        86.50088
815.01        86.72653
815.42        86.86505
815.83        86.91997
816.24        86.90131
816.65        86.84031
817.05        86.75656
817.46        86.62489
817.87        86.47792
818.28        86.30362
818.69        86.10495
819.10        85.89332
819.51        85.71403
819.92        85.64458
820.33        85.69999
820.74        85.84753
821.14        86.01241
821.55        86.11488
821.96        86.12067
822.37        86.07615
822.78        86.01296
823.19        85.98595
823.60        86.03208
824.00        86.16055
824.41        86.36028
824.82        86.74777
825.23        87.30261
825.64        87.94836
826.04        88.58798
826.45        88.96153
826.86        89.02886
827.27        88.86968
827.68        88.46946
828.08        87.84094
828.49        87.01428
828.90        86.02934
829.31        85.17122
829.72        84.87596
830.12        85.26608
830.53        86.20714
830.94        87.31855
831.35         87.8304
831.75        87.55205
832.16        86.65016
832.57        85.64719
832.97        85.34602
833.38        85.90257
833.79        87.04238
834.20        88.34495
834.60        89.09904
835.01          89.052
835.42        88.48258
835.82        87.64202
836.23        86.90418
836.64          86.416
837.04        86.06721
837.45        85.86497
837.86        85.91387
838.26         86.2124
838.67         86.7175
839.08        87.25011
839.48        87.45673
839.89        87.24778
840.29        86.72658
840.70        86.11246
841.11        85.72782
841.51        85.68375
841.92        85.86064
842.33        86.19772
842.73        86.60024
843.14        86.95739
843.54        87.35693
843.95        87.70556
844.35        87.94579
844.76        88.01625
845.17        87.90411
845.57        87.70126
845.98        87.55534
846.38        87.52837
846.79        87.58636
847.19        87.62324
847.60        87.34837
848.00        86.76334
848.41        85.95422
848.81        85.22255
849.22        85.00156
849.62        85.38902
850.03        86.22473
850.43        87.20824
850.84        87.63251
851.24         87.3948
851.65        86.65099
852.05        85.81596
852.46        85.53439
852.86        85.93488
853.27        86.75739
853.67        87.68588
854.07        88.54293
854.48        89.17445
854.88        89.79678
855.29        90.08694
855.69        89.79644
856.10        88.78317
856.50        87.25506
856.90        85.72919
857.31         84.9648
857.71        85.09908
858.12        85.89762
858.52        87.02977
858.92        87.58114
859.33        87.25046
859.73        86.36234
860.13        85.22585
860.54        84.36275
860.94        83.94935
861.34        83.80601
861.75        83.87753
862.15        84.15073
862.55        84.54665
862.96        85.08111
863.36        85.64072
863.76        85.92757
864.17        85.87518
864.57        85.55151
864.97        85.12757
865.38        84.91768
865.78        85.03661
866.18        85.36776
866.58          85.747
866.99         85.8761
867.39        85.71956
867.79        85.39314
868.19        84.98849
868.60        84.58732
869.00        84.23059
869.40        83.88698
869.80        83.69933
870.21        83.92425
870.61        84.63284
871.01        85.64848
871.41        86.61114
871.81        86.98386
872.22         86.6567
872.62        85.80293
873.02        84.71495
873.42        83.89169
873.82        83.52004
874.22        83.48643
874.63        83.69402
875.03         83.9715
875.43        84.24217
875.83        84.55197
876.23        84.90315
876.63        85.28308
877.03        85.67112
877.44        86.01772
877.84        86.27547
878.24        86.32439
878.64        86.15978
879.04        85.83557
879.44        85.49777
879.84        85.36736
880.24        85.48111
880.64        85.76024
881.04        86.10571
881.44        86.34246
881.84        86.42018
882.24        86.41582
882.65        86.27916
883.05        86.06991
883.45        85.78233
883.85         85.4132
884.25        85.15762
884.65        85.30417
885.05        85.88267
885.45        86.81793
885.85        87.79745
886.25        88.27535
886.65        88.09377
887.05        87.37854
887.45        86.48795
887.85        85.99496
888.25        86.04903
888.65        86.51337
889.04        87.04044
889.44        87.04594
889.84        86.42861
890.24        85.38293
890.64        84.36012
891.04        83.99419
891.44        84.40416
891.84        85.42313
892.24        86.54048
892.64        86.89568
893.04        86.29654
893.44        85.00746
893.83        83.68737
894.23        83.35445
894.63        84.16783
895.03        85.81573
895.43        87.60741
895.83        88.28872
896.23        87.55939
896.63        85.94051
897.02        84.08439
897.42        83.02932
897.82        82.93896
898.22        83.51963
898.62        84.54008
899.01        85.64407
899.41        86.57376
899.81        87.46542
900.21        88.27278
900.61        88.90045
901.00         89.3165
901.40        89.44827
901.80        89.34662
902.20        89.14373
902.59        88.90686
902.99        88.64874
903.39        88.39387
903.79        88.15751
904.18        87.93217
904.58        87.74414
904.98        87.62273
905.38        87.61174
905.77        87.70338
906.17        87.91869
906.57        88.08778
906.96        87.96086
907.36        87.48366
907.76        86.73119
908.15        86.05062
908.55        85.94839
908.95        86.54384
909.34        87.70757
909.74        88.94912
910.14        89.54965
910.53        89.32173
910.93        88.46891
911.33        87.45805
911.72        87.03271
912.12        87.38221
912.52        88.25916
912.91        89.21561
913.31        89.50153
913.70        88.95441
914.10        87.86015
914.49        86.65377
914.89        85.97458
915.29         85.9989
915.68        86.50964
916.08        87.26237
916.47        87.88295
916.87        88.20986
917.26        88.35962
917.66        88.37508
918.05        88.29572
918.45        88.15399
918.84         87.9725
919.24        87.77432
919.64        87.73131
920.03        87.90376
920.42        88.21942
920.82        88.65737
921.21        89.19345
921.61        89.74322
922.00        90.29578
922.40        90.67818
922.79         90.7013
923.19        90.31173
923.58        89.61733
923.98        88.74407
924.37         87.7599
924.77        86.77851
925.16        85.79771
925.55        85.03072
925.95        84.79385
926.34        85.18082
926.74        86.03907
927.13        87.17288
927.52        88.14501
927.92        88.78497
928.31        89.19487
928.70        89.36993
929.10         89.3623
929.49        89.25105
929.89        88.99553
930.28        88.72514
930.67        88.61625
931.07        88.69122
931.46        88.89839
931.85        89.17856
932.24        89.41595
932.64        89.56438
933.03        89.72327
933.42        89.72203
933.82         89.3203
934.21        88.52133
934.60        87.38039
934.99        86.38853
935.39        86.26366
935.78        87.16556
936.17        88.93813
936.56        90.84696
936.96        91.52403
937.35        90.65919
937.74        88.63525
938.13        86.41196
938.53        85.27054
938.92        85.41875
939.31        86.55656
939.70        88.03671
940.09        88.67667
940.49        88.15461
940.88        86.89268
941.27        85.57618
941.66        85.22394
942.05        86.06324
942.44        87.75548
942.84        89.70989
943.23        90.97963
943.62        91.14323
944.01        90.53645
944.40        89.56733
944.79        88.88879
945.18         88.7109
945.57        88.77452
945.97        89.00817
946.36        89.41618
946.75        89.90607
947.14        90.56061
947.53        91.10677
947.92        91.01941
948.31        90.23396
948.70        88.93217
949.09        87.64268
949.48        87.17571
949.87        87.71635
950.26        89.05639
950.65        90.76595
951.04        92.05601
951.43        92.62407
951.82        92.62322
952.21        92.35063
952.60        92.29871
952.99        92.55693
953.38        92.92054
953.77        93.08516
954.16        92.55101
954.55        91.28847
954.94        89.66675
955.33        88.02726
955.72        86.82987
956.11        86.23013
956.50        86.02599
956.89         86.3477
957.28        87.41705
957.66         89.1971
958.05        91.46739
958.44        93.49623
958.83        93.88806
959.22        92.38966
959.61        89.57227
960.00        86.44865
960.39        84.46344
960.78          83.968
961.16        84.56824
961.55        85.92121
961.94        87.54651
962.33        89.14162
962.72        90.85551
963.11        92.27355
963.49         92.6356
963.88        91.77374
964.27        89.97797
964.66         87.9322
965.04         86.6325
965.43        86.27916
965.82        86.57578
966.21        87.32036
966.60        88.06732
966.98         88.6142
967.37         89.1146
967.76        89.35555
968.15        88.93719
968.53        87.87717
968.92        86.25007
969.31        84.69498
969.69         84.2596
970.08        85.09514
970.47        86.93147
970.86        89.05758
971.24        90.13824
971.63        89.66791
972.02         88.1261
972.40        86.08214
972.79        84.46491
973.17         83.5868
973.56        83.18549
973.95         83.1494
974.33        83.34475
974.72         83.6181
975.11        84.02226
975.49        84.58692
975.88        85.19765
976.26        85.86704
976.65        86.49795
977.04        86.82207
977.42         86.4212
977.81        85.28022
978.19        83.50988
978.58        82.04213
978.96        82.02448
979.35        83.64366
979.74        86.71699
980.12        90.40887
980.51        92.33656
980.89         91.9668
981.28        89.71792
981.66        86.94859
982.05        85.95187
982.43        87.26175
982.82        90.14745
983.20        93.64967
983.59        95.89775
983.97        96.40327
984.35        95.69961
984.74        94.19836
985.12        92.67239
985.51        91.42855
985.89        90.21362
986.28        89.27087
986.66        88.85336
987.04         89.0881
987.43        89.93796
987.81         91.0872
988.20        91.70843
988.58        91.60792
988.96        90.75941
989.35        89.65803
989.73        89.12471
990.12        89.29149
990.50        90.05066
990.88        90.58343
991.27        89.58236
991.65        86.99265
992.03         83.3606
992.42        80.01053
992.80        78.68958
993.18        79.87528
993.56        82.96292
993.95        86.80098
994.33        89.67532
994.71        90.68359
995.10        90.27195
995.48        88.86421
995.86        87.20766
996.24        85.72501
996.63        84.24989
997.01        82.91295
997.39        81.92731
997.77        81.32956
998.15        81.17868
998.54        81.45126
998.92         82.0468
999.30        82.86089
999.68        83.86207
1000.06        84.84283
1000.45        85.43738
1000.83        85.68287
1001.21        85.53603
1001.59        85.14851
1001.97        84.86852
1002.35        84.79397
1002.73        84.78423
1003.12         84.8429
1003.50        84.89929
1003.88        84.94604
1004.26        85.11897
1004.64        85.14907
1005.02        84.58378
1005.40        83.42559
1005.78        81.79153
1006.16        80.36823
1006.54        80.38619
1006.92        82.08376
1007.30        85.00669
1007.69        88.10878
1008.07        89.93537
1008.45        89.94699
1008.83        88.58508
1009.21        86.44836
1009.59        84.57205
1009.97        83.40579
1010.35        82.74429
1010.73        82.58938
1011.11        82.91343
1011.49        83.73215
1011.86        85.38015
1012.24        87.56297
1012.62        90.14252
1013.00        92.92559
1013.38        95.63624
1013.76        98.21696
1014.14        100.7778
1014.52        103.2068
1014.90        105.4342
1015.28        106.5225
1015.66        105.0589
1016.04        101.3163
1016.41        96.28191
1016.79        91.85496
1017.17        89.48613
1017.55        89.10358
1017.93         90.3595
1018.31        92.33355
1018.69        92.23032
1019.06        89.22123
1019.44        85.22058
1019.82         81.7671
1020.20        79.70132
1020.58        78.86127
1020.95        78.75993
1021.33        79.65723
1021.71        81.86746
1022.09        85.12906
1022.46         89.0423
1022.84        92.53954
1023.22        94.61943
1023.60        95.10812
1023.97         94.3107
1024.35        92.23344
1024.73        89.23593
