SpectraSmart Spectrum 2.9.0.0
--------- Device Information -----------
Spectrum Name :  反射率_0
Saving Time :  2024/05/01 16:46:04
Spectro-Module Model Name : SE2030-DUVN
Spectro-Module Serial Number : OS361AC55029948
Wavelength Start : 200
Wavelength End : 1025
Wavelength Unit : Wavelength(nm)
Spectrum Unit : Reflectance(%)
-----------Spectrum Setting ------------
Integration Time : 20ms
Average : 10
Boxcar : 0
Background removal :  enabled
linearity correction :  enabled
SC :  disabled
Intensity correction :  disabled
DWT denoise :  enabled
savitzky-golay :  disabled
FFT :  disabled
Running average :  disabled
Kalman :  disabled
High pass :  disabled
---------------BEGIN--------------------
Wavelength(nm)             Reflectance(%)
200.29               0
200.75        221.5396
201.21        860.7856
201.67       -341.1383
202.13       -130.1282
202.58       -70.61018
203.04       -39.22723
203.50       -22.02376
203.96       -17.38143
204.42       -25.16516
204.88       -64.50335
205.34        -1141.89
205.80        167.7716
206.26        107.7384
206.72        92.97617
207.18        116.8124
207.64      -0.5360726
208.10        26.58097
208.55        27.62748
209.01        24.11824
209.47        20.51194
209.93        16.72565
210.39         10.8691
210.85        2.999614
211.31        -9.19987
211.77       -46.24244
212.23        225.5679
212.69        65.23275
213.14        72.61529
213.60         153.434
214.06       -789.5909
214.52       -138.8334
214.98       -95.96041
215.44       -86.60274
215.90       -95.33559
216.36       -339.0248
216.81        52.15167
217.27        101.5862
217.73       -452.8638
218.19        -160.801
218.65       -155.0668
219.11       -198.6021
219.57       -354.8163
220.02       -948.4758
220.48       -437.3924
220.94       -123.9952
221.40       -48.67691
221.86       -22.87805
222.32       -12.04888
222.77       -5.960381
223.23       -1.671614
223.69        2.064802
224.15        4.877039
224.61        5.825814
225.06        5.556794
225.52        4.993309
225.98        4.575099
226.44        4.362988
226.90        4.192291
227.36        4.690183
227.81        6.865204
228.27        9.895007
228.73        12.62946
229.19        14.32197
229.65         14.7384
230.10        14.18524
230.56        13.04615
231.02        11.70892
231.48        11.45821
231.93        12.73106
232.39        14.70217
232.85        17.04329
233.31        19.65231
233.77        22.32722
234.22        25.05103
234.68        27.30458
235.14        28.67075
235.60        29.18673
236.05        28.90684
236.51        28.12302
236.97        27.94514
237.43        29.09311
237.88        31.27474
238.34        33.25145
238.80        33.82731
239.26        32.52439
239.71         29.0593
240.17        22.46508
240.63        13.53858
241.08        6.423198
241.54        3.805725
242.00        4.807321
242.46            7.37
242.91        11.74743
243.37        19.05411
243.83        34.00512
244.28        56.65656
244.74        70.22282
245.20        72.37466
245.66        68.92221
246.11        62.89381
246.57        53.77666
247.03        38.23672
247.48         10.8398
247.94       -26.01138
248.40       -57.00511
248.85       -75.27434
249.31       -72.48878
249.77        -50.8483
250.22       -23.52352
250.68        1.910854
251.14        20.13707
251.59        28.71471
252.05        29.36323
252.51        21.05006
252.96       -5.251269
253.42       -43.21944
253.88       -35.93295
254.33        2.437209
254.79        26.79219
255.25        38.26997
255.70        43.86251
256.16        47.49998
256.62        49.62739
257.07        50.19141
257.53        50.11406
257.99        49.57655
258.44        48.95444
258.90        48.92138
259.35         49.1331
259.81        49.63017
260.27        49.94318
260.72        49.51121
261.18        48.63546
261.63        47.41838
262.09          46.354
262.55        45.64534
263.00        45.17958
263.46        44.86705
263.91        44.50102
264.37        44.09243
264.83        43.56327
265.28        42.97713
265.74        42.28286
266.19        41.16518
266.65        39.75129
267.11        38.09051
267.56        36.57734
268.02        35.91741
268.47        36.16437
268.93        37.04431
269.38        38.05219
269.84         38.2999
270.30        37.59796
270.75        36.23814
271.21        34.60804
271.66        33.18525
272.12        32.19297
272.57        31.41169
273.03        30.88688
273.48        30.64562
273.94        30.64157
274.39        30.83582
274.85        30.99396
275.31        30.70905
275.76         29.9404
276.22        28.87774
276.67        27.75221
277.13        26.98673
277.58        26.59762
278.04        26.47694
278.49        26.43569
278.95        26.29383
279.40        25.95281
279.86        25.53258
280.31        25.04035
280.77        24.55831
281.22         24.0758
281.68        23.61669
282.13        23.16077
282.59        22.76059
283.04        22.40022
283.50        22.11487
283.95        21.89203
284.41        21.75351
284.86        21.68192
285.32        21.66989
285.77        21.70726
286.22        21.80991
286.68        21.97281
287.13        22.17241
287.59        22.34963
288.04        22.36855
288.50        22.24077
288.95        21.98001
289.41        21.73874
289.86        21.67051
290.32        21.81782
290.77        22.11473
291.22        22.44532
291.68        22.62442
292.13        22.61589
292.59        22.51552
293.04        22.41229
293.50        22.49143
293.95         22.7804
294.40        23.22309
294.86        23.75859
295.31         24.3063
295.77        24.81828
296.22        25.30571
296.68        25.74637
297.13        26.09406
297.58         26.3611
298.04        26.57933
298.49        26.77721
298.95        27.04101
299.40         27.3759
299.85        27.75539
300.31        28.18872
300.76        28.68621
301.21        29.23301
301.67        29.82754
302.12        30.35838
302.58        30.67643
303.03          30.745
303.48        30.64023
303.94        30.52011
304.39        30.56108
304.84        30.81873
305.30        31.21582
305.75        31.65677
306.20        32.00898
306.66        32.23186
307.11        32.35477
307.57        32.38842
308.02        32.29633
308.47        32.10719
308.93        31.83476
309.38        31.54378
309.83        31.38868
310.29        31.40082
310.74        31.53616
311.19        31.69407
311.65        31.69838
312.10        31.50816
312.55        31.18191
313.00        30.83273
313.46        30.63922
313.91        30.63305
314.36        30.74718
314.82        30.87699
315.27        30.86812
315.72        30.67279
316.18        30.35413
316.63        29.96418
317.08         29.5826
317.53        29.23717
317.99        28.90479
318.44        28.58536
318.89        28.29915
319.35         28.0511
319.80        27.84782
320.25        27.66774
320.70        27.46133
321.16        27.21488
321.61        26.94897
322.06        26.69007
322.51        26.49075
322.97        26.35469
323.42        26.26329
323.87        26.18819
324.32        26.09374
324.78        25.95779
325.23        25.80285
325.68        25.60441
326.13        25.32965
326.59        24.97541
327.04        24.56536
327.49        24.15341
327.94         23.8419
328.39        23.65807
328.85        23.57143
329.30        23.53614
329.75          23.442
330.20        23.25294
330.66        22.98983
331.11        22.69753
331.56        22.42722
332.01          22.204
332.46        22.01832
332.92        21.84739
333.37        21.68292
333.82        21.51283
334.27         21.3451
334.72        21.21842
335.17        21.19668
335.63        21.27379
336.08        21.42857
336.53        21.57586
336.98        21.59301
337.43        21.45263
337.88         21.2002
338.34        20.88159
338.79        20.59344
339.24        20.37259
339.69        20.18988
340.14        20.08261
340.59        20.10519
341.05        20.24081
341.50        20.47891
341.95        20.69862
342.40        20.70096
342.85        20.45392
343.30        20.02922
343.75        19.56564
344.20        19.28376
344.66        19.24364
345.11        19.36695
345.56        19.58899
346.01        19.79394
346.46        19.92751
346.91        20.01931
347.36        20.04728
347.81        19.97769
348.26        19.81858
348.72        19.58806
349.17        19.32158
349.62        19.12092
350.07        19.01107
350.52        18.96464
350.97        18.95911
351.42        18.94789
351.87        18.91468
352.32        18.88593
352.77        18.83042
353.22        18.70004
353.67         18.4971
354.13        18.23595
354.58         17.9945
355.03        17.92351
355.48        18.04454
355.93        18.32018
356.38        18.61392
356.83        18.69417
357.28        18.51339
357.73        18.14924
358.18        17.76505
358.63         17.6045
359.08        17.71342
359.53          18.007
359.98        18.35118
360.43        18.52035
360.88        18.44821
361.33        18.21451
361.78        17.90744
362.23        17.65355
362.68        17.49107
363.13         17.3747
363.58        17.28602
364.03         17.2023
364.48        17.10932
364.93        17.02031
365.38        16.92292
365.83        16.78863
366.28        16.61607
366.73        16.41743
367.18        16.20866
367.63        16.02089
368.08        15.87054
368.53        15.75122
368.98        15.67286
369.43        15.64909
369.88        15.66883
370.33        15.71488
370.78        15.75039
371.23        15.71296
371.68        15.58521
372.13          15.392
372.58        15.14793
373.03        14.87308
373.48        14.58574
373.93        14.28862
374.38        14.03176
374.83        13.89598
375.28        13.89542
375.72        14.00474
376.17        14.15337
376.62        14.22963
377.07        14.20291
377.52        14.09861
377.97         13.9585
378.42         13.8532
378.87        13.80198
379.32        13.78144
379.77        13.76461
380.22         13.7124
380.67         13.6167
381.11        13.49721
381.56        13.37752
382.01        13.29708
382.46        13.26743
382.91        13.27663
383.36        13.29678
383.81        13.28755
384.26        13.23581
384.71        13.14629
385.15         13.0436
385.60         12.9817
386.05        12.96599
386.50        12.98972
386.95        13.00436
387.40        12.93604
387.85        12.78306
388.29        12.56503
388.74          12.388
389.19        12.35544
389.64        12.47696
390.09        12.70215
390.54        12.94318
390.98        13.05771
391.43        13.01432
391.88        12.87307
392.33        12.68682
392.78        12.53594
393.23        12.44524
393.67        12.36378
394.12        12.31879
394.57        12.36216
395.02        12.46978
395.47        12.55334
395.91        12.58202
396.36        12.56706
396.81        12.50995
397.26        12.38922
397.71        12.24448
398.15        12.16914
398.60        12.19006
399.05         12.2175
399.50        12.24852
399.95        12.37216
400.39        12.54069
400.84        12.54334
401.29        12.37069
401.74        12.21048
402.18        12.07859
402.63        11.85389
403.08        11.61403
403.53        11.53342
403.97        11.62708
404.42        11.84511
404.87        12.07574
405.32        12.13724
405.76        11.99079
406.21        11.70432
406.66        11.38564
407.11        11.20805
407.55        11.22009
408.00        11.36588
408.45        11.57332
408.90        11.69914
409.34        11.70142
409.79         11.6493
410.24        11.57068
410.68        11.47457
411.13        11.37833
411.58        11.28443
412.03        11.19286
412.47        11.10599
412.92        11.02903
413.37         10.9687
413.81        10.93632
414.26        10.95325
414.71        11.01354
415.15        11.11484
415.60        11.21141
416.05        11.24214
416.49        11.19185
416.94        11.07641
417.39        10.94888
417.83        10.89553
418.28        10.93734
418.73        11.04959
419.17        11.17998
419.62        11.23594
420.07        11.20131
420.51        11.10335
420.96        11.00215
421.41        10.97018
421.85        11.01613
422.30        11.11217
422.74        11.21642
423.19        11.27779
423.64         11.2796
424.08        11.24816
424.53        11.17572
424.98        11.07173
425.42        10.95199
425.87        10.82226
426.31        10.71151
426.76        10.67575
427.21        10.71612
427.65        10.81444
428.10        10.94333
428.54         11.0515
428.99        11.12138
429.44        11.18598
429.88        11.21426
430.33        11.16271
430.77        11.03612
431.22        10.85969
431.66        10.70246
432.11        10.69284
432.56        10.80973
433.00        10.99339
433.45        11.11697
433.89        10.93328
434.34        10.46415
434.78        10.41371
435.23        10.83516
435.67        11.00785
436.12        10.93114
436.57        10.99693
437.01        11.18651
437.46        11.24614
437.90        11.15392
438.35        11.00201
438.79         10.8354
439.24        10.69588
439.68        10.62318
440.13        10.67525
440.57        10.79742
441.02         10.8526
441.46        10.82052
441.91        10.69891
442.35        10.54305
442.80        10.61159
443.24        10.82646
443.69        10.75595
444.13        10.44828
444.58        10.34527
445.02        10.45556
445.47        10.54588
445.91        10.59156
446.36        10.66296
446.80        10.74927
447.24        10.82837
447.69        10.89084
448.13        10.92609
448.58        10.93248
449.02        10.91162
449.47        10.87996
449.91        10.85524
450.36        10.84674
450.80          10.849
451.25        10.85115
451.69        10.82707
452.13        10.77364
452.58        10.70188
453.02        10.62735
453.47        10.58204
453.91        10.57183
454.36        10.59171
454.80        10.61967
455.24        10.61675
455.69        10.57753
456.13        10.50552
456.58        10.44035
457.02        10.42691
457.46        10.47425
457.91        10.56524
458.35        10.64938
458.79         10.6313
459.24        10.50595
459.68        10.33436
460.13        10.19602
460.57        9.998135
461.01        10.05336
461.46        10.11273
461.90        10.22611
462.34        10.28372
462.79        10.32072
463.23        10.30578
463.68        10.28115
464.12        10.28872
464.56         10.3375
465.01        10.42184
465.45        10.48728
465.89        10.47246
466.34         10.3759
466.78        10.21475
467.22         10.0477
467.67        9.993563
468.11        10.03528
468.55        10.17859
468.99        10.35146
469.44        10.46087
469.88         10.4848
470.32        10.44694
470.77         10.3834
471.21        10.34925
471.65        10.36183
472.10        10.39976
472.54        10.44229
472.98        10.46683
473.42         10.4677
473.87        10.46409
474.31        10.45137
474.75        10.43161
475.20        10.41141
475.64        10.38106
476.08        10.35789
476.52        10.39603
476.97        10.50291
477.41         10.6154
477.85        10.67529
478.29        10.89248
478.74        10.78834
479.18        10.74041
479.62        10.65834
480.06        10.68745
480.50        10.84455
480.95        10.87903
481.39        11.12054
481.83        11.19737
482.27        11.21286
482.72        11.19619
483.16        11.15766
483.60         11.1399
484.04        11.14134
484.48        11.10478
484.93        11.13734
485.37        11.35261
485.81        11.57712
486.25        12.08307
486.69        11.34425
487.14        11.09856
487.58        11.60042
488.02        11.91047
488.46        11.63673
488.90        11.95871
489.34        11.58805
489.79        11.60804
490.23        12.10035
490.67        12.40126
491.11        12.56872
491.55        12.53035
491.99        12.36244
492.43        12.32014
492.88        12.43268
493.32        12.51386
493.76        12.56014
494.20        12.67738
494.64        12.86819
495.08        13.08599
495.52        13.29326
495.96        13.48079
496.41        13.62121
496.85        13.60616
497.29        13.50197
497.73        13.59549
498.17        13.86464
498.61        13.97553
499.05        13.92613
499.49        13.97751
499.93        14.13237
500.37        14.23932
500.82        14.29435
501.26        14.35798
501.70        14.43277
502.14        14.50263
502.58        14.56089
503.02        14.59838
503.46        14.61783
503.90         14.6289
504.34        14.65325
504.78         14.7226
505.22        14.84162
505.66        14.99647
506.10        15.16186
506.54        15.29577
506.98        15.38223
507.42        15.43077
507.86        15.44817
508.30        15.44626
508.74        15.43537
509.18        15.41809
509.62        15.40503
510.06        15.41402
510.50        15.45043
510.94        15.50902
511.38           15.59
511.82         15.6909
512.26        15.80222
512.70        15.91731
513.14        16.01011
513.58        16.04218
514.02        16.00827
514.46        15.92254
514.90        15.81379
515.34         15.7304
515.78         15.6903
516.22        15.68445
516.66        15.70586
517.10        15.73992
517.54        15.77942
517.98        15.82881
518.42        15.88173
518.86        15.92601
519.30        15.95693
519.74        15.97188
520.18        15.97393
520.62        15.97254
521.06        15.96866
521.50        15.95754
521.93         15.9374
522.37        15.90081
522.81        15.85055
523.25        15.79532
523.69        15.73471
524.13        15.66591
524.57        15.59302
525.01        15.51801
525.45        15.45932
525.89        15.44575
526.32        15.47752
526.76        15.53884
527.20        15.59927
527.64        15.60916
528.08        15.55723
528.52        15.46306
528.96        15.34524
529.40        15.23328
529.83        15.13869
530.27        15.05756
530.71        15.00046
531.15        14.98769
531.59        15.01712
532.03        15.08034
532.46        15.14407
532.90        15.15551
533.34        15.10466
533.78        14.99666
534.22        14.86224
534.66        14.77447
535.09        14.73354
535.53        14.67702
535.97        14.60745
536.41        14.58168
536.85        14.59979
537.28        14.62989
537.72        14.66663
538.16        14.71621
538.60        14.77211
539.04        14.82781
539.47        14.87308
539.91        14.90348
540.35        14.91657
540.79        14.92526
541.22        14.93888
541.66        14.94915
542.10        15.00047
542.54        15.05811
542.97        15.13785
543.41        15.25579
543.85        15.40507
544.29        15.57886
544.72        15.75024
545.16        15.88437
545.60        15.97256
546.04        16.02403
546.47        16.06177
546.91        16.12907
547.35         16.2368
547.79        16.36788
548.22        16.49611
548.66        16.61675
549.10        16.72615
549.53        16.75423
549.97        16.86602
550.41        16.97748
550.84        17.13618
551.28        17.33182
551.72        17.54062
552.15        17.70736
552.59        17.82873
553.03        17.94095
553.46        18.04722
553.90        18.16388
554.34        18.29678
554.77        18.41255
555.21        18.49012
555.65        18.69876
556.08        18.68249
556.52        18.73857
556.96        18.77701
557.39        18.84105
557.83        18.94088
558.27        19.04102
558.70        19.12406
559.14        19.25515
559.57        19.25607
560.01        19.30595
560.45         19.3455
560.88        19.34656
561.32        19.35477
561.75        19.37658
562.19        19.43581
562.63         19.6544
563.06        19.93873
563.50        19.88571
563.93        19.57405
564.37        19.50992
564.80        19.71021
565.24        19.91026
565.68        20.05896
566.11        20.19548
566.55        20.31024
566.98        20.38833
567.42        20.45894
567.85        20.55248
568.29        20.68618
568.72         20.8301
569.16         20.9851
569.60        21.12793
570.03        21.24406
570.47        21.31073
570.90        21.49782
571.34        21.47704
571.77        21.63792
572.21        21.72515
572.64        21.85596
573.08        21.89404
573.51        22.30448
573.95        22.31389
574.38        22.30669
574.82        22.43798
575.25        22.59346
575.69        22.65929
576.12        22.54769
576.56        22.83422
576.99        22.98109
577.42        22.67543
577.86        22.77033
578.29         22.7451
578.73         22.7382
579.16        22.63911
579.60        22.37821
580.03        22.28883
580.47        22.46338
580.90        22.10973
581.33        22.44036
581.77        22.54871
582.20        22.41094
582.64        22.07373
583.07        22.03013
583.51        21.82997
583.94        21.73612
584.37        21.70244
584.81         21.7053
585.24        21.64008
585.68        21.54794
586.11        21.27482
586.54        21.30481
586.98          21.159
587.41         20.9911
587.85        20.90354
588.28         21.1751
588.71        20.55754
589.15        21.05647
589.58        20.67791
590.01        20.82502
590.45        20.75946
590.88        20.72912
591.31        20.70116
591.75        20.70051
592.18        20.67291
592.61         20.5412
593.05         21.0586
593.48         20.8414
593.91        20.79298
594.35        20.96972
594.78        21.02995
595.21        21.08778
595.65        21.09829
596.08        21.11421
596.51        21.24607
596.94        21.42836
597.38        21.65342
597.81        21.91626
598.24        21.83908
598.68        22.30306
599.11        22.44155
599.54        22.80658
599.97         23.0109
600.41        23.32498
600.84        23.51911
601.27         23.8515
601.70         24.2404
602.14        24.58473
602.57        24.82694
603.00        25.14048
603.43        25.40145
603.87        25.85006
604.30        26.18394
604.73         26.4837
605.16        26.77831
605.60        27.08855
606.03        27.54307
606.46        28.01061
606.89        28.39341
607.32        28.48381
607.76        28.72153
608.19        29.04699
608.62          29.533
609.05        29.80182
609.48        30.09977
609.92        30.38556
610.35        30.53941
610.78        31.22563
611.21        31.55147
611.64        31.71866
612.07        31.98237
612.50        32.36245
612.94        32.55011
613.37        32.58799
613.80        33.02577
614.23        33.08743
614.66        33.56834
615.09        33.69476
615.52        33.95654
615.96        34.20957
616.39        34.54221
616.82        34.90648
617.25        35.24133
617.68        35.49543
618.11        35.54406
618.54        35.46011
618.97        35.55649
619.40        35.86907
619.84        36.07524
620.27         36.1621
620.70        36.51535
621.13        37.10058
621.56         36.9165
621.99        36.94352
622.42        37.03038
622.85         37.4537
623.28        37.39214
623.71         37.4401
624.14        37.50004
624.57        37.53511
625.00        37.57639
625.43        37.59135
625.86        37.22439
626.29        37.18175
626.72         37.0491
627.15        36.83363
627.58        36.64134
628.01        36.41874
628.44         36.3252
628.87        36.29234
629.30        36.02575
629.73        35.53402
630.16        35.48171
630.59        35.12936
631.02        34.94803
631.45        34.69394
631.88        34.40822
632.31        34.07891
632.74        33.70683
633.17        33.32088
633.60        32.94397
634.03        32.58528
634.46        32.24353
634.89        31.89285
635.32        31.49152
635.75        31.03745
636.18        30.54875
636.61        30.07207
637.04        29.67695
637.47        29.37731
637.89        29.14585
638.32        28.92046
638.75        28.64651
639.18        28.31347
639.61        27.83102
640.04        27.46186
640.47        27.11732
640.90        26.88018
641.33        26.71542
641.76        26.58976
642.18        26.48542
642.61        26.38806
643.04        26.25299
643.47        26.06648
643.90        26.17189
644.33        26.00978
644.76        25.98779
645.18        25.96385
645.61        26.08411
646.04         26.3061
646.47        26.41362
646.90        26.41996
647.33         26.5221
647.75        26.73065
648.18        26.93015
648.61        27.11654
649.04        27.33223
649.47        27.57765
649.89        27.87294
650.32        28.21308
650.75        28.51881
651.18        28.79454
651.61        29.24919
652.03        29.86612
652.46        30.19388
652.89        30.28044
653.32         30.7589
653.74        31.69446
654.17        31.83848
654.60        32.34623
655.03        32.85526
655.46        33.31149
655.88        34.15442
656.31        38.57063
656.74        38.23059
657.16        35.31886
657.59        35.03246
658.02         35.7809
658.45        36.45185
658.87        36.70288
659.30        36.62745
659.73        37.06664
660.15        37.70654
660.58        37.75756
661.01         38.1038
661.44        38.44247
661.86        38.84107
662.29        39.26726
662.72        39.45483
663.14        39.51308
663.57        39.94648
664.00        40.66279
664.42        41.04451
664.85        41.06768
665.27        41.06473
665.70        41.13389
666.13        41.27959
666.55        41.53975
666.98        41.90724
667.41        42.32296
667.83        42.68167
668.26        42.93967
668.69         43.1263
669.11        43.27378
669.54        43.45624
669.96        43.68474
670.39        43.88785
670.82        44.06809
671.24        44.26382
671.67        44.47227
672.09        44.67109
672.52        44.85238
672.94        44.98032
673.37        45.06155
673.80        45.10162
674.22        45.14954
674.65        45.27538
675.07        45.50534
675.50        45.75247
675.92        46.06664
676.35        46.30285
676.77        46.46977
677.20        46.57739
677.62        46.65394
678.05        46.73417
678.47        46.83129
678.90         46.9429
679.32        47.05398
679.75        47.15863
680.17        47.25226
680.60        47.34248
681.02        47.45061
681.45        47.59716
681.87        47.79248
682.30        48.01888
682.72        48.25032
683.15        48.41927
683.57        48.51789
684.00        48.56287
684.42        48.59199
684.85        48.66904
685.27        48.79559
685.70        48.97234
686.12        49.15763
686.54        49.25555
686.97        49.27626
687.39        49.38556
687.82        49.52779
688.24        49.59676
688.66        49.31522
689.09        49.35463
689.51        49.63845
689.94        49.86162
690.36        50.01835
690.78        50.28918
691.21        50.66167
691.63        50.98891
692.06        51.26472
692.48        51.59766
692.90        51.93334
693.33        52.10913
693.75        52.11507
694.17         51.9724
694.60        51.79031
695.02        51.76263
695.44        51.87666
695.87        52.02188
696.29        52.14681
696.71        52.02542
697.14        51.77909
697.56        52.04706
697.98        52.73248
698.41        53.00251
698.83        52.78238
699.25        53.01774
699.68        52.80521
700.10        52.88786
700.52        53.01217
700.94        53.08925
701.37        53.08811
701.79        53.53247
702.21        53.64661
702.64        53.84535
703.06        53.91348
703.48          53.925
703.90        53.86859
704.33        54.06235
704.75        53.85892
705.17        53.89741
705.59        53.98912
706.01        54.11574
706.44        54.27057
706.86        54.45143
707.28        54.63485
707.70        54.87689
708.12        55.11318
708.55        55.09705
708.97        54.88172
709.39        54.81762
709.81        54.93646
710.23        55.00906
710.66        55.03827
711.08        55.19518
711.50        55.43039
711.92         55.5892
712.34        55.65007
712.76        55.65689
713.19        55.62786
713.61        55.63214
714.03        55.67614
714.45        55.73515
714.87        55.80605
715.29        55.88519
715.71        55.97025
716.13        56.07074
716.56        56.15864
716.98        56.25489
717.40        56.33336
717.82        56.38958
718.24        56.45087
718.66        56.56654
719.08        56.73951
719.50        56.94766
719.92        57.13351
720.34         57.2177
720.76        57.18496
721.19        57.04322
721.61        56.84588
722.03         56.7939
722.45        56.72532
722.87        56.79153
723.29        56.90932
723.71        57.04084
724.13        57.16103
724.55        57.26378
724.97        57.38554
725.39        57.56722
725.81        57.80336
726.23        58.11111
726.65        58.36745
727.07        58.29998
727.49        57.92782
727.91        57.50253
728.33        57.18248
728.75        57.04767
729.17        57.14497
729.59        57.53228
730.01        58.05863
730.43        58.31946
730.85        58.27731
731.27        58.23529
731.69        58.22776
732.10        58.14228
732.52        58.00794
732.94        57.88749
733.36        57.85516
733.78        57.95792
734.20        58.19291
734.62        58.65078
735.04        59.16055
735.46        59.19173
735.88        58.81924
736.30        58.69192
736.72        58.85059
737.13        58.90553
737.55        58.82214
737.97        58.79664
738.39        58.78047
738.81        58.99805
739.23        59.36531
739.65        59.52599
740.06        59.46372
740.48        59.49993
740.90        59.62522
741.32        59.67386
741.74        59.61475
742.16        59.50868
742.57        59.37147
742.99        59.16314
743.41        58.98439
743.83        59.03333
744.25        59.29619
744.67        59.59747
745.08        59.85127
745.50         59.9706
745.92        59.92937
746.34        59.71006
746.75        59.39797
747.17        59.19747
747.59          59.142
748.01        59.18037
748.42        59.28937
748.84        59.40109
749.26        59.49833
749.68        59.60024
750.09        59.69357
750.51        59.76817
750.93        59.81706
751.35        59.83733
751.76        59.84671
752.18         59.8728
752.60        59.92868
753.01          60.026
753.43        60.13079
753.85        60.22573
754.27        60.30524
754.68        60.36992
755.10        60.44888
755.52        60.58699
755.93        60.78105
756.35        60.98852
756.77         61.1364
757.18        61.19106
757.60        61.16868
758.02          60.922
758.43        60.65025
758.85        60.77139
759.26        60.22263
759.68        60.37105
760.10         60.8065
760.51        61.18176
760.93        61.32275
761.34        61.23627
761.76         61.0086
762.18         60.6909
762.59        60.49133
763.01        60.71531
763.42        61.41524
763.84        61.70974
764.26        61.59569
764.67        61.27032
765.09        60.92396
765.50        61.04834
765.92        61.47374
766.33        61.12574
766.75        60.91416
767.16        60.71324
767.58        60.76881
768.00        61.42596
768.41        60.98813
768.83        61.83101
769.24        63.11601
769.66        63.65183
770.07        63.35991
770.49        62.91047
770.90        62.54266
771.32        62.41971
771.73        62.49944
772.15        62.41503
772.56        62.21288
772.97        61.72386
773.39        61.88891
773.80        62.06147
774.22        62.38866
774.63        62.51069
775.05        62.41304
775.46        62.48881
775.88         62.7159
776.29        62.87803
776.70        62.93292
777.12        62.96552
777.53        62.98465
777.95        62.93847
778.36        62.87872
778.77        62.82032
779.19        62.76407
779.60        62.85924
780.02        63.01765
780.43        62.75242
780.84        62.22234
781.26         62.2251
781.67        62.70447
782.09        62.92603
782.50        62.79837
782.91        62.54618
783.33        62.31503
783.74        62.34029
784.15        62.65625
784.57        63.15485
784.98        63.78349
785.39        64.03089
785.81        64.49767
786.22         64.6541
786.63        64.99601
787.04        64.97284
787.46        64.73216
787.87        64.34087
788.28        63.98282
788.70        63.87521
789.11        64.03271
789.52        64.45674
789.93        64.94513
790.35        65.04133
790.76        64.72773
791.17        64.34936
791.58        64.04335
792.00        63.76581
792.41        63.57891
792.82        63.73514
793.23        63.76226
793.65        63.99386
794.06        64.20206
794.47        64.06411
794.88        63.73252
795.29        63.71718
795.71         63.9954
796.12        64.44456
796.53        64.88564
796.94        64.95855
797.35        64.63313
797.76        64.31731
798.18        64.15526
798.59        64.04501
799.00        64.04208
799.41        64.25888
799.82        64.62873
800.23         64.9444
800.64        65.14635
801.06        65.27434
801.47        65.34569
801.88        65.30234
802.29        65.14984
802.70        64.88773
803.11        64.60606
803.52        64.45689
803.93        64.49248
804.34        64.70132
804.75        64.99377
805.17        65.24969
805.58        65.48749
805.99        65.48815
806.40        65.33466
806.81        65.79607
807.22         66.5658
807.63        66.06654
808.04        64.55706
808.45        63.89754
808.86        64.25636
809.27        64.61813
809.68        64.83492
810.09        65.11412
810.50          65.384
810.91        65.59509
811.32          65.714
811.73        65.68737
812.14        65.52208
812.55        65.23453
812.96        64.95403
813.37         64.9045
813.78        65.13472
814.19        65.57852
814.60        66.08377
815.01        66.40943
815.42        66.49127
815.83        66.39211
816.24        66.18077
816.65        65.99721
817.05        65.90636
817.46        65.84332
817.87        65.81406
818.28        65.78934
818.69        65.75622
819.10        65.73595
819.51        65.73064
819.92        65.73035
820.33        65.73219
820.74        65.73121
821.14        65.71919
821.55         65.7162
821.96        65.71537
822.37        65.72626
822.78        65.75496
823.19        65.80815
823.60        65.89191
824.00        66.02263
824.41        66.16969
824.82        66.38248
825.23        66.64803
825.64        66.92908
826.04        67.19675
826.45        67.33656
826.86        67.34251
827.27        67.24774
827.68        67.04042
828.08        66.72073
828.49        66.29083
828.90        65.78854
829.31        65.34899
829.72        65.17614
830.12        65.34135
830.53        65.75808
830.94        66.27704
831.35        66.57306
831.75        66.56191
832.16        66.28707
832.57        65.95042
832.97        65.85593
833.38        66.05616
833.79         66.4421
834.20        66.86021
834.60        67.05967
835.01        66.94798
835.42        66.64548
835.82        66.24469
836.23        65.87016
836.64         65.5863
837.04        65.37543
837.45        65.26049
837.86        65.33992
838.26        65.62489
838.67        66.04625
839.08        66.51232
839.48        66.84251
839.89         66.9649
840.29        66.92142
840.70        66.75922
841.11        66.52818
841.51        66.28236
841.92        65.99467
842.33        65.75543
842.73        65.71671
843.14        65.86337
843.54        66.21538
843.95        66.63434
844.35        66.93959
844.76        67.04403
845.17        66.98433
845.57        66.86873
845.98         66.8669
846.38        67.03236
846.79        67.28927
847.19        67.52532
847.60        67.48167
848.00        67.13419
848.41        66.56606
848.81        65.97417
849.22        65.62864
849.62        65.61031
850.03        65.81187
850.43        66.12119
850.84        66.21017
851.24        66.05276
851.65        65.72704
852.05        65.39697
852.46        65.28993
852.86        65.44406
853.27        65.75897
853.67        66.13487
854.07        66.61378
854.48         67.1161
854.88        67.73566
855.29        68.18504
855.69        68.16502
856.10        67.51601
856.50        66.44319
856.90        65.31988
857.31        64.69324
857.71        64.67719
858.12        65.06853
858.52         65.7241
858.92          66.163
859.33        66.19126
859.73        65.99333
860.13        65.57734
860.54        64.98313
860.94         64.2847
861.34        63.46775
861.75        62.73496
862.15         62.4929
862.55        62.80871
862.96        63.54644
863.36        64.47481
863.76        65.11649
864.17        65.31976
864.57        65.21813
864.97        64.90776
865.38        64.57191
865.78         64.3127
866.18        64.04202
866.58        63.79501
866.99        63.65579
867.39        63.67529
867.79        63.86053
868.19        64.09027
868.60        64.13367
869.00        63.94647
869.40        63.58211
869.80        63.23999
870.21        63.28556
870.61        63.83557
871.01        64.69333
871.41        65.53313
871.81        65.87955
872.22        65.62844
872.62        64.94054
873.02        64.06745
873.42        63.42415
873.82        63.16619
874.22        63.20219
874.63        63.42167
875.03        63.64061
875.43        63.79595
875.83        63.93955
876.23        64.14091
876.63        64.50048
877.03         65.0099
877.44        65.57457
877.84        66.06027
878.24        66.21411
878.64        65.98814
879.04        65.48759
879.44        64.87812
879.84        64.40285
880.24        64.14261
880.64        64.04561
881.04        64.08317
881.44        64.19544
881.84         64.3516
882.24        64.57169
882.65        64.79226
883.05        64.99274
883.45         65.1011
883.85        65.09621
884.25        65.01804
884.65         64.9409
885.05        64.89375
885.45        64.88954
885.85        64.86812
886.25        64.72713
886.65        64.46299
887.05        64.10678
887.45        63.83585
887.85        63.92014
888.25        64.38728
888.65        65.13728
889.04         65.8857
889.44         66.1515
889.84        65.83957
890.24        65.09463
890.64        64.22227
891.04        63.66091
891.44        63.53382
891.84         63.7666
892.24        64.13176
892.64         64.2405
893.04        64.00583
893.44        63.53319
893.83         63.1676
894.23         63.4464
894.63        64.41923
895.03        65.90301
895.43          67.365
895.83         67.8519
896.23        67.15699
896.63        65.67039
897.02        63.97776
897.42        62.99977
897.82        62.87904
898.22        63.37397
898.62        64.22693
899.01        65.00997
899.41         65.4939
899.81        65.83564
900.21        66.09708
900.61        66.37153
901.00        66.68065
901.40        66.91331
901.80        67.03254
902.20        67.02514
902.59         66.9007
902.99        66.69915
903.39        66.44856
903.79        66.17471
904.18        65.88913
904.58        65.61105
904.98        65.38717
905.38        65.29331
905.77        65.33176
906.17        65.51013
906.57        65.69318
906.96        65.67213
907.36        65.39812
907.76          64.942
908.15        64.53656
908.55        64.51556
908.95        64.95906
909.34        65.75906
909.74        66.61697
910.14         67.1233
910.53        67.14809
910.93        66.80985
911.33        66.30258
911.72        65.93266
912.12        65.81593
912.52        65.85913
912.91        65.93659
913.31        65.84142
913.70        65.54341
914.10        65.14511
914.49        64.80177
914.89        64.71922
915.29        64.93819
915.68        65.35698
916.08        65.85863
916.47        66.26469
916.87        66.49947
917.26        66.62746
917.66        66.62679
918.05        66.46692
918.45        66.16381
918.84        65.74611
919.24        65.36616
919.64        65.36405
920.03        65.81598
920.42        66.60087
920.82        67.43981
921.21        67.94138
921.61         67.9748
922.00        67.63096
922.40        67.08055
922.79        66.71713
923.19        66.64313
923.58        66.75157
923.98        66.81928
924.37         66.4705
924.77        65.69283
925.16        64.63103
925.55        63.59689
925.95        63.09473
926.34        63.28771
926.74        63.96177
927.13        64.95123
927.52        65.89167
927.92         66.6197
928.31        67.24218
928.70        67.65358
929.10         67.7196
929.49        67.46121
929.89        66.87305
930.28        66.21256
930.67        65.89236
931.07        66.00089
931.46        66.43535
931.85        66.96114
932.24        67.16663
932.64        66.95438
933.03        66.53031
933.42        65.99512
933.82        65.51897
934.21        65.18007
934.60        64.87974
934.99         64.7919
935.39        65.16512
935.78        66.02676
936.17        67.34026
936.56        68.62788
936.96        69.00692
937.35        68.30692
937.74        66.75688
938.13        65.05338
938.53        64.13154
938.92        64.13966
939.31        64.88036
939.70        65.86998
940.09        66.21584
940.49        65.68295
940.88        64.58852
941.27        63.47015
941.66        63.12405
942.05        63.71987
942.44        64.99589
942.84        66.46943
943.23        67.33279
943.62        67.25625
944.01        66.51117
944.40        65.48011
944.79        64.76777
945.18         64.5639
945.57         64.6635
945.97        64.91722
946.36        65.19578
946.75        65.39691
947.14        65.61436
947.53        65.79063
947.92        65.79095
948.31        65.60014
948.70        65.23468
949.09        64.85964
949.48        64.74204
949.87        64.94661
950.26        65.43347
950.65        66.03048
951.04        66.42205
951.43        66.50957
951.82        66.34647
952.21        66.14807
952.60        66.26414
952.99        66.72908
953.38        67.39862
953.77        67.95963
954.16        67.86813
954.55        67.03849
954.94        65.76245
955.33        64.34999
955.72        63.25766
956.11        62.63496
956.50        62.29846
956.89        62.34355
957.28        62.92171
957.66        64.01938
958.05        65.52353
958.44         66.8757
958.83        67.00574
959.22        65.72676
959.61        63.43541
960.00        61.02142
960.39         59.7602
960.78        59.91589
961.16        61.15863
961.55        62.90002
961.94        64.22959
962.33        64.80511
962.72        64.87437
963.11        64.63261
963.49        64.46148
963.88        64.45602
964.27        64.45774
964.66        64.39513
965.04        64.21716
965.43        63.90598
965.82        63.53136
966.21        63.14447
966.60         62.8003
966.98        62.55684
967.37        62.40379
967.76        62.33658
968.15         62.3269
968.53        62.35524
968.92        62.38691
969.31        62.45156
969.69        62.61374
970.08        62.82877
970.47        63.06783
970.86        63.17332
971.24        62.90038
971.63        62.18336
972.02        61.17877
972.40         60.1266
972.79        59.39992
973.17        59.12406
973.56         59.2015
973.95        59.52338
974.33        59.91853
974.72        60.26324
975.11         60.5442
975.49        60.87342
975.88        61.43444
976.26        62.27603
976.65        63.26334
977.04        63.95841
977.42        63.66066
977.81        62.31156
978.19         60.1745
978.58        58.28882
978.96        57.97809
979.35        59.47826
979.74        62.47914
980.12        66.18591
980.51        68.38926
980.89        68.49389
981.28        66.96062
981.66        64.71005
982.05         63.3771
982.43        63.40535
982.82        64.27357
983.20         65.7486
983.59        67.26868
983.97        68.63944
984.35        69.99062
984.74        70.91514
985.12        70.87246
985.51        69.78365
985.89        67.74654
986.28        65.49397
986.66          64.077
987.04        63.88799
987.43        64.66876
987.81        65.84074
988.20        66.19909
988.58        65.45716
988.96        63.83962
989.35        62.12566
989.73        61.51125
990.12        62.21726
990.50        63.94574
990.88        65.65911
991.27        65.70166
991.65        63.84765
992.03        60.69643
992.42        57.57291
992.80        56.26068
993.18        57.26976
993.56        59.98657
993.95        63.36074
994.33        65.81561
994.71        66.56116
995.10         66.0918
995.48        64.81181
995.86        63.42092
996.24        62.30873
996.63        61.27521
997.01        60.48049
997.39        60.17953
997.77        60.37587
998.15        61.06486
998.54        62.07051
998.92        62.97103
999.30        63.57823
999.68        63.94074
1000.06        63.99623
1000.45        63.66307
1000.83        63.09058
1001.21        62.23672
1001.59        61.33477
1001.97        60.81184
1002.35        60.79758
1002.73        61.19852
1003.12        61.88152
1003.50        62.51775
1003.88        62.99759
1004.26        63.40895
1004.64        63.65755
1005.02        63.59924
1005.40        63.26557
1005.78        62.69791
1006.16        62.16886
1006.54        62.18389
1006.92        62.83308
1007.30        63.89936
1007.69        65.03413
1008.07         65.8894
1008.45        66.22759
1008.83        66.22118
1009.21        65.81669
1009.59        64.92572
1009.97        63.65817
1010.35         62.0804
1010.73        60.72586
1011.11        60.52521
1011.49        61.76241
1011.86        64.41776
1012.24        67.68803
1012.62        70.39777
1013.00        71.97807
1013.38        72.48775
1013.76        72.33194
1014.14        72.43842
1014.52        73.08681
1014.90        73.99061
1015.28        74.47078
1015.66         73.4575
1016.04        71.05498
1016.41        68.08643
1016.79         65.4846
1017.17        63.93532
1017.55        63.34839
1017.93        63.37132
1018.31        63.78828
1018.69        63.95837
1019.06        63.57784
1019.44        63.09681
1019.82        62.42105
1020.20        61.24739
1020.58        59.53256
1020.95        57.04871
1021.33        54.56602
1021.71        54.02737
1022.09        56.38784
1022.46        61.02769
1022.84        66.26122
1023.22        69.95245
1023.60        71.54202
1023.97         71.6096
1024.35        70.37204
1024.73        68.39062
