SpectraSmart Spectrum 2.9.0.0
--------- Device Information -----------
Spectrum Name :  反射率_0
Saving Time :  2024/05/01 16:52:02
Spectro-Module Model Name : SE2030-DUVN
Spectro-Module Serial Number : OS361AC55029948
Wavelength Start : 200
Wavelength End : 1025
Wavelength Unit : Wavelength(nm)
Spectrum Unit : Reflectance(%)
-----------Spectrum Setting ------------
Integration Time : 20ms
Average : 10
Boxcar : 0
Background removal :  enabled
linearity correction :  enabled
SC :  disabled
Intensity correction :  disabled
DWT denoise :  enabled
savitzky-golay :  disabled
FFT :  disabled
Running average :  disabled
Kalman :  disabled
High pass :  disabled
---------------BEGIN--------------------
Wavelength(nm)             Reflectance(%)
200.29               0
200.75        367.3844
201.21         1405.58
201.67       -551.1432
202.13       -200.2282
202.58       -96.66129
203.04       -40.10772
203.50       -8.152162
203.96         1.99595
204.42       -8.793538
204.88       -69.66118
205.34       -1774.018
205.80        305.4467
206.26        219.9258
206.72        220.9227
207.18        401.4106
207.64       -234.3941
208.10       -50.61704
208.55       -21.19828
209.01       -14.22549
209.47        -10.4676
209.93       -7.274336
210.39       -6.636158
210.85       -11.19565
211.31       -29.99343
211.77       -110.7134
212.23        545.7708
212.69         157.385
213.14        156.0049
213.60        273.8817
214.06       -1153.334
214.52       -172.5456
214.98        -111.809
215.44       -105.6529
215.90       -142.4902
216.36       -846.1499
216.81        238.1147
217.27        286.3224
217.73       -676.3068
218.19       -172.6121
218.65        -149.018
219.11       -190.6897
219.57       -357.4993
220.02       -1022.343
220.48       -496.6798
220.94       -144.5382
221.40       -57.65282
221.86       -27.51474
222.32       -15.15565
222.77       -8.740513
223.23       -4.494164
223.69      -0.8448858
224.15        2.351595
224.61        4.131506
225.06        4.567246
225.52        4.624977
225.98        5.071793
226.44        6.130076
226.90         7.80795
227.36        10.48054
227.81        13.62219
228.27        15.81252
228.73        16.92969
229.19        17.20213
229.65        16.84746
230.10        16.06216
230.56        15.10662
231.02         14.1817
231.48        14.09006
231.93         15.1203
232.39        16.66388
232.85        18.81414
233.31         21.8777
233.77        25.50694
234.22        29.39057
234.68        32.64186
235.14        34.39097
235.60        34.57763
236.05         33.2652
236.51        30.67241
236.97        28.52479
237.43        28.27044
237.88        29.71449
238.34         31.3788
238.80        31.15453
239.26        28.02067
239.71        21.66769
240.17        10.38438
240.63       -5.011356
241.08       -17.90583
241.54       -24.14212
242.00         -24.091
242.46       -20.15739
242.91         -12.332
243.37        1.987087
243.83        28.44864
244.28        58.91309
244.74        69.02618
245.20        63.58752
245.66         53.7043
246.11         43.4162
246.57        31.00191
247.03        11.75443
247.48       -19.28637
247.94       -54.92065
248.40        -77.0788
248.85       -82.10539
249.31       -68.53262
249.77       -44.79245
250.22       -21.42963
250.68       -1.879467
251.14        10.81725
251.59        14.97815
252.05        11.24434
252.51       -4.165563
252.96       -44.20731
253.42       -96.52315
253.88       -76.40612
254.33       -12.71951
254.79        23.69528
255.25        37.59423
255.70         42.1116
256.16        43.76769
256.62        44.97048
257.07        47.02659
257.53        49.87596
257.99        52.56152
258.44        54.64509
258.90        56.24699
259.35        57.17713
259.81        57.88791
260.27        58.25686
260.72        58.13142
261.18        57.81946
261.63        57.15755
262.09        56.44389
262.55        55.61352
263.00        54.62261
263.46        53.64922
263.91        52.65147
264.37        51.88988
264.83        51.30367
265.28        50.83036
265.74         50.4105
266.19        49.69406
266.65        48.76688
267.11        47.65353
267.56        46.61183
268.02        46.14373
268.47        46.26464
268.93        46.76602
269.38        47.27329
269.84         47.1334
270.30        46.22589
270.75        44.77082
271.21        43.11263
271.66        41.64213
272.12         40.5562
272.57        39.67778
273.03        39.02207
273.48         38.5468
273.94        38.23059
274.39        38.05777
274.85        37.91408
275.31        37.54742
275.76        36.91984
276.22        36.15861
276.67        35.36869
277.13        34.82807
277.58        34.50913
278.04        34.35816
278.49        34.23238
278.95          34.043
279.40        33.70296
279.86         33.3076
280.31         32.8208
280.77        32.29799
281.22        31.70887
281.68        31.10579
282.13        30.48539
282.59        29.94191
283.04        29.45915
283.50         29.0786
283.95        28.75312
284.41        28.46578
284.86        28.20087
285.32        27.98354
285.77        27.85667
286.22        27.92356
286.68        28.18183
287.13         28.5632
287.59        28.94331
288.04        29.07751
288.50        28.94683
288.95        28.59221
289.41        28.20283
289.86        27.96695
290.32        27.95799
290.77        28.10571
291.22        28.31276
291.68        28.41841
292.13        28.39225
292.59        28.32989
293.04        28.32236
293.50         28.5584
293.95        29.05149
294.40        29.73273
294.86        30.50583
295.31        31.23353
295.77        31.86001
296.22        32.41678
296.68        32.90996
297.13         33.3325
297.58        33.71882
298.04        34.09107
298.49         34.4952
298.95        35.04739
299.40        35.73722
299.85        36.51583
300.31        37.34255
300.76        38.14498
301.21        38.90041
301.67        39.63789
302.12         40.2683
302.58        40.68938
303.03        40.87624
303.48        40.88989
303.94        40.92355
304.39        41.18535
304.84        41.73988
305.30        42.50821
305.75        43.31876
306.20        43.92345
306.66        44.26582
307.11        44.39946
307.57        44.44452
308.02        44.51341
308.47        44.66247
308.93        44.85213
309.38          45.026
309.83        45.16113
310.29        45.25581
310.74        45.32661
311.19        45.37865
311.65        45.39718
312.10        45.37609
312.55        45.31567
313.00        45.26519
313.46         45.3056
313.91        45.43463
314.36        45.62022
314.82        45.76527
315.27        45.72742
315.72        45.47139
316.18        45.06023
316.63          44.571
317.08        44.13742
317.53        43.79768
317.99        43.51985
318.44        43.27497
318.89        43.02222
319.35        42.75356
319.80        42.49857
320.25        42.26389
320.70        42.04947
321.16        41.84835
321.61        41.65548
322.06        41.48277
322.51        41.36319
322.97        41.28431
323.42        41.24466
323.87        41.17826
324.32        40.99146
324.78        40.66197
325.23        40.23738
325.68        39.77949
326.13         39.3972
326.59        39.11437
327.04        38.92152
327.49        38.77663
327.94        38.61832
328.39        38.42195
328.85        38.19181
329.30        37.96076
329.75        37.73461
330.20        37.51925
330.66        37.29632
331.11        37.07351
331.56         36.8246
332.01        36.55046
332.46        36.26396
332.92        35.97985
333.37        35.75994
333.82        35.60526
334.27         35.5086
334.72        35.44912
335.17        35.39194
335.63        35.30874
336.08        35.21639
336.53         35.1186
336.98        35.04086
337.43        34.98574
337.88         34.9507
338.34        34.87655
338.79         34.6937
339.24        34.38802
339.69        33.98717
340.14        33.60854
340.59        33.43504
341.05        33.48942
341.50        33.71901
341.95        33.97716
342.40        34.02383
342.85        33.80857
343.30        33.42509
343.75        32.99423
344.20        32.70313
344.66        32.60794
345.11        32.63074
345.56        32.75342
346.01        32.94146
346.46        33.15395
346.91        33.39716
347.36        33.57777
347.81        33.55217
348.26        33.30725
348.72        32.89244
349.17        32.41714
349.62        32.10765
350.07        32.01265
350.52        32.05963
350.97        32.14929
351.42        32.10981
351.87        31.90224
352.32        31.61502
352.77        31.27595
353.22        30.92213
353.67        30.58663
354.13        30.25457
354.58        30.01052
355.03        30.02831
355.48        30.31626
355.93         30.8287
356.38        31.34943
356.83        31.51162
357.28        31.23854
357.73        30.64366
358.18         29.9871
358.63        29.66245
359.08        29.74669
359.53        30.11089
359.98        30.54913
360.43        30.71281
360.88         30.5072
361.33        30.06602
361.78        29.53579
362.23        29.12119
362.68        28.88303
363.13         28.7477
363.58        28.67947
364.03        28.63217
364.48        28.57419
364.93        28.51801
365.38        28.44123
365.83        28.29922
366.28        28.08421
366.73         27.8093
367.18        27.48451
367.63        27.13784
368.08        26.79855
368.53        26.47614
368.98        26.21296
369.43         26.0635
369.88        26.02653
370.33        26.07794
370.78        26.16412
371.23        26.18846
371.68        26.11546
372.13        25.96817
372.58        25.76234
373.03        25.52614
373.48        25.27377
373.93        24.99547
374.38        24.72318
374.83        24.51335
375.28        24.38164
375.72        24.32186
376.17         24.2909
376.62         24.2075
377.07        24.05482
377.52        23.85182
377.97         23.6507
378.42        23.53595
378.87        23.51938
379.32        23.56658
379.77        23.61362
380.22        23.56484
380.67        23.40144
381.11        23.16181
381.56        22.89911
382.01        22.70617
382.46        22.61585
382.91        22.60495
383.36        22.63935
383.81        22.66757
384.26         22.6667
384.71        22.63925
385.15         22.5987
385.60        22.58582
386.05        22.59551
386.50        22.61798
386.95        22.59616
387.40        22.44824
387.85        22.17782
388.29        21.81017
388.74        21.48116
389.19        21.31451
389.64        21.32718
390.09        21.46592
390.54         21.6391
390.98         21.6948
391.43        21.60501
391.88        21.42706
392.33        21.21573
392.78        21.05589
393.23        20.97219
393.67        20.90098
394.12        20.86209
394.57        20.90867
395.02        21.00132
395.47        20.99368
395.91        20.90747
396.36        20.88997
396.81        20.95449
397.26         21.0215
397.71        21.04408
398.15        21.00541
398.60        20.92892
399.05        20.73843
399.50        20.53076
399.95        20.59286
400.39        20.87333
400.84        20.96837
401.29        20.82918
401.74        20.71176
402.18        20.61349
402.63        20.35146
403.08        20.01052
403.53        19.81319
403.97        19.78755
404.42        19.87243
404.87        19.98907
405.32        20.01198
405.76         19.9074
406.21        19.72828
406.66        19.53421
407.11        19.41795
407.55        19.40879
408.00        19.47223
408.45        19.56905
408.90        19.60582
409.34        19.56606
409.79        19.52249
410.24        19.48301
410.68         19.4111
411.13        19.31578
411.58        19.21892
412.03        19.12494
412.47        19.03671
412.92        18.95791
413.37        18.89552
413.81        18.85416
414.26        18.85331
414.71        18.88498
415.15        18.94901
415.60        19.00877
416.05        19.02392
416.49        18.98321
416.94        18.89491
417.39         18.7922
417.83        18.72931
418.28        18.71967
418.73        18.74673
419.17        18.78153
419.62        18.77033
420.07        18.70768
420.51        18.61329
420.96        18.52729
421.41        18.48316
421.85        18.48377
422.30        18.52132
422.74        18.58237
423.19        18.66805
423.64        18.76518
424.08        18.87941
424.53        18.96362
424.98        18.96619
425.42        18.88181
425.87        18.73352
426.31        18.56295
426.76        18.44643
427.21        18.39746
427.65        18.38987
428.10        18.42927
428.54        18.51778
428.99         18.6472
429.44         18.8396
429.88         18.9939
430.33        18.97043
430.77        18.76592
431.22        18.45242
431.66        18.15505
432.11        18.11824
432.56        18.32273
433.00        18.57557
433.45        18.71234
433.89         18.5867
434.34        18.13167
434.78         18.1472
435.23        18.73123
435.67        18.93962
436.12          18.789
436.57        18.75866
437.01        18.86697
437.46        18.87898
437.90        18.78822
438.35        18.69033
438.79        18.60426
439.24         18.5097
439.68        18.44873
440.13        18.55593
440.57        18.75714
441.02        18.84841
441.46        18.80562
441.91        18.61357
442.35        18.36929
442.80        18.51519
443.24        18.92173
443.69         18.8627
444.13        18.39509
444.58        18.22597
445.02         18.3662
445.47        18.43605
445.91        18.41958
446.36        18.47482
446.80        18.59369
447.24        18.72812
447.69        18.85499
448.13        18.94003
448.58        18.97357
449.02        18.96067
449.47        18.92165
449.91        18.87409
450.36        18.83258
450.80        18.79175
451.25        18.74405
451.69        18.66385
452.13        18.55291
452.58        18.42596
453.02         18.3071
453.47        18.24372
453.91        18.24101
454.36        18.28963
454.80        18.35128
455.24        18.36304
455.69        18.31565
456.13        18.21725
456.58        18.12144
457.02        18.08525
457.46        18.12488
457.91         18.2197
458.35        18.31886
458.79        18.31577
459.24        18.20391
459.68        18.06678
460.13        17.98955
460.57        17.73719
461.01        17.84115
461.46        17.88234
461.90        17.98232
462.34        18.01116
462.79         18.0507
463.23        18.03618
463.68         18.0103
464.12        17.99853
464.56        18.00993
465.01         18.0583
465.45        18.09674
465.89        18.08842
466.34        18.03508
466.78        17.94512
467.22        17.85537
467.67        17.86053
468.11        17.90038
468.55        18.01435
468.99        18.14707
469.44         18.2494
469.88        18.30832
470.32        18.33355
470.77        18.33034
471.21        18.30552
471.65        18.26678
472.10        18.21758
472.54        18.16776
472.98         18.1435
473.42        18.15212
473.87        18.19652
474.31        18.25663
474.75        18.31804
475.20        18.37791
475.64        18.42831
476.08        18.47537
476.52        18.54902
476.97         18.6537
477.41        18.73885
477.85         18.7697
478.29        18.95711
478.74        18.90425
479.18        18.90462
479.62        18.86886
480.06        18.94504
480.50        19.15014
480.95        19.08736
481.39        19.37237
481.83        19.41871
482.27        19.42291
482.72        19.41211
483.16        19.40763
483.60        19.45516
484.04        19.54516
484.48        19.60713
484.93         19.7598
485.37        20.04236
485.81        20.32653
486.25        20.84201
486.69         20.3318
487.14        19.78908
487.58        20.09399
488.02        20.53243
488.46        20.52896
488.90        20.81274
489.34         20.7811
489.79        20.59645
490.23        21.05342
490.67        21.39803
491.11        21.80534
491.55        21.93627
491.99        21.82438
492.43        21.84222
492.88        22.00429
493.32        22.05619
493.76        22.02986
494.20        22.13305
494.64         22.3883
495.08        22.71244
495.52        23.03953
495.96        23.34484
496.41        23.57581
496.85        23.56015
497.29        23.40179
497.73        23.55038
498.17        23.97538
498.61        24.16444
499.05        24.10564
499.49        24.18575
499.93        24.40852
500.37        24.54692
500.82        24.61623
501.26        24.74578
501.70        24.94186
502.14        25.16719
502.58        25.37393
503.02         25.4908
503.46        25.50711
503.90        25.44898
504.34        25.38618
504.78        25.42817
505.22         25.5996
505.66         25.8687
506.10        26.15524
506.54        26.32551
506.98        26.34582
507.42        26.25845
507.86        26.13877
508.30        26.10335
508.74        26.18365
509.18        26.34553
509.62        26.53543
510.06        26.66547
510.50        26.71052
510.94        26.69958
511.38        26.67632
511.82        26.70836
512.26         26.8091
512.70        26.94791
513.14        27.08463
513.58        27.16015
514.02        27.15981
514.46        27.10827
514.90        27.02833
515.34        26.95523
515.78        26.90578
516.22        26.87168
516.66        26.86005
517.10        26.88104
517.54        26.93254
517.98        27.01258
518.42         27.0999
518.86        27.15698
519.30        27.17281
519.74        27.15294
520.18         27.1142
520.62        27.08703
521.06        27.07801
521.50        27.07608
521.93         27.0692
522.37        27.03235
522.81        26.96492
523.25        26.88159
523.69        26.79174
524.13        26.70727
524.57        26.63489
525.01        26.56995
525.45        26.52206
525.89         26.5068
526.32        26.52095
526.76        26.55459
527.20        26.58172
527.64        26.56022
528.08        26.48346
528.52        26.37106
528.96        26.24265
529.40         26.1296
529.83         26.0407
530.27        25.97067
530.71        25.92859
531.15        25.93508
531.59        25.98488
532.03        26.06776
532.46        26.13611
532.90        26.11942
533.34        26.00843
533.78        25.81101
534.22        25.58159
534.66        25.44725
535.09        25.40484
535.53        25.34036
535.97        25.25421
536.41        25.23678
536.85        25.28454
537.28         25.3463
537.72        25.40179
538.16        25.44237
538.60        25.46195
539.04        25.46119
539.47         25.4594
539.91        25.50438
540.35        25.59852
540.79        25.73918
541.22        25.90519
541.66          26.023
542.10        26.14856
542.54        26.23945
542.97        26.32834
543.41        26.45037
543.85        26.60745
544.29        26.78924
544.72        26.97653
545.16        27.15492
545.60        27.31479
546.04        27.45872
546.47        27.59905
546.91         27.7591
547.35        27.94286
547.79        28.13622
548.22        28.30173
548.66         28.4448
549.10        28.56624
549.53        28.54204
549.97        28.66641
550.41        28.82293
550.84        29.09514
551.28        29.45687
551.72        29.84384
552.15        30.12077
552.59        30.27351
553.03        30.37808
553.46        30.45598
553.90        30.56033
554.34         30.7085
554.77        30.83348
555.21        30.90485
555.65        31.21227
556.08        31.16135
556.52        31.25403
556.96        31.31606
557.39        31.38115
557.83        31.46274
558.27        31.50951
558.70        31.53875
559.14        31.73289
559.57        31.80962
560.01        32.03764
560.45        32.25353
560.88         32.3063
561.32        32.25266
561.75         32.1451
562.19        32.08924
562.63        32.36555
563.06        32.84995
563.50        32.88418
563.93        32.53045
564.37        32.49392
564.80        32.78194
565.24        33.00627
565.68        33.12988
566.11        33.27963
566.55        33.45726
566.98        33.61256
567.42         33.7611
567.85         33.9012
568.29        34.05012
568.72        34.18202
569.16        34.32814
569.60        34.46205
570.03          34.563
570.47        34.64215
570.90         34.9828
571.34        34.75522
571.77        35.04272
572.21          35.132
572.64         35.3554
573.08        35.28585
573.51        35.65015
573.95        35.96503
574.38        35.76949
574.82        36.00145
575.25        36.15303
575.69        36.25856
576.12        36.29768
576.56        35.97538
576.99        36.35159
577.42        36.24616
577.86        36.40672
578.29        36.24647
578.73        36.50826
579.16        36.09494
579.60        35.72476
580.03        35.54306
580.47        35.86857
580.90        35.26427
581.33        35.74372
581.77        35.73362
582.20        35.93312
582.64        35.47951
583.07        35.38937
583.51        35.07492
583.94        34.97094
584.37        34.92174
584.81        34.91726
585.24        34.86852
585.68        34.76382
586.11        34.52662
586.54         34.5363
586.98        34.24399
587.41        33.72915
587.85         34.2838
588.28        34.35644
588.71        33.71603
589.15        34.15818
589.58        33.78045
590.01        33.78003
590.45        33.72528
590.88        33.79832
591.31        33.81929
591.75        33.74376
592.18        33.73647
592.61        33.63922
593.05        33.69641
593.48        33.91069
593.91        33.88382
594.35        34.02533
594.78        34.04779
595.21        34.04967
595.65        34.46925
596.08        34.51768
596.51        34.78466
596.94        34.66494
597.38        34.84771
597.81        35.28132
598.24        35.15842
598.68        35.69962
599.11        35.84916
599.54        36.72159
599.97        36.60336
600.41        36.78043
600.84        37.29178
601.27        37.52004
601.70        38.21205
602.14        38.73719
602.57        38.97516
603.00        38.91878
603.43        39.06356
603.87        39.69446
604.30        40.11417
604.73        40.23234
605.16        40.49305
605.60        40.84297
606.03        41.34333
606.46        41.83241
606.89        42.03848
607.32        42.12241
607.76        42.28775
608.19         42.5737
608.62        43.21973
609.05        43.62343
609.48        43.74332
609.92        43.57186
610.35        43.81915
610.78        44.75827
611.21        45.20038
611.64        45.20356
612.07        45.47513
612.50         45.7033
612.94        45.82962
613.37         45.7983
613.80        45.89241
614.23        45.92366
614.66        46.35628
615.09        46.38587
615.52        46.74026
615.96        47.14557
616.39         47.3664
616.82        47.43382
617.25        47.72661
617.68        48.18457
618.11        48.30811
618.54        48.12071
618.97        48.04445
619.40        48.16619
619.84        48.25299
620.27        48.30967
620.70        48.70872
621.13        49.33916
621.56        49.03357
621.99        48.68528
622.42        48.82412
622.85        48.94143
623.28        49.26494
623.71        48.87543
624.14        49.18409
624.57        49.28346
625.00        49.38982
625.43         49.2833
625.86        49.10526
626.29        49.01715
626.72        48.64298
627.15        48.61515
627.58        48.36412
628.01        48.06921
628.44         48.1302
628.87        48.17279
629.30         48.0067
629.73        47.52934
630.16        47.63406
630.59        47.33609
631.02        47.25055
631.45        47.06331
631.88        46.84262
632.31        46.57851
632.74        46.26848
633.17        45.94775
633.60        45.64436
634.03        45.36795
634.46        45.11276
634.89        44.85168
635.32        44.53901
635.75        44.16858
636.18        43.76077
636.61        43.34615
637.04        42.97045
637.47        42.64891
637.89        42.36002
638.32        42.07166
638.75         41.8003
639.18        41.54922
639.61        41.15121
640.04        40.92866
640.47        40.64838
640.90         40.4063
641.33        40.18215
641.76         39.9663
642.18        39.79936
642.61        39.68391
643.04        39.53247
643.47        39.31117
643.90        39.51924
644.33        39.30374
644.76        39.28907
645.18        39.26387
645.61         39.4458
646.04        39.77379
646.47          39.922
646.90        39.90044
647.33         40.0014
647.75        40.23463
648.18        40.40006
648.61        40.52703
649.04         40.7555
649.47         41.0754
649.89        41.47609
650.32        41.88692
650.75        42.07939
651.18        42.12182
651.61         42.4455
652.03        43.06651
652.46        43.49687
652.89        43.69438
653.32        44.05551
653.74        44.72451
654.17        44.68061
654.60        45.32835
655.03        45.89185
655.46        45.58622
655.88        46.14563
656.31         52.1525
656.74        51.30991
657.16        47.14536
657.59        46.76717
658.02        47.78743
658.45        47.79195
658.87        48.44971
659.30        47.91635
659.73         48.4577
660.15        49.33609
660.58         49.1579
661.01          49.291
661.44        49.26257
661.86        49.38136
662.29        49.65575
662.72        49.93383
663.14        50.21331
663.57        50.50774
664.00        50.77835
664.42         50.9507
664.85        51.02023
665.27        50.97616
665.70        50.89203
666.13        50.90818
666.55        51.06264
666.98        51.30334
667.41        51.58788
667.83        51.84634
668.26        52.03693
668.69        52.18139
669.11        52.29127
669.54        52.40438
669.96        52.52305
670.39        52.58472
670.82        52.60844
671.24        52.66464
671.67        52.76089
672.09        52.85859
672.52        52.95681
672.94        53.02641
673.37        53.06843
673.80        53.09106
674.22        53.11639
674.65        53.15193
675.07        53.21638
675.50        53.29415
675.92        53.39183
676.35        53.49819
676.77         53.6087
677.20        53.74348
677.62        53.89884
678.05        53.91508
678.47        54.01132
678.90         54.0275
679.32        54.04171
679.75        54.07299
680.17        54.12407
680.60        54.20862
681.02        54.34062
681.45        54.39642
681.87        54.60249
682.30        54.77023
682.72        54.93547
683.15        55.01394
683.57        55.00388
684.00         54.9226
684.42        54.83115
684.85        54.84459
685.27        54.96973
685.70        55.17508
686.12        55.38844
686.54        55.49623
686.97        55.46573
687.39        55.40871
687.82        55.34071
688.24        55.15593
688.66        54.94943
689.09        55.05641
689.51        55.44104
689.94        55.67799
690.36         55.7365
690.78        55.86948
691.21        56.10093
691.63        56.27565
692.06        56.43795
692.48        56.82314
692.90        57.32646
693.33        57.56826
693.75        57.50986
694.17         57.2798
694.60        57.01255
695.02        56.90177
695.44        56.94279
695.87        57.01728
696.29         57.0791
696.71        56.90644
697.14        56.64954
697.56        56.96091
697.98        57.70867
698.41        58.07682
698.83        58.00842
699.25        57.96328
699.68        57.99173
700.10        58.02257
700.52         58.0744
700.94        58.12689
701.37        58.18614
701.79        58.36837
702.21        58.60422
702.64        58.73056
703.06        58.73307
703.48        58.65094
703.90        58.47582
704.33        58.55367
704.75        58.20126
705.17        58.15976
705.59        58.23532
706.01        58.39967
706.44        58.61507
706.86         58.8343
707.28        59.01708
707.70        59.21293
708.12        59.39085
708.55         59.3812
708.97        59.23183
709.39        59.22235
709.81        59.34111
710.23        59.34103
710.66        59.21721
711.08        59.13868
711.50        59.13504
711.92        59.16825
712.34        59.23991
712.76            59.4
713.19        59.60405
713.61        59.60642
714.03        59.70541
714.45        59.65065
714.87        59.59937
715.29        59.63707
715.71        59.78314
716.13          60.007
716.56        60.23314
716.98        60.38853
717.40        60.41294
717.82        60.39098
718.24        60.39101
718.66        60.22863
719.08         60.3937
719.50        60.48006
719.92        60.58447
720.34        60.62766
720.76        60.59727
721.19        60.51869
721.61        60.42183
722.03        60.35607
722.45        60.34257
722.87        60.37308
723.29        60.44416
723.71        60.55084
724.13        60.68113
724.55         60.8214
724.97        60.96887
725.39        61.11975
725.81        61.26288
726.23        61.39631
726.65        61.47108
727.07        61.41319
727.49        61.22363
727.91        60.93658
728.33        60.65253
728.75        60.52936
729.17        60.60075
729.59        60.81937
730.01         61.0995
730.43        61.28577
730.85        61.33195
731.27         61.2954
731.69        61.20995
732.10        61.13001
732.52        61.07994
732.94        61.02674
733.36          61.017
733.78        61.10377
734.20        61.28159
734.62        61.62678
735.04        62.01596
735.46        62.02365
735.88        61.72476
736.30        61.68512
736.72        61.91008
737.13        61.98988
737.55        61.87993
737.97        61.78533
738.39        61.76025
738.81        61.85289
739.23        62.05391
739.65        62.25036
740.06        62.34967
740.48        62.41275
740.90        62.39904
741.32        62.27409
741.74        62.09054
742.16        61.95166
742.57        61.88676
742.99        61.94345
743.41        62.08953
743.83        62.06109
744.25        61.93371
744.67        62.18427
745.08        62.72087
745.50        62.89563
745.92          62.659
746.34        62.32585
746.75        62.02155
747.17        61.79485
747.59        61.67208
748.01        61.80119
748.42        62.09429
748.84        61.91109
749.26        61.68039
749.68        61.73275
750.09        62.13658
750.51        62.46356
750.93        62.62324
751.35        62.63712
751.76        62.54479
752.18        62.52256
752.60        62.59421
753.01        62.63747
753.43        62.63251
753.85        62.66612
754.27        62.75114
754.68        62.87413
755.10        63.02734
755.52        63.19486
755.93         63.3438
756.35        63.44692
756.77        63.53881
757.18        63.58234
757.60        63.57401
758.02        63.79719
758.43        64.06065
758.85        63.55179
759.26        62.53144
759.68        62.35179
760.10        63.02449
760.51        63.42871
760.93        63.42313
761.34        63.42845
761.76        63.69946
762.18         63.4528
762.59        62.98221
763.01        62.90838
763.42        63.46211
763.84        63.70079
764.26        63.63338
764.67        63.41759
765.09        63.19019
765.50        63.32917
765.92        63.78429
766.33        63.72223
766.75        63.04891
767.16        63.48896
767.58        63.46804
768.00        63.61084
768.41        63.53833
768.83        64.26288
769.24        65.47337
769.66         65.5995
770.07        64.78348
770.49        64.50574
770.90        64.84853
771.32        64.93343
771.73        64.70468
772.15        64.57182
772.56        64.57956
772.97        64.22678
773.39        64.27451
773.80        64.24335
774.22        64.33157
774.63        64.53749
775.05        64.77473
775.46        64.94539
775.88        64.98115
776.29        64.93877
776.70        64.85088
777.12        64.79816
777.53        64.81635
777.95        64.85368
778.36        64.88556
778.77        64.84116
779.19        64.71903
779.60        64.59409
780.02        64.47507
780.43        64.35973
780.84        64.32235
781.26        64.30912
781.67        64.35151
782.09         64.8298
782.50         65.4806
782.91        65.22123
783.33        64.28136
783.74        64.05453
784.15        64.64751
784.57        65.25013
784.98        65.73599
785.39         66.1829
785.81        66.51106
786.22        66.57537
786.63        66.75059
787.04        66.52245
787.46        66.15393
787.87        66.03391
788.28        66.19445
788.70        66.28845
789.11        66.28918
789.52        66.45899
789.93        66.69632
790.35        66.71845
790.76        66.51108
791.17        66.09003
791.58        65.62473
792.00        65.47336
792.41        65.65038
792.82        65.85655
793.23        65.97958
793.65         66.0154
794.06        65.96563
794.47        65.85575
794.88        65.78363
795.29        65.82756
795.71        65.94566
796.12        66.32064
796.53        66.79035
796.94        66.76667
797.35        66.26637
797.76        65.98551
798.18        66.01495
798.59        65.94827
799.00        65.81956
799.41        65.88959
799.82        66.14789
800.23         66.4194
800.64        66.66476
801.06        66.91152
801.47        67.11485
801.88         67.1114
802.29        66.87849
802.70        66.44199
803.11        65.96302
803.52        65.71322
803.93        65.78139
804.34        66.11464
804.75        66.55542
805.17        66.93169
805.58        67.22183
805.99        67.06387
806.40        66.65195
806.81        67.22039
807.22        68.39694
807.63        68.01775
808.04        66.33216
808.45        65.64207
808.86        66.12421
809.27        66.50327
809.68        66.60963
810.09        66.75526
810.50        66.87959
810.91        66.90448
811.32        66.85627
811.73        66.77834
812.14        66.69569
812.55        66.61039
812.96        66.56406
813.37         66.6187
813.78        66.78341
814.19        67.04007
814.60        67.33302
815.01        67.57221
815.42         67.7308
815.83        67.82619
816.24         67.8574
816.65        67.82951
817.05         67.7549
817.46        67.60988
817.87        67.45004
818.28        67.31717
818.69         67.2203
819.10        67.15516
819.51        67.11296
819.92        67.07027
820.33        67.02108
820.74        66.97712
821.14        66.93069
821.55         66.8941
821.96        66.86108
822.37          66.842
822.78        66.85429
823.19        66.92731
823.60         67.0694
824.00        67.28424
824.41        67.52325
824.82        67.80991
825.23        68.11871
825.64        68.41605
826.04        68.66886
826.45        68.75575
826.86        68.67851
827.27        68.47979
827.68        68.16822
828.08        67.77882
828.49        67.32144
828.90        66.81863
829.31        66.40514
829.72        66.28032
830.12        66.50819
830.53        67.00948
830.94        67.58526
831.35        67.82487
831.75         67.6348
832.16        67.08424
832.57        66.48669
832.97        66.31567
833.38        66.65744
833.79        67.36279
834.20        68.15311
834.60        68.55533
835.01        68.41463
835.42        67.91212
835.82        67.26982
836.23        66.82086
836.64        66.67115
837.04        66.72341
837.45        66.88259
837.86        67.05398
838.26        67.19442
838.67        67.31173
839.08        67.39021
839.48         67.3672
839.89        67.23097
840.29        67.00122
840.70        66.74598
841.11        66.54639
841.51         66.4446
841.92        66.39545
842.33        66.43298
842.73        66.61121
843.14        66.87745
843.54        67.26669
843.95        67.63723
844.35        67.82032
844.76        67.74926
845.17        67.46538
845.57        67.13794
845.98        67.02795
846.38        67.21206
846.79        67.60518
847.19        68.03636
847.60        68.13234
848.00        67.83009
848.41        67.23186
848.81        66.59308
849.22        66.27927
849.62         66.3912
850.03        66.79329
850.43        67.29321
850.84          67.427
851.24        67.13499
851.65        66.53103
852.05        65.89687
852.46        65.65748
852.86        65.89468
853.27        66.44193
853.67         67.0618
854.07        67.61054
854.48        67.97223
854.88        68.28908
855.29        68.37662
855.69        68.16136
856.10        67.56432
856.50         66.7122
856.90        65.85377
857.31        65.35968
857.71        65.30403
858.12        65.54839
858.52        66.00488
858.92        66.29371
859.33        66.27174
859.73        66.08572
860.13        65.75277
860.54        65.33437
860.94        64.88868
861.34        64.38875
861.75        63.96277
862.15        63.88534
862.55        64.18841
862.96        64.77462
863.36        65.47039
863.76        65.90055
864.17        65.95515
864.57        65.74335
864.97         65.3762
865.38        65.05633
865.78         64.8792
866.18        64.75903
866.58        64.67335
866.99        64.59086
867.39        64.54032
867.79        64.57096
868.19        64.62588
868.60        64.57532
869.00        64.39826
869.40        64.10135
869.80        63.88361
870.21        64.10653
870.61         64.8532
871.01        65.91724
871.41        66.87316
871.81        67.09454
872.22         66.4678
872.62        65.21473
873.02        63.73304
873.42        62.68315
873.82        62.30243
874.22        62.44339
874.63        62.91111
875.03        63.37788
875.43        63.71882
875.83        64.00557
876.23        64.32834
876.63        64.82096
877.03        65.47993
877.44        66.19511
877.84        66.76266
878.24        66.83241
878.64        66.35424
879.04         65.4729
879.44        64.50983
879.84        63.93646
880.24        63.86588
880.64        64.17843
881.04        64.65512
881.44        64.92558
881.84        64.88615
882.24        64.64935
882.65        64.34554
883.05         64.2992
883.45        64.55657
883.85         65.0003
884.25        65.49563
884.65        65.87711
885.05        66.10098
885.45        66.21006
885.85        66.26633
886.25        66.36954
886.65        66.53162
887.05        66.70213
887.45        66.79452
887.85        66.67771
888.25        66.34682
888.65         65.8859
889.04        65.40121
889.44        65.03512
889.84        64.84674
890.24        64.76621
890.64        64.80544
891.04        64.97093
891.44        65.24307
891.84        65.65612
892.24         66.0222
892.64        66.02103
893.04         65.6124
893.44        64.87365
893.83        64.18457
894.23        64.14977
894.63        64.84103
895.03        66.08179
895.43        67.38402
895.83        67.84927
896.23        67.26814
896.63        66.00269
897.02         64.5342
897.42        63.63958
897.82        63.44095
898.22        63.73674
898.62        64.34975
899.01        65.00385
899.41        65.51347
899.81        65.97913
900.21        66.41869
900.61        66.84545
901.00        67.24772
901.40        67.55441
901.80        67.69102
902.20        67.58489
902.59        67.24996
902.99        66.72997
903.39        66.18619
903.79        65.86436
904.18        65.80914
904.58        65.97671
904.98        66.20869
905.38        66.26127
905.77        66.07832
906.17        65.76489
906.57        65.40608
906.96        65.15768
907.36        65.06097
907.76        65.07024
908.15        65.21154
908.55        65.48462
908.95        65.87543
909.34        66.37917
909.74        66.84766
910.14        67.11583
910.53        67.12628
910.93        66.91528
911.33        66.57709
911.72         66.2672
912.12        66.06297
912.52        65.93478
912.91        65.82631
913.31        65.63427
913.70        65.35984
914.10        65.06284
914.49         64.8573
914.89         64.8923
915.29        65.18525
915.68        65.64936
916.08        66.16998
916.47        66.57143
916.87        66.78114
917.26        66.85895
917.66        66.78858
918.05         66.5507
918.45        66.16615
918.84        65.66628
919.24        65.20802
919.64        65.13828
920.03        65.53692
920.42        66.28403
920.82        67.10201
921.21        67.59505
921.61        67.63716
922.00        67.33515
922.40        66.85003
922.79        66.55618
923.19        66.54872
923.58        66.70448
923.98        66.85304
924.37        66.70584
924.77        66.25195
925.16        65.61044
925.55        64.96195
925.95         64.5743
926.34        64.56272
926.74        64.79533
927.13         65.2832
927.52        65.95112
927.92        66.70244
928.31        67.53668
928.70        68.24333
929.10        68.50652
929.49        68.28052
929.89        67.64327
930.28        66.80769
930.67        66.10817
931.07        65.66156
931.46        65.38636
931.85        65.28463
932.24        65.33855
932.64        65.50465
933.03        65.84727
933.42        66.15165
933.82        66.08767
934.21         65.6172
934.60        64.80573
934.99        64.03687
935.39        63.88654
935.78        64.49266
936.17        65.72568
936.56         67.0862
936.96        67.64284
937.35        67.18111
937.74        65.95702
938.13        64.60149
938.53        63.95736
938.92        64.15922
939.31        65.00338
939.70        66.05307
940.09         66.5151
940.49        66.16512
940.88         65.2814
941.27        64.32269
941.66        63.96719
942.05        64.37016
942.44        65.32015
942.84        66.41899
943.23        67.02109
943.62         66.8614
944.01        66.16188
944.40        65.27455
944.79        64.74565
945.18        64.72907
945.57        65.04239
945.97        65.46162
946.36         65.7401
946.75        65.76149
947.14        65.63383
947.53        65.44247
947.92        65.31658
948.31        65.30037
948.70        65.33144
949.09        65.38129
949.48        65.41486
949.87        65.43295
950.26        65.49187
950.65        65.57772
951.04        65.65953
951.43        65.72794
951.82        65.73507
952.21        65.79383
952.60         66.1007
952.99        66.64144
953.38         67.3351
953.77        67.85958
954.16        67.65527
954.55        66.64524
954.94        65.09836
955.33        63.42906
955.72        62.25891
956.11        61.76683
956.50        61.75813
956.89        62.13499
957.28         62.7281
957.66        63.45352
958.05        64.25035
958.44        64.88418
958.83        64.87457
959.22         64.1559
959.61        62.92122
960.00        61.55804
960.39        60.62405
960.78        60.26545
961.16        60.37866
961.55        60.83913
961.94        61.52425
962.33        62.33345
962.72        63.30636
963.11        64.25019
963.49        64.81113
963.88         64.8343
964.27         64.4002
964.66        63.75374
965.04        63.28173
965.43        63.05615
965.82        62.96825
966.21        62.90796
966.60        62.65993
966.98        62.19226
967.37        61.64169
967.76        61.07242
968.15        60.54109
968.53        60.11058
968.92        59.73575
969.31        59.58673
969.69        59.94722
970.08        60.79476
970.47         62.0386
970.86        63.28061
971.24        63.80379
971.63        63.35561
972.02        62.18251
972.40        60.71213
972.79        59.63774
973.17        59.19373
973.56        59.21267
973.95        59.51486
974.33        59.81822
974.72        59.97457
975.11        60.02077
975.49        60.17245
975.88         60.7832
976.26        61.93343
976.65        63.40899
977.04        64.57204
977.42        64.43069
977.81        62.85566
978.19        60.18773
978.58        57.64849
978.96         56.8199
979.35        58.00836
979.74        60.87056
980.12        64.47571
980.51        66.36258
980.89        65.90086
981.28        63.67193
981.66        60.88464
982.05         59.6203
982.43        60.36391
982.82         62.3743
983.20        65.06876
983.59        67.29048
983.97        68.65936
984.35        69.55208
984.74        69.63166
985.12        68.48047
985.51        66.18425
985.89        62.82058
986.28        59.60503
986.66        58.36032
987.04        59.57409
987.43        62.78073
987.81         66.6133
988.20          68.453
988.58        67.61353
988.96         64.6968
989.35        61.18903
989.73        59.49836
990.12        60.19046
990.50        62.54437
990.88        65.19406
991.27        65.94134
991.65        64.32951
992.03        61.19469
992.42        57.77297
992.80        55.64402
993.18        55.35614
993.56        56.33785
993.95        57.94983
994.33        59.39764
994.71        60.14784
995.10        60.51865
995.48        60.52535
995.86        60.16687
996.24        59.54636
996.63        58.58654
997.01        57.57163
997.39        56.95683
997.77        56.82226
998.15        57.11234
998.54        57.58112
998.92        57.71776
999.30        57.38975
999.68        56.75799
1000.06        56.08348
1000.45        55.77906
1000.83        56.08984
1001.21        56.82388
1001.59        57.78345
1001.97        58.63911
1002.35        59.22264
1002.73        59.56379
1003.12        59.72134
1003.50        59.74678
1003.88        59.71111
1004.26        59.64174
1004.64        59.43162
1005.02        58.91123
1005.40        58.10708
1005.78        57.09641
1006.16        56.27542
1006.54        56.31681
1006.92        57.33598
1007.30        59.07776
1007.69           60.89
1008.07        61.93788
1008.45        61.88191
1008.83        60.99112
1009.21        59.63607
1009.59        58.46384
1009.97        57.74453
1010.35        57.31984
1010.73         57.2132
1011.11        57.45784
1011.49        58.04505
1011.86        59.17059
1012.24        60.45486
1012.62        61.53861
1013.00        62.24795
1013.38        62.55219
1013.76        62.65599
1014.14        63.04801
1014.52        63.84289
1014.90        64.87469
1015.28        65.74485
1015.66         65.7581
1016.04        64.88459
1016.41        63.57566
1016.79        62.29706
1017.17        61.42044
1017.55        60.90355
1017.93        60.48694
1018.31        60.17256
1018.69        60.05863
1019.06        60.13977
1019.44        60.43388
1019.82        60.44786
1020.20         59.5949
1020.58        57.81675
1020.95        54.97104
1021.33        51.71658
1021.71        49.86994
1022.09        50.51896
1022.46        53.21468
1022.84        56.64698
1023.22        59.04882
1023.60        59.90405
1023.97        59.74637
1024.35        58.73603
1024.73        57.22221
