SpectraSmart Spectrum 2.9.0.0
--------- Device Information -----------
Spectrum Name :  反射率_0
Saving Time :  2024/05/01 17:06:20
Spectro-Module Model Name : SE2030-DUVN
Spectro-Module Serial Number : OS361AC55029948
Wavelength Start : 200
Wavelength End : 1025
Wavelength Unit : Wavelength(nm)
Spectrum Unit : Reflectance(%)
-----------Spectrum Setting ------------
Integration Time : 20ms
Average : 10
Boxcar : 0
Background removal :  enabled
linearity correction :  enabled
SC :  disabled
Intensity correction :  disabled
DWT denoise :  enabled
savitzky-golay :  disabled
FFT :  disabled
Running average :  disabled
Kalman :  disabled
High pass :  disabled
---------------BEGIN--------------------
Wavelength(nm)             Reflectance(%)
200.29               0
200.75        147.9291
201.21        656.2622
201.67       -267.9169
202.13       -91.27048
202.58       -33.74922
203.04       0.8033465
203.50        22.29529
203.96        31.84948
204.42        32.10723
204.88        17.30393
205.34       -416.7197
205.80        100.2624
206.26        61.19666
206.72        21.84297
207.18       -147.3583
207.64        338.9452
208.10        170.8974
208.55        131.3655
209.01        110.9484
209.47        96.53353
209.93        84.34876
210.39        71.12254
210.85        59.42632
211.31           54.18
211.77        63.83511
212.23       -76.38344
212.69        6.265204
213.14        20.08009
213.60        50.71273
214.06       -251.0819
214.52       -37.90099
214.98        -18.7382
215.44       -4.144021
215.90        29.62412
216.36        521.7289
216.81       -243.6024
217.27       -316.8332
217.73        603.1605
218.19        107.2867
218.65        68.39574
219.11        75.56294
219.57        139.2892
220.02         438.145
220.48         261.351
220.94        101.8578
221.40         60.0915
221.86        47.64116
222.32        48.25945
222.77         57.3394
223.23        75.23432
223.69        99.47377
224.15        110.3409
224.61        100.4816
225.06        83.46172
225.52        72.16852
225.98        71.34601
226.44        79.93947
226.90        97.37792
227.36        120.1752
227.81        130.7347
228.27        122.3419
228.73        106.4955
229.19        93.67905
229.65        89.53937
230.10        93.06545
230.56         102.353
231.02         114.715
231.48        121.5955
231.93         118.923
232.39        111.7607
232.85        103.9773
233.31        98.88643
233.77        96.68812
234.22        95.75034
234.68        95.97905
235.14        97.40455
235.60        100.0889
236.05         105.151
236.51        112.0003
236.97        117.2521
237.43        117.3634
237.88        111.5359
238.34        103.1817
238.80        98.75479
239.26        99.94511
239.71        108.0252
240.17        120.8662
240.63        124.8133
241.08        109.1486
241.54        81.61243
242.00        58.40506
242.46         50.1385
242.91        57.46354
243.37         81.6644
243.83        127.4793
244.28         164.856
244.74        157.6344
245.20         131.445
245.66         108.096
246.11        92.68633
246.57        81.00751
247.03        66.34737
247.48        43.76793
247.94        14.46844
248.40       -10.03826
248.85       -22.46519
249.31       -19.34774
249.77       -6.668844
250.22        7.962889
250.68        21.41207
251.14        31.52918
251.59        38.01444
252.05         42.7568
252.51        47.77213
252.96         57.1518
253.42        81.46696
253.88        103.9895
254.33        100.8306
254.79        92.26456
255.25        86.40025
255.70        82.22734
256.16        79.51385
256.62            77.7
257.07        76.56845
257.53          76.463
257.99        76.76139
258.44        77.00625
258.90        77.42633
259.35        77.60572
259.81        77.95271
260.27        78.26785
260.72        78.36925
261.18        78.55106
261.63        78.43797
262.09        78.39592
262.55        78.31271
263.00        78.03947
263.46         77.7881
263.91        77.27766
264.37         76.6461
264.83        75.82735
265.28         74.8529
265.74        73.92184
266.19        72.91023
266.65        71.98537
267.11        71.08061
267.56        70.31344
268.02        69.98953
268.47        70.07212
268.93        70.43473
269.38        70.81705
269.84        70.75511
270.30        70.15131
270.75        69.11689
271.21        67.88108
271.66        66.65225
272.12        65.58547
272.57         64.5352
273.03        63.57171
273.48        62.69791
273.94         61.9641
274.39        61.34381
274.85        60.76677
275.31        59.98384
275.76        58.94694
276.22        57.80345
276.67        56.66562
277.13         55.8922
277.58        55.40376
278.04        55.14013
278.49         54.8071
278.95        54.14936
279.40        53.06316
279.86        51.76801
280.31        50.38926
280.77        49.26068
281.22        48.36203
281.68        47.68392
282.13        47.05723
282.59        46.39679
283.04        45.61979
283.50        44.83623
283.95        44.07429
284.41        43.47166
284.86        43.02189
285.32        42.69621
285.77        42.42273
286.22        42.17647
286.68        41.92771
287.13         41.6576
287.59        41.32669
288.04        40.82726
288.50        40.20574
288.95         39.4619
289.41        38.76005
289.86        38.21506
290.32         37.8828
290.77        37.69607
291.22        37.55965
291.68        37.31049
292.13        36.90713
292.59        36.43298
293.04        35.96534
293.50        35.68802
293.95        35.61383
294.40        35.68381
294.86        35.81638
295.31        35.89599
295.77        35.88386
296.22        35.81589
296.68        35.70599
297.13        35.54425
297.58        35.36194
298.04        35.18167
298.49         35.0442
298.95        35.06251
299.40        35.22999
299.85        35.50125
300.31         35.8358
300.76        36.15858
301.21        36.43886
301.67        36.69874
302.12        36.85822
302.58        36.83462
303.03        36.61634
303.48        36.26754
303.94        35.95371
304.39        35.84406
304.84        35.99068
305.30        36.32219
305.75        36.71296
306.20        36.98807
306.66        37.09978
307.11        37.07645
307.57        36.97515
308.02        36.82368
308.47        36.65944
308.93        36.47801
309.38        36.27118
309.83         36.0843
310.29        35.93594
310.74        35.82013
311.19        35.73357
311.65         35.6504
312.10        35.55607
312.55        35.45614
313.00        35.36874
313.46        35.32252
313.91        35.31073
314.36        35.31643
314.82        35.29599
315.27        35.19617
315.72        35.00186
316.18        34.74149
316.63        34.44577
317.08        34.16879
317.53        33.92782
317.99        33.71597
318.44        33.52084
318.89        33.33412
319.35         33.1555
319.80        32.99166
320.25        32.85209
320.70         32.7439
321.16        32.66085
321.61        32.60557
322.06        32.55809
322.51        32.49396
322.97        32.39891
323.42         32.2857
323.87        32.16666
324.32        32.07507
324.78        32.01233
325.23        31.98051
325.68        31.94258
326.13        31.84815
326.59        31.67791
327.04        31.45854
327.49         31.2229
327.94        31.03817
328.39        30.92186
328.85        30.84814
329.30           30.79
329.75        30.66224
330.20        30.44751
330.66        30.16812
331.11        29.88916
331.56        29.68239
332.01          29.574
332.46         29.5422
332.92        29.55051
333.37        29.57159
333.82        29.57982
334.27        29.59382
334.72         29.6151
335.17        29.64762
335.63        29.67945
336.08        29.70642
336.53        29.73876
336.98        29.81556
337.43        29.93855
337.88        30.10559
338.34        30.23374
338.79        30.20303
339.24        29.99081
339.69        29.64215
340.14        29.30334
340.59        29.20516
341.05        29.38715
341.50        29.78275
341.95        30.23657
342.40        30.49382
342.85         30.4888
343.30        30.30884
343.75        30.06369
344.20        29.92489
344.66        29.94594
345.11        30.05662
345.56        30.22809
346.01        30.41275
346.46        30.57597
346.91        30.73047
347.36        30.83785
347.81        30.83473
348.26        30.72105
348.72        30.53054
349.17        30.29496
349.62        30.11102
350.07        30.00368
350.52        29.93974
350.97         29.9177
351.42        29.92627
351.87        29.95484
352.32        30.02467
352.77        30.06023
353.22         29.9453
353.67        29.67305
354.13        29.27889
354.58        28.90428
355.03        28.80823
355.48        29.02971
355.93        29.50013
356.38        29.99523
356.83        30.13531
357.28        29.84337
357.73        29.25226
358.18         28.6236
358.63        28.34666
359.08        28.49593
359.53        28.93178
359.98        29.45576
360.43        29.73361
360.88        29.66166
361.33        29.36198
361.78        28.93984
362.23        28.54154
362.68        28.22515
363.13        27.94185
363.58        27.71211
364.03        27.58236
364.48        27.54604
364.93        27.58756
365.38        27.64545
365.83        27.61203
366.28        27.45788
366.73        27.21368
367.18        26.89396
367.63        26.53471
368.08        26.17051
368.53        25.80343
368.98        25.48581
369.43        25.29095
369.88        25.21996
370.33        25.24623
370.78        25.30513
371.23         25.2783
371.68        25.12936
372.13        24.89679
372.58        24.61033
373.03        24.31473
373.48        24.03281
373.93        23.75298
374.38        23.51233
374.83        23.37562
375.28        23.35043
375.72        23.41359
376.17        23.50608
376.62        23.52623
377.07        23.44677
377.52        23.29198
377.97        23.09622
378.42        22.91798
378.87        22.77884
379.32        22.66553
379.77        22.56729
380.22        22.46737
380.67        22.36238
381.11        22.26435
381.56        22.18513
382.01        22.14636
382.46        22.14939
382.91        22.18112
383.36         22.2111
383.81        22.19766
384.26        22.12619
384.71        21.99951
385.15        21.83846
385.60        21.69774
386.05        21.58521
386.50        21.49954
386.95        21.40452
387.40        21.24321
387.85        21.02013
388.29        20.75014
388.74        20.53745
389.19        20.46429
389.64         20.5353
390.09        20.70082
390.54        20.88607
390.98        20.96887
391.43        20.92386
391.88        20.79695
392.33        20.61676
392.78        20.43272
393.23         20.2689
393.67        20.08024
394.12        19.92364
394.57        19.90226
395.02         19.9913
395.47        20.04151
395.91        20.03695
396.36        20.05787
396.81        20.10319
397.26        20.11072
397.71        20.07928
398.15        20.05998
398.60         20.0786
399.05        20.02961
399.50        19.94904
399.95        20.03762
400.39        20.23355
400.84        20.17495
401.29        19.86625
401.74        19.63822
402.18        19.51869
402.63        19.31116
403.08        19.07793
403.53        19.00039
403.97         19.0869
404.42        19.28261
404.87        19.49328
405.32        19.56894
405.76        19.47065
406.21        19.25334
406.66         18.9918
407.11        18.80719
407.55        18.74017
408.00        18.75576
408.45        18.81404
408.90         18.8183
409.34        18.75405
409.79        18.69808
410.24        18.66549
410.68        18.62973
411.13        18.59877
411.58        18.58713
412.03        18.58472
412.47        18.56946
412.92        18.53357
413.37        18.48603
413.81        18.44085
414.26        18.43415
414.71        18.46373
415.15        18.52678
415.60        18.58177
416.05        18.57918
416.49        18.50934
416.94        18.38964
417.39        18.26653
417.83        18.21231
418.28        18.24415
418.73        18.33775
419.17        18.45329
419.62        18.52001
420.07        18.52305
420.51        18.48149
420.96        18.43189
421.41        18.40497
421.85        18.40326
422.30        18.41899
422.74        18.44373
423.19        18.48531
423.64        18.53564
424.08        18.60576
424.53        18.64886
424.98        18.61279
425.42        18.49507
425.87        18.31844
426.31        18.14065
426.76        18.06129
427.21        18.09384
427.65        18.20399
428.10        18.35541
428.54        18.48185
428.99         18.5632
429.44        18.64439
429.88        18.67776
430.33        18.59887
430.77        18.41564
431.22        18.17734
431.66        17.96475
432.11        17.94173
432.56        18.06811
433.00        18.19978
433.45        18.21952
433.89         18.0052
434.34        17.54407
434.78        17.70253
435.23        18.51741
435.67        18.84527
436.12        18.66187
436.57        18.55018
437.01        18.57077
437.46        18.52909
437.90         18.4409
438.35        18.38568
438.79        18.35193
439.24        18.27616
439.68         18.1904
440.13        18.24246
440.57        18.38334
441.02        18.45295
441.46        18.43641
441.91        18.29686
442.35        18.10356
442.80        18.27223
443.24        18.66347
443.69        18.54349
444.13        18.00283
444.58        17.80807
445.02          17.979
445.47        18.11426
445.91        18.16964
446.36        18.26537
446.80        18.38212
447.24        18.48116
447.69        18.56228
448.13        18.62671
448.58        18.67349
449.02        18.69897
449.47        18.69815
449.91        18.64955
450.36        18.56277
450.80        18.44785
451.25        18.33354
451.69        18.24986
452.13        18.20788
452.58         18.2012
453.02        18.21364
453.47        18.23003
453.91        18.23928
454.36        18.25078
454.80        18.25436
455.24        18.23233
455.69        18.18861
456.13        18.11649
456.58        18.05309
457.02        18.03202
457.46        18.06278
457.91        18.13304
458.35         18.2031
458.79        18.18218
459.24        18.06759
459.68        17.93815
460.13        17.86645
460.57        17.60102
461.01        17.66915
461.46        17.66422
461.90        17.72526
462.34        17.75351
462.79        17.83487
463.23        17.89149
463.68        17.94936
464.12        18.00632
464.56        18.05909
465.01        18.12898
465.45          18.166
465.89        18.12964
466.34        18.02547
466.78        17.86279
467.22        17.69918
467.67        17.66633
468.11        17.71524
468.55        17.87778
468.99        18.07266
469.44        18.20683
469.88        18.25654
470.32        18.24257
470.77        18.19483
471.21        18.16184
471.65        18.15944
472.10        18.17374
472.54        18.18694
472.98        18.18445
473.42        18.16428
473.87        18.14431
474.31        18.12482
474.75        18.12191
475.20        18.14321
475.64        18.17063
476.08        18.19464
476.52        18.24787
476.97        18.33461
477.41        18.35707
477.85        18.27851
478.29        18.55759
478.74        18.39468
479.18        18.40396
479.62        18.35988
480.06        18.39421
480.50        18.51855
480.95        18.36282
481.39         18.5468
481.83        18.53448
482.27        18.52222
482.72        18.52501
483.16        18.54005
483.60        18.59457
484.04        18.69042
484.48        18.68362
484.93        18.69326
485.37        19.00735
485.81         19.4988
486.25        19.56074
486.69         19.2718
487.14        18.65469
487.58         18.7514
488.02        19.44061
488.46         19.1992
488.90        19.41022
489.34        19.39224
489.79        19.18631
490.23        19.57188
490.67        19.79165
491.11        20.02343
491.55        19.97471
491.99        19.71775
492.43        19.64924
492.88        19.79783
493.32        19.92423
493.76        19.99417
494.20        20.08964
494.64        20.20782
495.08        20.30429
495.52        20.38513
495.96        20.52538
496.41        20.70338
496.85        20.76217
497.29        20.72968
497.73        20.84628
498.17        21.08955
498.61        21.17809
499.05         21.1195
499.49        21.15099
499.93        21.28004
500.37        21.37237
500.82        21.43712
501.26        21.54218
501.70        21.68793
502.14        21.85795
502.58         22.0064
503.02         22.0619
503.46        22.01666
503.90        21.89542
504.34        21.77393
504.78        21.77408
505.22        21.92298
505.66        22.18473
506.10        22.47451
506.54        22.65041
506.98        22.67417
507.42        22.58845
507.86        22.46479
508.30        22.41494
508.74         22.4696
509.18        22.59466
509.62        22.74258
510.06         22.8366
510.50        22.85516
510.94        22.82619
511.38        22.78807
511.82        22.79844
512.26        22.86974
512.70        22.97639
513.14        23.08548
513.58        23.14876
514.02        23.15354
514.46        23.11902
514.90        23.06284
515.34        23.01244
515.78           22.98
516.22        22.95769
516.66        22.94951
517.10        22.96146
517.54        22.99183
517.98        23.04059
518.42         23.0924
518.86        23.12006
519.30        23.11679
519.74        23.08743
520.18        23.04794
520.62        23.02571
521.06        23.02667
521.50        23.04219
521.93        23.05897
522.37        23.04986
522.81        23.01285
523.25        22.96051
523.69        22.90526
524.13        22.86509
524.57        22.84571
525.01        22.83879
525.45        22.84433
525.89        22.86341
526.32        22.89102
526.76        22.92325
527.20        22.94392
527.64        22.92683
528.08        22.86939
528.52        22.78433
528.96         22.6885
529.40        22.60898
529.83        22.55158
530.27         22.5125
530.71        22.49285
531.15        22.49878
531.59        22.52606
532.03         22.5722
532.46        22.60707
532.90         22.5874
533.34        22.50899
533.78        22.36941
534.22        22.21199
534.66        22.14149
535.09        22.15016
535.53        22.14047
535.97        22.09761
536.41        22.07754
536.85        22.07627
537.28        22.05727
537.72        22.02993
538.16         22.0313
538.60         22.0648
539.04        22.11576
539.47        22.17541
539.91        22.24537
540.35        22.31657
540.79        22.39942
541.22         22.4866
541.66        22.53204
542.10        22.59211
542.54        22.62453
542.97        22.65926
543.41        22.73064
543.85        22.83982
544.29        22.97848
544.72        23.12477
545.16        23.25561
545.60        23.36011
546.04        23.44238
546.47        23.51729
546.91        23.61334
547.35        23.73711
547.79        23.87515
548.22        23.99168
548.66        24.08507
549.10        24.15334
549.53         24.0909
549.97          24.153
550.41        24.25148
550.84        24.45859
551.28        24.75125
551.72        25.06021
552.15        25.24784
552.59        25.30103
553.03        25.29369
553.46        25.27193
553.90        25.32096
554.34        25.46005
554.77        25.62505
555.21        25.77452
555.65        26.05803
556.08        25.95599
556.52         26.0275
556.96        26.17682
557.39        25.89788
557.83        26.18928
558.27        26.21033
558.70        26.24992
559.14        26.41273
559.57        26.46305
560.01        26.62437
560.45        26.75739
560.88         26.7578
561.32        26.67664
561.75        26.54904
562.19         26.4654
562.63        26.67606
563.06        27.07217
563.50        27.07861
563.93        26.75309
564.37        26.71199
564.80        26.96004
565.24        27.15634
565.68        27.26041
566.11        27.36983
566.55        27.48403
566.98        27.56741
567.42        27.64106
567.85        27.71425
568.29        27.79817
568.72        27.88838
569.16        28.01236
569.60        28.11793
570.03        28.18224
570.47        28.44831
570.90        28.53681
571.34         28.6367
571.77        28.73334
572.21        28.79325
572.64        28.90423
573.08        28.92383
573.51        29.40206
573.95        29.63439
574.38        29.21055
574.82        29.39144
575.25        29.69417
575.69        29.82693
576.12        29.70893
576.56        29.77914
576.99         30.0382
577.42        29.89628
577.86        30.07697
578.29        29.91098
578.73         30.0039
579.16        29.68745
579.60        29.46485
580.03        29.40871
580.47        29.45168
580.90        29.23677
581.33        29.54505
581.77        29.77735
582.20        29.52564
582.64        29.38412
583.07        29.29806
583.51        29.08476
583.94        28.91327
584.37        28.94905
584.81         29.1357
585.24        29.10801
585.68         28.9422
586.11        28.55992
586.54        28.64471
586.98        28.63756
587.41        28.65491
587.85        28.83027
588.28        28.50098
588.71        28.09524
589.15        28.52474
589.58        28.16007
590.01         28.2674
590.45        28.20624
590.88         28.2721
591.31        28.31585
591.75         28.3288
592.18         28.2673
592.61        28.10953
593.05        28.27553
593.48        28.37787
593.91        28.18318
594.35        28.37989
594.78        28.47419
595.21        28.65593
595.65        28.74318
596.08        28.76655
596.51        28.77982
596.94        28.93595
597.38        29.10369
597.81        29.37547
598.24        29.21198
598.68        29.61088
599.11        29.84029
599.54        30.23112
599.97        30.28383
600.41        30.44803
600.84         30.7757
601.27        30.99723
601.70        31.46258
602.14        31.80541
602.57        32.09414
603.00        32.27383
603.43        32.42609
603.87        32.81325
604.30        33.12222
604.73        33.33527
605.16        33.64509
605.60         33.9973
606.03        34.36745
606.46        34.66184
606.89         34.9301
607.32        35.12918
607.76        35.35691
608.19        35.61072
608.62        36.09326
609.05        36.30584
609.48        36.66352
609.92        36.79435
610.35        36.68721
610.78        37.70912
611.21        38.05056
611.64         38.1422
612.07        38.40065
612.50        38.68445
612.94        38.86113
613.37        38.90308
613.80        39.05721
614.23         39.1958
614.66        39.54752
615.09         39.4978
615.52        39.76206
615.96        40.09262
616.39        40.54713
616.82        40.66517
617.25        40.73381
617.68        41.13272
618.11        41.22657
618.54        41.19364
618.97        41.20741
619.40        41.34515
619.84        41.49232
620.27        41.64811
620.70        42.07966
621.13        42.69388
621.56        42.45024
621.99         42.2601
622.42        42.20634
622.85        42.59518
623.28        42.49125
623.71        42.27281
624.14        42.78563
624.57        42.72386
625.00        42.89368
625.43        42.85506
625.86        42.79261
626.29        42.70709
626.72         42.4398
627.15        42.34991
627.58        42.08694
628.01        41.79708
628.44        41.75718
628.87        41.91071
629.30        41.76349
629.73         41.3102
630.16        41.36493
630.59        41.12867
631.02        41.03767
631.45        40.82421
631.88        40.56138
632.31         40.2433
632.74        39.86709
633.17        39.48413
633.60        39.15331
634.03        38.89124
634.46        38.68495
634.89        38.49389
635.32        38.24793
635.75         37.9297
636.18        37.56143
636.61        37.17496
637.04         36.8199
637.47        36.51196
637.89         36.2287
638.32        35.93655
638.75        35.64112
639.18        35.34758
639.61        34.92306
640.04         34.6571
640.47        34.37309
640.90        34.15807
641.33        33.98891
641.76        33.84664
642.18        33.74752
642.61         33.6837
643.04        33.57907
643.47        33.40571
643.90        33.59081
644.33         33.4104
644.76        33.39586
645.18        33.35511
645.61        33.45738
646.04        33.64751
646.47        33.65123
646.90        33.51825
647.33        33.55141
647.75        33.77497
648.18        34.02916
648.61        34.26477
649.04        34.47264
649.47        34.63568
649.89         34.7723
650.32        34.93037
650.75        35.14679
651.18        35.43642
651.61        35.94246
652.03        36.57615
652.46        36.82693
652.89        36.75274
653.32        36.98337
653.74        37.63614
654.17        38.00891
654.60        38.29285
655.03        39.12444
655.46        38.97255
655.88        39.52325
656.31        44.67717
656.74        43.68015
657.16         40.3932
657.59        40.12834
658.02        41.29359
658.45        41.32129
658.87        41.46698
659.30        41.48882
659.73         41.8821
660.15        42.73069
660.58         42.3923
661.01        42.56556
661.44        42.81146
661.86        43.08521
662.29        43.39553
662.72        43.78753
663.14        44.23335
663.57        44.55679
664.00        44.74773
664.42        44.91906
664.85        45.08245
665.27        45.14289
665.70        45.15919
666.13        45.27242
666.55        45.51037
666.98        45.83051
667.41        46.17339
667.83        46.43495
668.26        46.57618
668.69        46.63425
669.11        46.66516
669.54        46.77659
669.96        46.98601
670.39        47.21114
670.82        47.42888
671.24        47.63594
671.67        47.81611
672.09          47.954
672.52        48.05836
672.94        48.11854
673.37        48.14702
673.80        48.14639
674.22        48.15466
674.65        48.20993
675.07        48.33591
675.50        48.51221
675.92        48.71963
676.35        48.91654
676.77        49.09164
677.20        49.24884
677.62        49.39375
678.05         49.5251
678.47        49.64478
678.90        49.75621
679.32        49.85924
679.75        49.97229
680.17        50.09341
680.60        50.22348
681.02        50.36451
681.45        50.49074
681.87        50.60772
682.30        50.75424
682.72        50.92281
683.15        50.98606
683.57         50.9803
684.00        51.08913
684.42        51.28757
684.85        51.39574
685.27        51.39521
685.70        51.39399
686.12        51.41326
686.54        51.44389
686.97        51.48901
687.39        51.61467
687.82        51.77029
688.24        51.76389
688.66        51.65311
689.09        51.71893
689.51        52.07308
689.94        52.27577
690.36        52.35038
690.78        52.51576
691.21        52.78582
691.63        52.99174
692.06         53.1741
692.48        53.59019
692.90        54.13495
693.33        54.41674
693.75        54.39634
694.17        54.21668
694.60        54.00588
695.02        53.93734
695.44        54.00169
695.87        54.10071
696.29        54.20801
696.71        54.06697
697.14        53.83538
697.56        54.31808
697.98        55.30423
698.41        55.59092
698.83        55.20177
699.25        55.13569
699.68        55.43272
700.10        55.55951
700.52        55.51983
700.94        55.57128
701.37        55.73138
701.79        55.99733
702.21        56.29763
702.64        56.50111
703.06        56.59113
703.48        56.60273
703.90        56.52528
704.33        56.68851
704.75        56.41827
705.17        56.41689
705.59        56.49781
706.01        56.63986
706.44        56.83338
706.86        57.08276
707.28        57.35887
707.70        57.67517
708.12        57.97554
708.55        58.09856
708.97        58.05927
709.39        58.04445
709.81        58.07638
710.23        58.05968
710.66        58.01131
711.08        58.02563
711.50        58.09837
711.92        58.18899
712.34        58.29462
712.76        58.42973
713.19        58.57348
713.61        58.72791
714.03        58.86601
714.45        58.98085
714.87        59.08128
715.29        59.18743
715.71        59.30404
716.13        59.42833
716.56        59.52379
716.98        59.60515
717.40        59.64483
717.82        59.64941
718.24        59.65612
718.66         59.7215
719.08        59.85331
719.50           60.04
719.92        60.22929
720.34        60.31419
720.76         60.2857
721.19        60.22219
721.61        60.16232
722.03        60.11576
722.45        60.10852
722.87        60.16602
723.29        60.27937
723.71        60.41076
724.13        60.53655
724.55         60.6874
724.97        60.90815
725.39        61.10947
725.81        61.24776
726.23        61.83406
726.65        62.06716
727.07        61.87318
727.49        61.91047
727.91        61.53936
728.33        61.14858
728.75        60.92476
729.17        60.93647
729.59        61.11193
730.01        61.37304
730.43        61.59945
730.85        61.74158
731.27        61.84578
731.69        61.91561
732.10        61.95708
732.52        61.98149
732.94        61.96642
733.36        61.96557
733.78        62.05158
734.20        62.22855
734.62        62.55723
735.04        62.92933
735.46        62.96447
735.88        62.72879
736.30        62.74281
736.72         63.0032
737.13        63.10222
737.55         63.0095
737.97        62.96879
738.39        63.01866
738.81        63.16644
739.23        63.37711
739.65        63.49485
740.06        63.47545
740.48        63.48778
740.90        63.51998
741.32        63.53286
741.74        63.51408
742.16        63.47631
742.57        63.43197
742.99        63.35078
743.41         63.2983
743.83        63.45404
744.25        63.80212
744.67        64.09713
745.08        64.23026
745.50        64.50716
745.92        64.23488
746.34        63.94328
746.75        63.54693
747.17        63.31479
747.59        63.28924
748.01        63.41999
748.42        63.65334
748.84        63.87195
749.26        64.04642
749.68        64.11902
750.09        64.12823
750.51        64.34863
750.93        64.69048
751.35        64.68018
751.76        64.38008
752.18        64.29644
752.60        64.47348
753.01        64.63083
753.43          64.717
753.85        64.87446
754.27        65.06387
754.68        65.11983
755.10        65.09624
755.52        65.20872
755.93        65.46817
756.35        65.71768
756.77        65.88131
757.18        65.98967
757.60        66.06094
758.02        65.75199
758.43        65.76466
758.85        65.67063
759.26        64.66905
759.68        64.90465
760.10        65.88382
760.51        66.37131
760.93        66.17933
761.34        66.03031
761.76        65.99264
762.18        65.57986
762.59         65.0742
763.01        65.19776
763.42        66.21273
763.84        66.65445
764.26        66.53644
764.67        66.33496
765.09        66.21468
765.50        66.32529
765.92         66.6006
766.33        66.44048
766.75        65.84699
767.16        65.70512
767.58        66.05961
768.00        66.21281
768.41        66.24323
768.83        67.01055
769.24        68.20378
769.66        68.45955
770.07        67.83829
770.49        67.38431
770.90        67.28782
771.32        67.39766
771.73        67.57421
772.15        67.59617
772.56        67.45995
772.97        67.26994
773.39        67.02396
773.80        67.53951
774.22        67.30664
774.63        67.58623
775.05         67.8384
775.46         68.0043
775.88        68.01894
776.29        67.95176
776.70        67.86662
777.12        67.85209
777.53        67.94627
777.95        68.08402
778.36        68.23222
778.77        68.28282
779.19        68.21745
779.60        68.18584
780.02        68.16399
780.43        67.94209
780.84        67.68674
781.26        67.70222
781.67        67.95964
782.09        68.58845
782.50        69.16278
782.91        68.59348
783.33        67.96652
783.74        67.74874
784.15        68.31201
784.57        68.91309
784.98        69.44762
785.39        69.96796
785.81        70.38574
786.22        70.55158
786.63        70.82873
787.04        70.64855
787.46        70.26508
787.87        70.04564
788.28        70.08669
788.70        70.13056
789.11        70.15321
789.52        70.48696
789.93        70.95955
790.35        70.88118
790.76        70.34863
791.17        70.09962
791.58        70.18159
792.00        70.13802
792.41        69.99193
792.82         69.9297
793.23        69.95026
793.65        70.15256
794.06        70.42533
794.47        70.24661
794.88        69.78548
795.29        69.71381
795.71        70.00008
796.12        70.43634
796.53        70.85668
796.94        70.95258
797.35        70.75708
797.76        70.54242
798.18        70.43185
798.59        70.30724
799.00        70.21769
799.41        70.26166
799.82        70.43668
800.23        70.66402
800.64         70.9145
801.06        71.19218
801.47        71.44566
801.88        71.48521
802.29        71.28023
802.70        70.87294
803.11        70.41911
803.52        70.17268
803.93        70.21686
804.34        70.51126
804.75        70.92944
805.17        71.28046
805.58        71.56022
805.99        71.58299
806.40        71.44705
806.81        71.90432
807.22        72.66768
807.63         72.2282
808.04        70.79878
808.45        70.09978
808.86        70.29234
809.27         70.4348
809.68        70.45105
810.09        70.66692
810.50        71.05109
810.91        71.45959
811.32        71.80662
811.73         72.1103
812.14        72.26775
812.55        71.94395
812.96        71.35437
813.37        71.22342
813.78        71.65458
814.19        72.31278
814.60        72.96703
815.01        73.36504
815.42         73.4177
815.83         73.1968
816.24        72.82193
816.65        72.52505
817.05        72.40777
817.46        72.38551
817.87        72.42033
818.28        72.40954
818.69        72.32146
819.10        72.19508
819.51        72.08123
819.92        72.05569
820.33        72.13489
820.74        72.28362
821.14        72.41621
821.55        72.43946
821.96        72.32687
822.37        72.12905
822.78        71.93532
823.19        71.89959
823.60        72.07712
824.00         72.4424
824.41        72.89571
824.82        73.38276
825.23        73.84007
825.64        74.23918
826.04        74.56527
826.45          74.721
826.86        74.71614
827.27        74.58971
827.68        74.29226
828.08        73.77321
828.49        73.03858
828.90        72.14484
829.31        71.36989
829.72         71.1343
830.12         71.5519
830.53        72.49185
830.94        73.57325
831.35        74.04738
831.75        73.72624
832.16        72.77139
832.57        71.70834
832.97        71.34284
833.38        71.83424
833.79        72.92289
834.20        74.16031
834.60        74.78326
835.01        74.54954
835.42        73.75463
835.82        72.73904
836.23        72.01005
836.64        71.73633
837.04        71.76613
837.45         71.9931
837.86        72.31272
838.26        72.66033
838.67        73.04604
839.08        73.40158
839.48          73.569
839.89        73.50698
840.29        73.24628
840.70          72.897
841.11        72.61777
841.51        72.47809
841.92        72.41941
842.33        72.45718
842.73        72.61339
843.14        72.82564
843.54        73.14496
843.95        73.45819
844.35        73.64806
844.76        73.65182
845.17        73.49314
845.57        73.28368
845.98        73.19617
846.38        73.29199
846.79         73.5106
847.19         73.7496
847.60        73.74757
848.00        73.47799
848.41        73.00852
848.81        72.53989
849.22        72.35648
849.62        72.53587
850.03        72.96168
850.43        73.47247
850.84        73.64147
851.24         73.4298
851.65        72.93478
852.05        72.41298
852.46        72.24219
852.86        72.49306
853.27        73.01572
853.67        73.61545
854.07        74.22906
854.48        74.74448
854.88        75.29357
855.29         75.6097
855.69        75.48114
856.10        74.77189
856.50        73.67071
856.90        72.52299
857.31        71.83551
857.71        71.71652
858.12        71.98849
858.52        72.54784
858.92         72.9574
859.33        73.04779
859.73        72.99262
860.13          72.784
860.54        72.45156
860.94        72.04276
861.34        71.50281
861.75        71.01302
862.15        70.95734
862.55        71.37903
862.96        72.16673
863.36        73.00382
863.76         73.2742
864.17        72.84605
864.57        71.92754
864.97        70.87622
865.38        70.28733
865.78        70.35538
866.18        70.87548
866.58        71.60217
866.99        72.09056
867.39        72.20316
867.79        72.07416
868.19        71.77224
868.60        71.35494
869.00        70.87054
869.40        70.29726
869.80        69.78739
870.21        69.63847
870.61        69.97229
871.01        70.65527
871.41        71.43269
871.81        71.90932
872.22        71.97367
872.62        71.71898
873.02        71.29812
873.42        70.97364
873.82        70.84405
874.22        70.86031
874.63        70.92555
875.03        70.88541
875.43        70.71978
875.83        70.49185
876.23        70.37016
876.63        70.60528
877.03        71.21975
877.44        72.08592
877.84        72.96516
878.24        73.41058
878.64        73.30476
879.04        72.78489
879.44        72.08392
879.84        71.55934
880.24        71.31824
880.64        71.27261
881.04        71.33469
881.44        71.35065
881.84        71.28445
882.24        71.21616
882.65        71.17513
883.05        71.30397
883.45        71.57414
883.85        71.89902
884.25        72.25631
884.65        72.64445
885.05        73.04703
885.45        73.47144
885.85        73.79525
886.25        73.81311
886.65        73.49301
887.05        72.89444
887.45        72.25677
887.85         71.9515
888.25        72.06664
888.65        72.52082
889.04        73.06136
889.44        73.24176
889.84         72.9718
890.24        72.37325
890.64        71.73958
891.04        71.49599
891.44        71.72459
891.84        72.31171
892.24        72.92985
892.64        73.03127
893.04        72.50558
893.44        71.54095
893.83         70.5742
894.23        70.27058
894.63        70.73531
895.03        71.76866
895.43        72.93282
895.83        73.43285
896.23        73.05703
896.63        72.10284
897.02        70.96421
897.42          70.313
897.82        70.24323
898.22        70.60252
898.62        71.18826
899.01        71.68797
899.41        71.93536
899.81         72.0505
900.21        72.21556
900.61        72.72244
901.00        73.60019
901.40        74.66875
901.80        75.62366
902.20        76.02626
902.59        75.79752
902.99        75.09813
903.39        74.19133
903.79        73.50715
904.18        73.16658
904.58        73.05453
904.98        73.08559
905.38        73.12883
905.77        73.12704
906.17        73.19023
906.57        73.18807
906.96        72.90753
907.36        72.32753
907.76        71.50448
908.15        70.80621
908.55        70.79141
908.95        71.57259
909.34        72.98473
909.74        74.50095
910.14        75.33263
910.53        75.25943
910.93        74.50118
911.33        73.48928
911.72        72.91686
912.12        72.98955
912.52        73.48888
912.91        74.08075
913.31        74.21295
913.70         73.7613
914.10        72.94762
914.49        72.09842
914.89        71.67165
915.29        71.79202
915.68        72.30289
916.08        72.98087
916.47        73.48116
916.87        73.67796
917.26          73.673
917.66        73.58629
918.05        73.59347
918.45        73.73549
918.84        73.98025
919.24        74.22157
919.64        74.37359
920.03        74.41785
920.42         74.3638
920.82        74.29613
921.21         74.3547
921.61        74.52249
922.00        74.76068
922.40        74.91248
922.79         74.7879
923.19        74.34186
923.58        73.68778
923.98        72.95705
924.37         72.2504
924.77        71.65363
925.16        71.14267
925.55        70.81242
925.95        70.78196
926.34        71.08875
926.74         71.6507
927.13        72.41836
927.52         73.2098
927.92         73.9195
928.31         74.5545
928.70         75.0331
929.10        75.27241
929.49        75.28686
929.89        75.09886
930.28        74.77921
930.67        74.41314
931.07        74.04298
931.46        73.64779
931.85        73.36058
932.24        73.38284
932.64        73.72285
933.03        74.37232
933.42        74.96577
933.82        74.94503
934.21        74.23424
934.60        72.99213
934.99        71.77322
935.39         71.4089
935.78        72.09476
936.17        73.60823
936.56        75.31221
936.96        76.01669
937.35        75.42603
937.74        73.90432
938.13        72.15168
938.53        71.08274
938.92        70.86721
939.31        71.27569
939.70        71.98186
940.09        72.40533
940.49        72.35793
940.88        72.04723
941.27        71.72874
941.66        71.78022
942.05        72.28776
942.44        73.10577
942.84        73.95799
943.23        74.46557
943.62        74.44621
944.01        74.04205
944.40        73.50423
944.79        73.22599
945.18        73.31516
945.57        73.63977
945.97        74.03728
946.36        74.34967
946.75        74.48157
947.14        74.50462
947.53        74.43765
947.92         74.3032
948.31        74.12201
948.70        73.88004
949.09        73.63223
949.48        73.45652
949.87        73.39193
950.26        73.48077
950.65        73.66348
951.04        73.82837
951.43        73.93327
951.82        73.92868
952.21        73.99206
952.60        74.42488
952.99        75.21436
953.38        76.24154
953.77        77.03081
954.16        76.75502
954.55         75.3147
954.94        73.12354
955.33        70.81729
955.72        69.35462
956.11        68.99031
956.50        69.38339
956.89        70.37775
957.28        71.71022
957.66        73.21738
958.05        74.86745
958.44        76.16022
958.83        76.13316
959.22        74.68127
959.61         72.2011
960.00        69.58908
960.39         68.1437
960.78        68.13947
961.16        69.22695
961.55         70.9535
961.94        72.62411
962.33        73.90429
962.72        74.98766
963.11         75.6608
963.49        75.57294
963.88        74.68725
964.27        73.14851
964.66        71.48628
965.04        70.46289
965.43        70.21227
965.82        70.55739
966.21        71.22453
966.60        71.64426
966.98        71.61822
967.37        71.30678
967.76        70.82477
968.15        70.33826
968.53        69.94009
968.92        69.53419
969.31        69.20578
969.69        69.13098
970.08         69.2752
970.47        69.59344
970.86        69.91315
971.24        69.92056
971.63         69.4839
972.02        68.77013
972.40        67.88965
972.79        67.04015
973.17        66.35515
973.56        65.82079
973.95        65.55826
974.33        65.75542
974.72        66.37206
975.11         67.3155
975.49        68.52572
975.88        69.79359
976.26        70.99596
976.65          72.049
977.04        72.62119
977.42        72.20345
977.81        70.80626
978.19        68.63673
978.58        66.66659
978.96        66.11395
979.35        67.20004
979.74        69.66628
980.12        72.87832
980.51        74.90274
980.89        75.25121
981.28        74.28728
981.66        72.71559
982.05        71.81544
982.43        71.92673
982.82        72.59805
983.20        73.72386
983.59        74.96471
983.97        76.21705
984.35        77.54931
984.74         78.5009
985.12        78.44244
985.51        77.28728
985.89        75.20547
986.28        72.98982
986.66        71.77203
987.04        71.96067
987.43        73.24052
987.81         75.0142
988.20        76.02644
988.58         75.9446
988.96        74.97389
989.35        73.77517
989.73        73.38895
990.12        73.99651
990.50        75.30586
990.88        76.45872
991.27         76.1127
991.65        74.12431
992.03        71.05207
992.42        67.96455
992.80        66.21177
993.18         66.2412
993.56        67.57388
993.95        69.54603
994.33        71.30465
994.71        72.24422
995.10        72.60616
995.48        72.37306
995.86        71.51548
996.24        70.21319
996.63        68.55544
997.01        66.86269
997.39        65.61433
997.77        64.94022
998.15        64.74397
998.54        65.11725
998.92        66.15304
999.30        67.76392
999.68        69.89717
1000.06        71.96957
1000.45        72.95668
1000.83         72.7035
1001.21        71.29433
1001.59        69.39247
1001.97        68.26933
1002.35        68.30834
1002.73        69.16974
1003.12        70.33807
1003.50        70.85008
1003.88        70.51026
1004.26        69.78246
1004.64        68.92426
1005.02        68.24179
1005.40        67.88622
1005.78        67.69053
1006.16        67.91586
1006.54        69.05432
1006.92        71.04186
1007.30        73.59166
1007.69        75.93053
1008.07        77.04128
1008.45        76.58681
1008.83        74.98009
1009.21        72.64355
1009.59        70.32418
1009.97         68.4361
1010.35        66.83736
1010.73        66.03117
1011.11        66.83902
1011.49        69.40708
1011.86        73.80096
1012.24        78.76765
1012.62        82.27132
1013.00        83.47734
1013.38        82.55917
1013.76        80.52567
1014.14        79.55319
1014.52        80.32469
1014.90        82.15492
1015.28        84.07444
1015.66        84.32838
1016.04        82.64641
1016.41        80.12112
1016.79        77.47646
1017.17        74.96898
1017.55        72.43669
1017.93        69.24832
1018.31        65.87708
1018.69        64.56544
1019.06        66.11616
1019.44        69.38818
1019.82        72.12976
1020.20        72.35412
1020.58        70.07084
1020.95        65.60226
1021.33        59.93406
1021.71        56.24981
1022.09        56.58172
1022.46        60.02514
1022.84         65.1891
1023.22        70.22951
1023.60        74.33038
1023.97        78.02516
1024.35        80.18909
1024.73        78.92049
