SpectraSmart Spectrum 2.9.0.0
--------- Device Information -----------
Spectrum Name :  反射率_0
Saving Time :  2024/05/01 16:55:37
Spectro-Module Model Name : SE2030-DUVN
Spectro-Module Serial Number : OS361AC55029948
Wavelength Start : 200
Wavelength End : 1025
Wavelength Unit : Wavelength(nm)
Spectrum Unit : Reflectance(%)
-----------Spectrum Setting ------------
Integration Time : 20ms
Average : 10
Boxcar : 0
Background removal :  enabled
linearity correction :  enabled
SC :  disabled
Intensity correction :  disabled
DWT denoise :  enabled
savitzky-golay :  disabled
FFT :  disabled
Running average :  disabled
Kalman :  disabled
High pass :  disabled
---------------BEGIN--------------------
Wavelength(nm)             Reflectance(%)
200.29               0
200.75        147.9405
201.21        762.2961
201.67       -354.4669
202.13       -129.5957
202.58       -49.53172
203.04       -0.555234
203.50        30.26387
203.96        45.04239
204.42        47.85581
204.88           35.21
205.34       -398.4841
205.80        129.5355
206.26        103.1624
206.72        95.47315
207.18        98.36427
207.64        74.84953
208.10        80.06715
208.55        81.40002
209.01        82.33018
209.47        84.18217
209.93         86.5947
210.39        88.41082
210.85        90.87168
211.31        97.33404
211.77        121.2327
212.23       -76.19741
212.69        49.04403
213.14        73.40222
213.60        129.2184
214.06        -435.168
214.52       -41.74807
214.98       -15.88637
215.44       -10.70256
215.90       -15.85058
216.36       -126.0251
216.81        20.13418
217.27       -37.87827
217.73        239.7293
218.19        80.15372
218.65        67.11961
219.11        69.66326
219.57        89.80539
220.02        160.6562
220.48        76.84472
220.94        39.39683
221.40        32.16927
221.86        31.24668
222.32        33.28623
222.77         38.0186
223.23        46.55454
223.69        58.38871
224.15        65.13067
224.61        62.70442
225.06        56.17406
225.52        52.04623
225.98        53.17164
226.44        59.33549
226.90        70.53757
227.36        84.36804
227.81        89.48891
228.27        82.34784
228.73         70.8166
229.19        61.62671
229.65        58.11191
230.10        59.43037
230.56        64.39249
231.02         71.5637
231.48        76.24536
231.93        75.88465
232.39         73.0444
232.85         69.6167
233.31        67.29034
233.77        66.28284
234.22        65.85783
234.68        66.00897
235.14        66.90279
235.60        68.65385
236.05        71.85288
236.51        76.53608
236.97        81.48309
237.43        84.73843
237.88         85.3112
238.34        83.71063
238.80        82.58578
239.26        82.75529
239.71        84.56225
240.17        86.03732
240.63        81.26041
241.08        68.07733
241.54        52.03971
242.00        41.29748
242.46        40.32328
242.91         49.7944
243.37        72.31892
243.83        111.6802
244.28        141.3432
244.74        131.8143
245.20        106.4974
245.66        84.45084
246.11        69.41309
246.57        57.29006
247.03         42.5426
247.48        21.12534
247.94       -3.434971
248.40         -19.613
248.85       -23.78517
249.31        -13.7911
249.77        4.471522
250.22        22.92912
250.68        38.54356
251.14        49.18259
251.59        54.39187
252.05        55.54338
252.51        52.31311
252.96        42.33387
253.42        36.60882
253.88        57.12418
254.33        77.37516
254.79        84.11312
255.25        83.42021
255.70        79.84654
256.16        76.64075
256.62        73.75735
257.07        71.25838
257.53        69.83155
257.99        68.81163
258.44        68.28924
258.90        68.97604
259.35        70.22187
259.81        71.99689
260.27        73.42513
260.72        73.40459
261.18        72.29137
261.63        70.34167
262.09        68.45427
262.55        67.08537
263.00        66.14679
263.46        65.57457
263.91        64.99098
264.37        64.34405
264.83        63.53698
265.28        62.66706
265.74        61.87745
266.19        61.02106
266.65         60.2328
267.11        59.42406
267.56        58.75621
268.02         58.6071
268.47         58.9407
268.93        59.59661
269.38        60.20008
269.84        60.10208
270.30         59.1887
270.75         57.6582
271.21        55.90435
271.66        54.38725
272.12        53.31655
272.57        52.48734
273.03        51.84972
273.48         51.2372
273.94        50.63164
274.39        50.05936
274.85        49.50645
275.31        48.82896
275.76        48.00229
276.22        47.12688
276.67          46.241
277.13        45.56979
277.58        45.05023
278.04        44.66068
278.49        44.26241
278.95        43.80214
279.40         43.1944
279.86        42.53939
280.31        41.79043
280.77        41.01786
281.22        40.18156
281.68         39.3592
282.13        38.52681
282.59        37.77314
283.04        37.06995
283.50        36.46077
283.95        35.92286
284.41        35.49791
284.86        35.16199
285.32        34.91892
285.77        34.73746
286.22        34.62803
286.68         34.5738
287.13          34.542
287.59        34.47273
288.04        34.22949
288.50        33.83817
288.95        33.30655
289.41         32.8026
289.86        32.46809
290.32        32.35602
290.77          32.394
291.22         32.4737
291.68        32.41391
292.13        32.17822
292.59        31.87009
293.04        31.57707
293.50        31.49026
293.95        31.63469
294.40        31.94925
294.86        32.37947
295.31        32.85313
295.77        33.31942
296.22        33.77899
296.68        34.18447
297.13          34.441
297.58        34.56149
298.04        34.60163
298.49         34.6206
298.95        34.76254
299.40        35.04208
299.85        35.40486
300.31        35.85926
300.76        36.40426
301.21        37.01406
301.67        37.69146
302.12        38.26415
302.58        38.49631
303.03        38.34495
303.48        37.92362
303.94        37.50235
304.39        37.40096
304.84        37.70326
305.30        38.29066
305.75        38.95766
306.20        39.40442
306.66         39.5551
307.11        39.48188
307.57        39.30971
308.02        39.16156
308.47        39.09462
308.93        39.06554
309.38        39.01325
309.83        38.90736
310.29        38.74856
310.74        38.56085
311.19         38.3761
311.65        38.21814
312.10        38.09126
312.55        37.99086
313.00        37.92431
313.46        37.90428
313.91        37.91673
314.36        37.94552
314.82        37.95745
315.27        37.91465
315.72        37.79599
316.18        37.61725
316.63        37.36937
317.08        37.05309
317.53        36.67785
317.99        36.25315
318.44        35.81498
318.89        35.43601
319.35        35.14244
319.80        34.92642
320.25         34.7578
320.70         34.5754
321.16        34.35651
321.61        34.12597
322.06        33.90536
322.51        33.73729
322.97        33.62046
323.42        33.54039
323.87        33.46169
324.32        33.34241
324.78        33.16318
325.23         32.9521
325.68        32.70726
326.13        32.43302
326.59          32.131
327.04        31.81636
327.49        31.51223
327.94        31.26968
328.39        31.09872
328.85        30.97695
329.30        30.88488
329.75        30.74693
330.20        30.54303
330.66        30.28733
331.11        30.01467
331.56        29.75072
332.01         29.5135
332.46         29.2953
332.92        29.10273
333.37        28.98083
333.82        28.92417
334.27        28.93286
334.72        28.97512
335.17        28.99269
335.63        28.95524
336.08        28.88261
336.53        28.80269
336.98        28.78094
337.43        28.82936
337.88        28.93137
338.34        29.01434
338.79         28.9778
339.24        28.79597
339.69        28.50543
340.14        28.21179
340.59        28.08161
341.05        28.13906
341.50        28.33125
341.95        28.54669
342.40        28.60488
342.85        28.46364
343.30        28.19819
343.75        27.87905
344.20         27.6124
344.66        27.44116
345.11        27.31989
345.56        27.27976
346.01        27.36681
346.46        27.56789
346.91        27.86637
347.36        28.15112
347.81        28.25017
348.26        28.13736
348.72         27.8709
349.17        27.55021
349.62        27.38185
350.07        27.41008
350.52        27.56019
350.97        27.74258
351.42        27.80859
351.87        27.71679
352.32        27.53619
352.77        27.28248
353.22        26.97552
353.67        26.64505
354.13        26.29182
354.58        25.98948
355.03        25.88901
355.48        26.00591
355.93        26.30473
356.38        26.63601
356.83        26.74094
357.28         26.5645
357.73        26.19087
358.18        25.78464
358.63        25.59674
359.08        25.67386
359.53        25.91943
359.98        26.21885
360.43         26.3801
360.88        26.34006
361.33        26.17494
361.78        25.91762
362.23        25.60822
362.68        25.27796
363.13        24.91052
363.58        24.57576
364.03        24.39809
364.48        24.39013
364.93        24.50851
365.38        24.64434
365.83        24.61873
366.28        24.39208
366.73        24.02919
367.18        23.59467
367.63        23.20255
368.08        22.90738
368.53        22.67877
368.98        22.53969
369.43        22.52366
369.88         22.6146
370.33        22.79567
370.78         22.9839
371.23        23.02765
371.68        22.88272
372.13        22.59126
372.58        22.21852
373.03        21.86792
373.48        21.57796
373.93         21.3279
374.38        21.12688
374.83        20.98955
375.28        20.91249
375.72         20.8904
376.17        20.89804
376.62        20.88427
377.07        20.83128
377.52        20.74706
377.97        20.62726
378.42        20.47156
378.87        20.29075
379.32        20.09094
379.77        19.90408
380.22        19.77889
380.67        19.72308
381.11        19.72416
381.56        19.75233
382.01        19.76036
382.46        19.73404
382.91        19.68939
383.36         19.6272
383.81        19.55237
384.26        19.46625
384.71        19.35487
385.15        19.23987
385.60        19.17631
386.05        19.16342
386.50        19.19666
386.95        19.21036
387.40        19.10185
387.85        18.86794
388.29        18.53701
388.74         18.2438
389.19        18.12084
389.64        18.18356
390.09        18.37006
390.54        18.58235
390.98        18.66073
391.43        18.57287
391.88        18.38384
392.33        18.14662
392.78        17.94178
393.23        17.79717
393.67        17.65633
394.12         17.5562
394.57        17.56961
395.02        17.66699
395.47        17.72114
395.91        17.71577
396.36        17.71648
396.81        17.72491
397.26        17.68954
397.71        17.61744
398.15        17.56674
398.60        17.56412
399.05        17.51326
399.50        17.44565
399.95        17.53606
400.39        17.72856
400.84         17.7069
401.29        17.46371
401.74         17.2711
402.18         17.1492
402.63        16.92971
403.08        16.68432
403.53        16.59881
403.97        16.68738
404.42        16.89618
404.87        17.12572
405.32        17.21734
405.76        17.13009
406.21        16.91854
406.66        16.66953
407.11        16.52277
407.55        16.52065
408.00        16.62423
408.45        16.76483
408.90        16.79962
409.34        16.70348
409.79        16.56155
410.24        16.43453
410.68         16.3692
411.13        16.38427
411.58         16.4704
412.03        16.57124
412.47        16.58329
412.92        16.48036
413.37        16.30529
413.81        16.11763
414.26        16.01579
414.71        16.01743
415.15        16.10111
415.60        16.21472
416.05        16.28954
416.49        16.30031
416.94        16.26215
417.39        16.21203
417.83        16.20846
418.28        16.26192
418.73        16.34839
419.17        16.41887
419.62        16.39182
420.07        16.26265
420.51        16.06769
420.96        15.87967
421.41        15.78307
421.85         15.7922
422.30         15.8798
422.74        16.01203
423.19        16.15549
423.64        16.28649
424.08        16.42026
424.53        16.50927
424.98        16.49852
425.42        16.38494
425.87        16.19138
426.31        15.97557
426.76        15.84125
427.21        15.80793
427.65        15.84512
428.10        15.94006
428.54        16.06051
428.99        16.18958
429.44        16.36089
429.88         16.4929
430.33        16.47178
430.77        16.29437
431.22        16.01408
431.66        15.75058
432.11        15.71798
432.56        15.89478
433.00        16.17661
433.45        16.38027
433.89        16.14705
434.34        15.50146
434.78        15.48634
435.23        16.15297
435.67        16.37235
436.12        16.14105
436.57        16.06131
437.01        16.16257
437.46        16.17893
437.90         16.1066
438.35        16.04858
438.79        16.00135
439.24         15.9172
439.68        15.82763
440.13        15.85137
440.57        15.96038
441.02        16.02941
441.46        16.04379
441.91        16.00373
442.35        15.93205
442.80        16.05597
443.24        16.28838
443.69        16.20463
444.13        15.86359
444.58        15.73082
445.02        15.81955
445.47        15.89292
445.91        15.92495
446.36        15.98611
446.80        16.06408
447.24        16.13675
447.69        16.20065
448.13        16.25164
448.58        16.28656
449.02        16.29983
449.47         16.2919
449.91        16.25253
450.36        16.19035
450.80        16.11238
451.25        16.02902
451.69        15.94381
452.13        15.86526
452.58        15.79687
453.02        15.75114
453.47        15.75695
453.91        15.81161
454.36        15.90733
454.80        16.00596
455.24        16.04496
455.69        16.01387
456.13        15.91926
456.58        15.81219
457.02        15.75041
457.46        15.75153
457.91        15.79806
458.35        15.84567
458.79        15.80011
459.24        15.65945
459.68        15.50097
460.13        15.40314
460.57        15.16957
461.01        15.25683
461.46        15.30252
461.90        15.41147
462.34        15.47205
462.79        15.55112
463.23        15.58977
463.68        15.61322
464.12        15.62518
464.56        15.63021
465.01        15.64575
465.45        15.64406
465.89        15.61044
466.34        15.55059
466.78        15.46673
467.22         15.3865
467.67         15.3836
468.11        15.40429
468.55        15.48885
468.99        15.59056
469.44        15.66772
469.88        15.71006
470.32        15.72232
470.77        15.71546
471.21        15.70539
471.65        15.69796
472.10        15.69113
472.54        15.67503
472.98        15.64455
473.42        15.60283
473.87        15.56357
474.31        15.53094
474.75        15.52628
475.20        15.55607
475.64        15.60133
476.08        15.65015
476.52        15.72316
476.97        15.82234
477.41        15.86875
477.85         15.8248
478.29        16.07962
478.74        15.94137
479.18        15.94115
479.62        15.90365
480.06        15.97698
480.50        16.17097
480.95        16.14352
481.39        16.40509
481.83        16.43598
482.27        16.40314
482.72        16.33939
483.16        16.26875
483.60        16.26839
484.04        16.33911
484.48        16.34937
484.93        16.43199
485.37          16.805
485.81        17.22266
486.25        17.71316
486.69         16.8689
487.14        16.35336
487.58        16.63639
488.02        17.29862
488.46        17.13519
488.90        17.09922
489.34        17.21664
489.79         17.0908
490.23        17.40522
490.67        17.67235
491.11        17.98188
491.55        18.01754
491.99        17.82242
492.43        17.78549
492.88        17.92876
493.32        18.00139
493.76        18.01141
494.20        18.11281
494.64        18.31505
495.08        18.55611
495.52        18.78154
495.96        18.97314
496.41        19.09492
496.85         19.0026
497.29        18.80084
497.73        18.90224
498.17        19.27664
498.61        19.45391
499.05        19.41828
499.49        19.51358
499.93         19.7372
500.37        19.88134
500.82        19.94285
501.26        20.01567
501.70        20.10516
502.14        20.18512
502.58        20.24833
503.02        20.28629
503.46        20.30242
503.90        20.30904
504.34        20.33099
504.78        20.40263
505.22        20.52945
505.66        20.69813
506.10        20.87902
506.54        21.02195
506.98         21.1108
507.42        21.15954
507.86        21.18141
508.30        21.19881
508.74          21.223
509.18         21.2486
509.62        21.28358
510.06        21.34196
510.50        21.42354
510.94        21.52297
511.38        21.62547
511.82        21.70506
512.26        21.75287
512.70        21.77465
513.14        21.77247
513.58        21.75211
514.02        21.71949
514.46        21.67492
514.90        21.63087
515.34        21.60734
515.78        21.60905
516.22        21.63271
516.66        21.66562
517.10        21.68526
517.54        21.68547
517.98        21.67178
518.42        21.65269
518.86        21.64257
519.30        21.64559
519.74         21.6563
520.18        21.66742
520.62        21.66903
521.06        21.65768
521.50        21.63478
521.93        21.60841
522.37        21.58613
522.81        21.57237
523.25        21.56648
523.69          21.556
524.13        21.52065
524.57        21.46056
525.01        21.38522
525.45        21.31775
525.89        21.29459
526.32        21.31967
526.76        21.37337
527.20        21.43292
527.64        21.46158
528.08        21.44739
528.52        21.40586
528.96        21.33461
529.40        21.23013
529.83        21.09863
530.27        20.94895
530.71        20.81602
531.15         20.7608
531.59        20.79062
532.03        20.88347
532.46         20.9878
532.90        21.02232
533.34        20.96933
533.78        20.84265
534.22        20.67873
534.66        20.56923
535.09        20.51228
535.53        20.41698
535.97        20.30385
536.41        20.27938
536.85        20.34683
537.28        20.45642
537.72        20.56599
538.16        20.62694
538.60        20.62464
539.04        20.57173
539.47        20.50881
539.91        20.51333
540.35        20.59526
540.79        20.73964
541.22        20.90637
541.66        20.99968
542.10        21.05741
542.54        21.05957
542.97        21.05505
543.41        21.10638
543.85        21.22382
544.29        21.38871
544.72        21.56936
545.16        21.72853
545.60        21.85198
546.04         21.9491
546.47        22.04202
546.91        22.16933
547.35        22.33767
547.79        22.52733
548.22        22.69428
548.66         22.8228
549.10        22.91022
549.53         22.8645
549.97        22.93464
550.41        23.04755
550.84         23.2752
551.28        23.58913
551.72        23.92924
552.15        24.17329
552.59        24.30546
553.03        24.39291
553.46        24.45418
553.90        24.53309
554.34        24.64658
554.77        24.74121
555.21        24.79938
555.65        25.06531
556.08        25.06149
556.52        25.18308
556.96        25.28127
557.39        25.37076
557.83         25.4574
558.27        25.50312
558.70        25.51831
559.14        25.64548
559.57        25.66047
560.01        25.78652
560.45        25.90642
560.88        25.92288
561.32         25.8864
561.75        25.82556
562.19        25.81568
562.63        26.08209
563.06        26.51187
563.50        26.54454
563.93         26.2347
564.37        26.18695
564.80        26.41007
565.24         26.5736
565.68        26.64763
566.11        26.74228
566.55        26.86205
566.98        26.96986
567.42        27.08515
567.85        27.21571
568.29        27.37609
568.72        27.54259
569.16        27.73441
569.60        27.91251
570.03         28.0516
570.47        28.17478
570.90        28.51661
571.34        28.33388
571.77        28.60502
572.21        28.70805
572.64        28.95576
573.08        28.86078
573.51        29.00522
573.95         29.5164
574.38        29.33825
574.82        29.43994
575.25        29.72254
575.69        29.74843
576.12        29.60884
576.56        29.72871
576.99        29.90156
577.42        29.83373
577.86        29.95961
578.29        29.91769
578.73        30.16614
579.16        29.61444
579.60        29.32475
580.03        29.08719
580.47        29.36386
580.90        28.98305
581.33        29.45148
581.77         29.6777
582.20        29.52825
582.64        29.16942
583.07        29.10065
583.51        28.79993
583.94         28.5955
584.37         28.5981
584.81        28.77082
585.24        28.71974
585.68        28.48279
586.11        28.14939
586.54        28.40567
586.98        27.99577
587.41        27.79534
587.85        28.21461
588.28        27.96258
588.71        27.48409
589.15        27.90599
589.58        27.54169
590.01        27.52106
590.45        27.53183
590.88        27.73794
591.31        27.77858
591.75        27.65985
592.18        27.50104
592.61        27.31293
593.05        27.63056
593.48        27.82592
593.91        27.58607
594.35        27.84202
594.78         27.8741
595.21        27.99872
595.65        28.07705
596.08        28.12312
596.51        28.28069
596.94        28.48109
597.38        28.66342
597.81        28.81941
598.24        29.00124
598.68        29.20531
599.11        29.43445
599.54        30.30996
599.97        30.16735
600.41        30.42272
600.84        31.04881
601.27        31.17374
601.70        31.72955
602.14        32.09138
602.57         32.4367
603.00        32.69464
603.43        32.81149
603.87        33.06321
604.30         33.5822
604.73         33.7535
605.16        34.17478
605.60        34.60575
606.03        35.15406
606.46        35.66402
606.89        35.91711
607.32        36.06673
607.76        36.28022
608.19        36.59333
608.62        37.20301
609.05        37.61683
609.48        37.85259
609.92        37.87037
610.35        38.26423
610.78        39.16856
611.21        39.53153
611.64         39.4329
612.07        39.81361
612.50        40.20016
612.94        40.46386
613.37        40.49307
613.80        40.59719
614.23        40.76265
614.66        41.21977
615.09        41.31696
615.52        41.59642
615.96        41.82207
616.39         42.3442
616.82         42.4292
617.25        42.77928
617.68        43.13956
618.11        43.34069
618.54        43.38385
618.97        43.43121
619.40        43.56316
619.84        43.71328
620.27        43.89856
620.70        44.32767
621.13         44.8732
621.56        44.75128
621.99        44.44907
622.42        44.42362
622.85        44.60477
623.28         44.9108
623.71         44.7235
624.14        44.84637
624.57        44.92218
625.00        45.05743
625.43        45.18216
625.86        44.83446
626.29        44.69693
626.72        44.50438
627.15        44.34389
627.58         44.1871
628.01        44.00533
628.44        43.91029
628.87        43.85078
629.30        43.66716
629.73        43.38134
630.16        43.14287
630.59        42.95063
631.02        42.72048
631.45        42.43056
631.88        42.08428
632.31        41.68136
632.74        41.22632
633.17        40.76442
633.60        40.36502
634.03        40.04206
634.46        39.77752
634.89        39.52297
635.32        39.19785
635.75        38.78371
636.18        38.30763
636.61        37.81105
637.04        37.35823
637.47        36.96983
637.89        36.62028
638.32        36.27422
638.75        35.93471
639.18        35.60447
639.61        35.14912
640.04         34.8573
640.47        34.54634
640.90         34.3015
641.33        34.09986
641.76        33.92057
642.18        33.77819
642.61        33.66716
643.04        33.51454
643.47        33.30098
643.90        33.46505
644.33        33.28801
644.76         33.2955
645.18        33.29194
645.61        33.43698
646.04        33.67513
646.47        33.73915
646.90        33.67023
647.33        33.76397
647.75        34.04007
648.18        34.31935
648.61        34.58303
649.04        34.88219
649.47        35.19237
649.89        35.51807
650.32         35.8485
650.75        36.06877
651.18        36.24175
651.61        36.72675
652.03           37.48
652.46        37.93136
652.89        38.09832
653.32        38.51156
653.74        39.26315
654.17         39.6721
654.60        40.20575
655.03        40.84579
655.46        40.53534
655.88        41.70655
656.31        47.14254
656.74        46.97845
657.16         43.1543
657.59         42.5448
658.02        43.41988
658.45          43.605
658.87        44.20933
659.30        44.24273
659.73        44.74052
660.15        45.62074
660.58        45.47073
661.01        45.72099
661.44        45.94423
661.86        46.23795
662.29         46.5995
662.72        46.89989
663.14        47.17633
663.57        47.57955
664.00        48.04645
664.42         48.3196
664.85        48.38789
665.27        48.35973
665.70        48.32631
666.13        48.39285
666.55        48.60425
666.98        48.92901
667.41        49.30971
667.83        49.64654
668.26         49.8891
668.69        50.05921
669.11        50.20174
669.54         50.3921
669.96        50.63551
670.39        50.90884
670.82        51.15913
671.24        51.22053
671.67        51.14226
672.09        51.19329
672.52         51.3964
672.94        51.52573
673.37        51.58694
673.80        51.72069
674.22        51.91253
674.65        52.03457
675.07        52.08684
675.50        52.09676
675.92         52.1059
676.35        52.17126
676.77        52.31118
677.20        52.49996
677.62        52.71166
678.05        52.89237
678.47        53.02827
678.90        53.14525
679.32        53.25293
679.75        53.38459
680.17        53.53852
680.60        53.69603
681.02        53.86613
681.45        54.02929
681.87        54.18354
682.30        54.40217
682.72        54.64242
683.15        54.61518
683.57         54.4079
684.00        54.47409
684.42        54.79006
684.85        54.95301
685.27        54.93773
685.70        54.99104
686.12         55.1107
686.54         55.1806
686.97         55.1918
687.39         55.2497
687.82        55.33146
688.24        55.26734
688.66        55.12968
689.09        55.27124
689.51        55.66649
689.94        55.90546
690.36        55.96499
690.78        56.09462
691.21        56.32542
691.63        56.50317
692.06        56.68164
692.48        57.12783
692.90        57.71726
693.33        58.00278
693.75        57.93008
694.17        57.66477
694.60        57.37614
695.02        57.24007
695.44         57.2744
695.87        57.52285
696.29        57.85044
696.71        57.62392
697.14        57.05966
697.56        57.32428
697.98        58.28805
698.41        58.75053
698.83        58.64476
699.25        58.64574
699.68        58.79004
700.10        58.88254
700.52        58.93071
700.94        58.94479
701.37        58.95301
701.79        59.11349
702.21        59.36882
702.64        59.53785
703.06        59.59671
703.48        59.57308
703.90        59.45336
704.33        59.59521
704.75        59.30216
705.17        59.32546
705.59        59.46613
706.01        59.69191
706.44        59.96964
706.86        60.25521
707.28        60.50554
707.70         60.7867
708.12        61.05143
708.55        61.05928
708.97        60.87691
709.39          60.897
709.81        61.10226
710.23        61.13539
710.66        60.98856
711.08        60.90184
711.50        60.90053
711.92        60.92971
712.34        60.99741
712.76        61.11902
713.19        61.26558
713.61        61.42814
714.03        61.57334
714.45        61.69707
714.87        61.80291
715.29        61.90387
715.71        62.00268
716.13        62.09371
716.56        62.14981
716.98        62.20838
717.40        62.24606
717.82        62.26549
718.24        62.28629
718.66        62.33869
719.08        62.42712
719.50        62.54193
719.92        62.65568
720.34        62.72363
720.76        62.73542
721.19        62.70483
721.61        62.66063
722.03        62.64141
722.45        62.66549
722.87        62.73106
723.29        62.82316
723.71        62.91408
724.13        62.98728
724.55        63.04872
724.97        63.15768
725.39        63.26567
725.81        63.34536
726.23        63.66738
726.65        64.21086
727.07         63.5411
727.49        63.81292
727.91         63.4642
728.33        63.23598
728.75        63.13819
729.17        63.22008
729.59        63.47387
730.01        63.78687
730.43         63.9924
730.85        64.03729
731.27        63.98221
731.69        63.88634
732.10        63.84098
732.52        63.87985
732.94         63.9643
733.36         64.0865
733.78        64.23258
734.20         64.3829
734.62        64.56306
735.04        64.74869
735.46        64.82952
735.88        64.84514
736.30        64.96461
736.72        65.13321
737.13        65.23015
737.55        65.18641
737.97         64.8364
738.39        64.37453
738.81        64.48599
739.23        65.11608
739.65        65.46794
740.06        65.42019
740.48        65.50796
740.90        65.68355
741.32        65.63386
741.74        65.39397
742.16        65.20066
742.57        65.09769
742.99         65.0742
743.41          65.128
743.83        65.10271
744.25         65.0527
744.67        65.31046
745.08        65.79792
745.50        66.00655
745.92        65.89231
746.34        65.68269
746.75        65.45798
747.17        65.28716
747.59        65.20358
748.01         65.2393
748.42        65.34768
748.84        65.38778
749.26        65.39645
749.68         65.4175
750.09        65.49473
750.51        65.90007
750.93         66.4604
751.35        66.48029
751.76        66.05353
752.18        65.93668
752.60         66.1564
753.01        66.37222
753.43        66.52763
753.85        66.48695
754.27         66.1779
754.68        66.76717
755.10        66.32642
755.52        66.45106
755.93        66.59177
756.35         66.9551
756.77        67.40187
757.18        67.55518
757.60        67.41431
758.02        67.21805
758.43        66.96466
758.85        66.82268
759.26        66.30562
759.68        66.37247
760.10        66.84713
760.51        67.49544
760.93        68.02851
761.34        68.12817
761.76        67.82142
762.18        67.22169
762.59         66.6394
763.01         66.7501
763.42        67.48357
763.84        67.76149
764.26        67.52196
764.67        67.29865
765.09        67.24391
765.50         67.3952
765.92        67.69422
766.33        67.70087
766.75         67.3572
767.16        67.29898
767.58        67.39826
768.00        67.55827
768.41         67.7914
768.83        68.50244
769.24        69.42501
769.66        69.70265
770.07         69.3406
770.49         68.8494
770.90        68.46116
771.32        68.50986
771.73        68.89361
772.15        68.93196
772.56        68.60082
772.97        68.33984
773.39        68.22734
773.80        68.27286
774.22        68.42369
774.63        68.56229
775.05        68.60679
775.46         68.6664
775.88        68.70155
776.29        68.64236
776.70        68.54649
777.12        68.59457
777.53        68.82265
777.95        69.13938
778.36        69.46164
778.77         69.6172
779.19        69.56998
779.60        69.44063
780.02        69.27428
780.43        69.05682
780.84        68.91448
781.26         68.9585
781.67        69.15617
782.09        69.58043
782.50        69.97905
782.91        69.53357
783.33        68.52421
783.74        68.26475
784.15        68.87867
784.57        69.61112
784.98        70.29755
785.39        70.91892
785.81        71.36924
786.22        71.47755
786.63        71.66405
787.04        71.50773
787.46        71.24509
787.87        71.05522
788.28        71.03133
788.70         71.0575
789.11        71.11296
789.52        71.41827
789.93        71.80412
790.35        71.71861
790.76        71.21444
791.17        70.80558
791.58        70.61819
792.00        70.46053
792.41        70.38552
792.82        70.57784
793.23        70.92297
793.65        71.11064
794.06        71.09334
794.47         70.9295
794.88        70.74801
795.29        70.74883
795.71         70.9026
796.12        71.24402
796.53        71.61553
796.94        71.70431
797.35        71.44965
797.76        71.02527
798.18        70.61316
798.59        70.44125
799.00        70.59707
799.41        70.72756
799.82        71.27218
800.23        71.53956
800.64        71.62402
801.06         71.5588
801.47        71.44431
801.88        71.34569
802.29        71.29253
802.70        71.24506
803.11        71.21919
803.52        71.25439
803.93        71.37172
804.34        71.58085
804.75        71.81131
805.17        72.04014
805.58        72.30255
805.99        72.19731
806.40        71.86445
806.81        72.43575
807.22        73.52847
807.63        73.05995
808.04        71.31736
808.45        70.61649
808.86        71.14268
809.27        71.61611
809.68         71.8329
810.09        72.03603
810.50        72.14745
810.91        72.12048
811.32        71.98713
811.73        71.80029
812.14        71.59992
812.55        71.37963
812.96        71.24363
813.37        71.35928
813.78        71.74442
814.19        72.34438
814.60        72.97993
815.01        73.37263
815.42        73.45438
815.83         73.2859
816.24        72.97899
816.65        72.76302
817.05        72.72877
817.46        72.78846
817.87        72.89149
818.28        72.91618
818.69        72.82941
819.10        72.67663
819.51        72.51363
819.92        72.43132
820.33        72.45479
820.74        72.54266
821.14        72.62719
821.55        72.63963
821.96        72.55369
822.37        72.41864
822.78        72.27782
823.19        72.20297
823.60        72.23212
824.00        72.36191
824.41        72.57143
824.82         72.9366
825.23        73.43106
825.64         74.0006
826.04        74.54693
826.45        74.82717
826.86        74.80811
827.27        74.56052
827.68        74.12461
828.08         73.6016
828.49        73.02634
828.90         72.3979
829.31        71.88003
829.72        71.71467
830.12        71.97522
830.53        72.59353
830.94        73.29572
831.35        73.52277
831.75        73.16134
832.16        72.32605
832.57        71.48254
832.97         71.3437
833.38        72.02948
833.79        73.29515
834.20        74.69838
834.60        75.48093
835.01        75.39101
835.42        74.70813
835.82         73.7311
836.23        72.91468
836.64        72.42998
837.04        72.15083
837.45        72.05769
837.86        72.19117
838.26        72.52355
838.67        73.02499
839.08        73.54414
839.48        73.77749
839.89        73.64337
840.29        73.22558
840.70        72.67764
841.11        72.22519
841.51        71.96864
841.92        71.82863
842.33        71.84194
842.73        72.06825
843.14        72.44524
843.54        73.01466
843.95        73.60923
844.35        74.01297
844.76        74.12553
845.17        73.97797
845.57        73.71926
845.98        73.59385
846.38         73.6802
846.79        73.89564
847.19        74.10011
847.60        73.97009
848.00        73.47749
848.41        72.73481
848.81         71.9977
849.22        71.61958
849.62        71.69919
850.03        72.10539
850.43        72.66334
850.84        72.92051
851.24        72.82004
851.65        72.45964
852.05         72.0784
852.46          72.027
852.86        72.35871
853.27        72.91422
853.67        73.51058
854.07        74.10602
854.48        74.59962
854.88        75.13357
855.29        75.42768
855.69        75.24403
856.10        74.45117
856.50        73.24612
856.90         72.0434
857.31        71.44785
857.71        71.57422
858.12        72.21563
858.52        73.14299
858.92        73.68211
859.33        73.59125
859.73        73.11234
860.13        72.39075
860.54        71.69379
860.94        71.13513
861.34        70.60472
861.75        70.19229
862.15        70.11977
862.55         70.3866
862.96        70.94016
863.36         71.5491
863.76        71.72606
864.17        71.36999
864.57        70.64094
864.97        69.81329
865.38        69.35532
865.78        69.42755
866.18        69.86533
866.58         70.4973
866.99        71.00539
867.39        71.28879
867.79        71.43581
868.19         71.4445
868.60         71.2835
869.00         70.9716
869.40        70.49311
869.80        70.03619
870.21        69.95985
870.61         70.3905
871.01         71.1731
871.41        71.96058
871.81        72.22027
872.22        71.83682
872.62        70.97089
873.02        69.94411
873.42        69.28779
873.82        69.17915
874.22        69.50409
874.63        70.01627
875.03        70.31824
875.43         70.3091
875.83         70.0911
876.23        69.93962
876.63        70.28399
877.03        71.17423
877.44         72.4144
877.84        73.59534
878.24        74.00014
878.64        73.47969
879.04        72.30119
879.44        70.93076
879.84        70.06388
880.24        69.88158
880.64        70.18245
881.04         70.7298
881.44        71.13004
881.84        71.25897
882.24        71.25865
882.65        71.17586
883.05        71.19218
883.45        71.30766
883.85        71.41415
884.25        71.53538
884.65        71.73953
885.05        72.03299
885.45        72.44179
885.85         72.8062
886.25        72.84354
886.65         72.5034
887.05        71.84612
887.45        71.20144
887.85        71.08795
888.25         71.5961
888.65        72.58087
889.04        73.59001
889.44        73.86208
889.84        73.26079
890.24        72.03757
890.64        70.72569
891.04        70.09668
891.44        70.31824
891.84        71.18188
892.24        72.22955
892.64        72.67899
893.04         72.3317
893.44        71.43663
893.83        70.49372
894.23         70.2683
894.63         70.8832
895.03        72.07939
895.43        73.35659
895.83        73.82569
896.23        73.26582
896.63        72.05103
897.02         70.6263
897.42        69.71346
897.82        69.42814
898.22        69.59517
898.62        70.06995
899.01        70.64183
899.41        71.14425
899.81        71.65333
900.21         72.1964
900.61         72.8018
901.00        73.43627
901.40        74.00806
901.80        74.36372
902.20        74.30464
902.59        73.83784
902.99        73.07304
903.39        72.25388
903.79        71.76476
904.18        71.69641
904.58        71.94773
904.98         72.3828
905.38        72.79524
905.77        73.09221
906.17        73.35071
906.57        73.47683
906.96        73.33502
907.36        72.91364
907.76        72.26514
908.15         71.6378
908.55        71.39587
908.95        71.64764
909.34        72.31468
909.74        73.13444
910.14        73.73671
910.53        73.98927
910.93        73.97941
911.33         73.8501
911.72        73.83498
912.12         74.0093
912.52        74.27131
912.91         74.4729
913.31         74.3811
913.70        73.96666
914.10        73.34372
914.49        72.70254
914.89        72.30191
915.29        72.21455
915.68         72.3567
916.08        72.62703
916.47        72.86879
916.87        73.01199
917.26        73.11014
917.66        73.15063
918.05        73.10686
918.45        72.98322
918.84         72.8117
919.24        72.65607
919.64        72.72058
920.03          73.054
920.42        73.55918
920.82        74.11391
921.21        74.56387
921.61        74.81667
922.00        74.90643
922.40        74.81165
922.79        74.58386
923.19        74.25631
923.58        73.87214
923.98        73.42579
924.37        72.83374
924.77        72.14453
925.16        71.37346
925.55        70.76885
925.95        70.71264
926.34        71.28913
926.74        72.32813
927.13        73.51962
927.52        74.26378
927.92        74.39366
928.31        74.08955
928.70        73.57291
929.10        73.26095
929.49        73.30461
929.89        73.54467
930.28        73.90371
930.67        74.21236
931.07        74.38737
931.46         74.4966
931.85        74.51614
932.24        74.40115
932.64        74.16129
933.03        73.84229
933.42        73.47205
933.82        73.12223
934.21         72.8271
934.60        72.57431
934.99        72.45919
935.39        72.57556
935.78        72.95029
936.17        73.56296
936.56        74.19381
936.96        74.46091
937.35         74.2991
937.74        73.74385
938.13        73.08311
938.53         72.6978
938.92        72.62911
939.31        72.84167
939.70        73.10181
940.09        72.99135
940.49        72.44933
940.88        71.64883
941.27        70.94952
941.66        70.89249
942.05        71.57314
942.44        72.81282
942.84        74.21574
943.23        75.13344
943.62        75.27077
944.01        74.83425
944.40        74.08134
944.79        73.44312
945.18        73.07877
945.57        72.84364
945.97        72.74063
946.36        72.87428
946.75        73.19308
947.14        73.71983
947.53        74.24167
947.92        74.35083
948.31        73.95564
948.70        73.16885
949.09        72.30612
949.48        71.84955
949.87        71.93606
950.26        72.48567
950.65        73.25123
951.04        73.79026
951.43        73.95197
951.82        73.79615
952.21        73.64261
952.60        74.00155
952.99         74.9198
953.38        76.20762
953.77        77.30208
954.16        77.23351
954.55        75.84997
954.94        73.60873
955.33        71.21907
955.72        69.74595
956.11        69.46897
956.50        70.01427
956.89        71.14558
957.28        72.47384
957.66        73.81031
958.05        75.16022
958.44        76.12787
958.83        75.94555
959.22        74.54767
959.61        72.24161
960.00        69.81265
960.39        68.39308
960.78        68.22665
961.16        69.05643
961.55        70.43256
961.94         71.6647
962.33        72.45647
962.72        72.97678
963.11        73.23577
963.49        73.27612
963.88        73.09751
964.27        72.68335
964.66        72.11325
965.04        71.54125
965.43        70.99978
965.82        70.45642
966.21        70.00606
966.60        69.78761
966.98        69.84584
967.37        70.16619
967.76        70.49438
968.15        70.37139
968.53        69.72916
968.92        68.68855
969.31        67.67672
969.69        67.37623
970.08        67.88651
970.47        69.00619
970.86        70.28081
971.24        70.89052
971.63         70.5145
972.02        69.45251
972.40        68.07994
972.79        66.99795
973.17        66.42858
973.56        66.22536
973.95        66.27306
974.33        66.40789
974.72        66.51273
975.11        66.60692
975.49        66.89495
975.88          67.669
976.26        68.99889
976.65        70.68892
977.04        72.10191
977.42        72.24298
977.81        70.97192
978.19        68.58569
978.58        66.32998
978.96        65.83671
979.35        67.41825
979.74         70.7428
980.12        74.78157
980.51        76.83106
980.89        76.20229
981.28        73.49445
981.66        70.16414
982.05        68.66159
982.43        69.58241
982.82        72.14572
983.20        75.46687
983.59        77.84383
983.97        78.77773
984.35        78.76135
984.74        77.97063
985.12         76.8016
985.51        75.47234
985.89        73.80724
986.28        72.28899
986.66        71.57094
987.04         71.8858
987.43        73.10655
987.81        74.69031
988.20        75.43483
988.58        75.06033
988.96        73.72493
989.35         72.1619
989.73        71.56062
990.12        72.13808
990.50        73.58875
990.88        74.98962
991.27        74.86291
991.65         73.0217
992.03        70.05631
992.42        67.07314
992.80        65.49022
993.18        65.77349
993.56        67.41834
993.95        69.73988
994.33        71.83595
994.71        73.09609
995.10        73.80548
995.48        73.92412
995.86        73.40009
996.24        72.37117
996.63        70.81757
997.01        69.19508
997.39        68.20914
997.77         67.9955
998.15        68.45879
998.54         69.2112
998.92        69.49426
999.30        69.08045
999.68        68.19321
1000.06         67.2252
1000.45        66.81516
1000.83        67.29173
1001.21        68.39079
1001.59        69.78024
1001.97        70.89825
1002.35        71.52297
1002.73         71.7776
1003.12        71.84928
1003.50        72.00535
1003.88         72.3353
1004.26        72.71149
1004.64        72.96685
1005.02        72.86966
1005.40        72.39716
1005.78        71.67333
1006.16        70.88949
1006.54         70.3623
1006.92        70.19357
1007.30        70.27367
1007.69        70.44549
1008.07        70.67401
1008.45        70.82211
1008.83        70.97539
1009.21        71.05302
1009.59        70.90688
1009.97        70.55184
1010.35        70.02026
1010.73        69.63786
1011.11        69.98404
1011.49        71.24438
1011.86        73.48244
1012.24        76.05544
1012.62        78.18168
1013.00        79.52135
1013.38        80.14975
1013.76         80.5391
1014.14        81.66633
1014.52        83.75518
1014.90        86.42004
1015.28         88.7838
1015.66        89.33519
1016.04        87.85976
1016.41        85.14824
1016.79        82.28976
1017.17        79.99921
1017.55        78.18871
1017.93        76.43424
1018.31        74.52316
1018.69        72.60558
1019.06        71.21234
1019.44        70.68338
1019.82        70.62633
1020.20        70.46062
1020.58        70.07638
1020.95        69.44506
1021.33        68.95295
1021.71        69.35163
1022.09        70.86547
1022.46        73.03235
1022.84        75.06293
1023.22        76.21086
1023.60        76.29237
1023.97        75.68678
1024.35        74.27151
1024.73        71.96085
