SpectraSmart Spectrum 2.9.0.0
--------- Device Information -----------
Spectrum Name :  反射率_0
Saving Time :  2024/05/01 16:43:56
Spectro-Module Model Name : SE2030-DUVN
Spectro-Module Serial Number : OS361AC55029948
Wavelength Start : 200
Wavelength End : 1025
Wavelength Unit : Wavelength(nm)
Spectrum Unit : Reflectance(%)
-----------Spectrum Setting ------------
Integration Time : 20ms
Average : 10
Boxcar : 0
Background removal :  enabled
linearity correction :  enabled
SC :  disabled
Intensity correction :  disabled
DWT denoise :  enabled
savitzky-golay :  disabled
FFT :  disabled
Running average :  disabled
Kalman :  disabled
High pass :  disabled
---------------BEGIN--------------------
Wavelength(nm)             Reflectance(%)
200.29               0
200.75          224.31
201.21        762.5055
201.67       -262.2581
202.13       -81.79691
202.58       -30.02565
203.04       -2.556495
203.50        12.18788
203.96        15.28839
204.42         6.22615
204.88       -34.73945
205.34       -1132.394
205.80        199.5016
206.26        135.8528
206.72        114.5801
207.18        103.6702
207.64        92.28756
208.10        84.88013
208.55        78.20332
209.01        70.90382
209.47        63.71074
209.93        56.00092
210.39        45.54171
210.85        33.20773
211.31        17.89198
211.77       -20.72918
212.23        245.0944
212.69        86.52312
213.14        93.52711
213.60         173.148
214.06       -750.6432
214.52       -112.0198
214.98       -68.13387
215.44       -54.42473
215.90       -48.06842
216.36       -40.66078
216.81       -54.84248
217.27       -77.93971
217.73        72.23956
218.19       -15.61115
218.65       -30.92039
219.11       -47.62927
219.57       -88.23325
220.02       -208.1887
220.48        -52.5437
220.94          10.089
221.40        22.51223
221.86        28.42383
222.32        35.96964
222.77        47.65734
223.23         66.0182
223.69        89.01091
224.15        98.13551
224.61        87.31126
225.06        69.92252
225.52        58.30215
225.98        56.84652
226.44        64.38905
226.90        80.41776
227.36        101.8862
227.81        112.5841
228.27         105.968
228.73        92.35404
229.19        81.33714
229.65        78.34737
230.10        82.56409
230.56        92.11926
231.02        104.5249
231.48        111.6038
231.93        109.2977
232.39        102.5587
232.85        94.66158
233.31        88.28092
233.77        83.93961
234.22        80.52847
234.68        78.63765
235.14        79.19704
235.60        82.40907
236.05        89.23783
236.51        99.17652
236.97        107.5489
237.43        109.2988
237.88        103.4648
238.34        93.64664
238.80        86.95906
239.26        85.05331
239.71        87.72525
240.17        92.85426
240.63          91.123
241.08        76.68623
241.54        56.77262
242.00        41.19374
242.46        34.62111
242.91        36.67679
243.37        47.06413
243.83        69.22567
244.28        92.33058
244.74        95.63572
245.20        87.38538
245.66        77.61248
246.11        69.26884
246.57        60.60447
247.03          47.474
247.48        25.30619
247.94       -3.904727
248.40       -28.20658
248.85       -41.75907
249.31       -39.29337
249.77       -24.41545
250.22       -6.187032
250.68        10.72525
251.14        22.96771
251.59         29.0888
252.05        30.54445
252.51        27.52479
252.96        17.10204
253.42        9.226113
253.88        27.97273
254.33        49.94265
254.79        60.37861
255.25        65.33961
255.70         67.9669
256.16        70.00745
256.62        70.92429
257.07        70.21024
257.53        69.08573
257.99        67.81341
258.44        66.81568
258.90        66.96627
259.35        67.73184
259.81        69.08167
260.27        70.32069
260.72        70.58708
261.18        70.18794
261.63        69.22514
262.09        68.39557
262.55        67.97652
263.00        67.83496
263.46        67.92437
263.91        67.90913
264.37        67.80793
264.83        67.51094
265.28        67.08612
265.74        66.60127
266.19        65.78548
266.65        64.79306
267.11        63.59826
267.56        62.50021
268.02        62.08899
268.47        62.37382
268.93        63.13488
269.38        63.89164
269.84        63.81779
270.30        62.75698
270.75           60.98
271.21        58.95204
271.66        57.22779
272.12        56.05352
272.57        55.19064
273.03        54.58065
273.48        54.04815
273.94        53.55333
274.39        53.09863
274.85        52.65947
275.31        52.06519
275.76        51.28316
276.22        50.44047
276.67        49.53106
277.13        48.73176
277.58        47.98877
278.04        47.30376
278.49        46.65962
278.95        46.19519
279.40        45.82588
279.86        45.56436
280.31        45.18322
280.77        44.51173
281.22        43.47913
281.68        42.27644
282.13        41.00698
282.59        39.94382
283.04        39.10061
283.50         38.4599
283.95        37.95939
284.41        37.58805
284.86        37.28899
285.32        37.07797
285.77        36.90171
286.22         36.7402
286.68        36.56775
287.13        36.35025
287.59        36.03884
288.04        35.52608
288.50        34.86368
288.95         34.0724
289.41         33.3321
289.86        32.78836
290.32        32.49726
290.77        32.38673
291.22        32.35547
291.68        32.23327
292.13        31.97065
292.59         31.6447
293.04        31.31205
293.50        31.12033
293.95        31.07982
294.40        31.14493
294.86        31.25529
295.31        31.33427
295.77        31.35139
296.22        31.32584
296.68        31.27246
297.13        31.18723
297.58         31.0925
298.04        31.01193
298.49        30.94435
298.95        30.93217
299.40        30.96782
299.85        31.03473
300.31        31.16387
300.76        31.39245
301.21        31.70685
301.67        32.09082
302.12          32.406
302.58        32.46999
303.03        32.24665
303.48        31.83396
303.94        31.42254
304.39        31.22576
304.84        31.30545
305.30        31.57176
305.75        31.90738
306.20         32.1496
306.66        32.24781
307.11        32.23384
307.57         32.1359
308.02        31.94305
308.47        31.68592
308.93        31.37185
309.38        31.02905
309.83        30.75756
310.29        30.58407
310.74        30.48317
311.19        30.41916
311.65        30.31474
312.10        30.14824
312.55        29.95181
313.00        29.75846
313.46        29.61906
313.91        29.53838
314.36         29.4855
314.82        29.44446
315.27        29.40709
315.72        29.35288
316.18        29.28673
316.63        29.16607
317.08        28.92947
317.53        28.57615
317.99        28.13774
318.44        27.67699
318.89        27.31659
319.35        27.09719
319.80        26.98801
320.25        26.95409
320.70        26.92799
321.16        26.87584
321.61         26.8197
322.06        26.74884
322.51        26.65086
322.97        26.51895
323.42        26.35658
323.87        26.17308
324.32         26.0022
324.78        25.84991
325.23        25.72146
325.68        25.60296
326.13        25.47423
326.59        25.32316
327.04        25.17014
327.49        25.01309
327.94        24.85716
328.39        24.70516
328.85         24.5465
329.30        24.39878
329.75        24.26675
330.20        24.15186
330.66        24.04711
331.11        23.95196
331.56        23.83713
332.01        23.70034
332.46        23.55429
332.92        23.40867
333.37        23.30743
333.82        23.25551
334.27        23.24994
334.72        23.29058
335.17        23.37611
335.63        23.48565
336.08        23.61714
336.53        23.75235
336.98        23.87847
337.43        23.98558
337.88        24.07758
338.34        24.10788
338.79        24.02032
339.24        23.80875
339.69        23.49557
340.14        23.19025
340.59        23.06377
341.05        23.14227
341.50        23.38512
341.95        23.66179
342.40        23.75502
342.85        23.61886
343.30        23.33469
343.75        23.01892
344.20        22.85215
344.66        22.88555
345.11         23.0447
345.56        23.28531
346.01        23.53133
346.46         23.7374
346.91        23.91956
347.36        24.03841
347.81        24.03514
348.26        23.91063
348.72        23.69062
349.17        23.42231
349.62        23.22493
350.07        23.12989
350.52        23.10967
350.97        23.12752
351.42        23.11343
351.87        23.05062
352.32        22.97485
352.77        22.88684
353.22        22.78739
353.67        22.68054
354.13        22.55635
354.58        22.44844
355.03         22.4448
355.48        22.55264
355.93        22.75902
356.38        22.94708
356.83           22.92
357.28        22.65089
357.73        22.21047
358.18        21.77999
358.63        21.62944
359.08        21.80115
359.53        22.19924
359.98        22.65371
360.43        22.87373
360.88        22.77693
361.33        22.46749
361.78        22.05606
362.23        21.70398
362.68        21.46518
363.13        21.28367
363.58        21.16117
364.03        21.10846
364.48        21.10768
364.93        21.15559
365.38        21.19131
365.83        21.10952
366.28        20.89235
366.73        20.57638
367.18        20.20901
367.63         19.8792
368.08        19.62658
368.53        19.42823
368.98        19.30012
369.43        19.26153
369.88        19.29789
370.33        19.39999
370.78        19.49652
371.23        19.46041
371.68        19.26228
372.13        18.94178
372.58        18.57686
373.03        18.28707
373.48        18.10671
373.93        18.00626
374.38        17.95913
374.83         17.9193
375.28        17.86733
375.72        17.81452
376.17        17.76378
376.62        17.71436
377.07        17.66119
377.52        17.59379
377.97        17.50051
378.42        17.36812
378.87        17.20321
379.32        17.02575
379.77        16.85244
380.22        16.70556
380.67        16.59346
381.11         16.5074
381.56        16.46327
382.01        16.49062
382.46        16.58232
382.91        16.72252
383.36        16.84124
383.81        16.83415
384.26        16.68269
384.71        16.41559
385.15        16.11058
385.60        15.91062
386.05        15.84499
386.50        15.88011
386.95        15.94407
387.40        15.92332
387.85        15.79878
388.29        15.60158
388.74        15.42828
389.19        15.36021
389.64        15.40919
390.09        15.53011
390.54         15.6647
390.98        15.72252
391.43        15.68242
391.88        15.58135
392.33        15.44633
392.78        15.32066
393.23        15.22035
393.67        15.10739
394.12         15.0106
394.57        14.98545
395.02        15.01022
395.47         14.9805
395.91        14.90468
396.36        14.87127
396.81        14.88955
397.26        14.90652
397.71        14.90847
398.15        14.91212
398.60        14.93172
399.05        14.89472
399.50        14.83588
399.95        14.91663
400.39         15.0918
400.84        15.08338
401.29        14.88401
401.74        14.72585
402.18        14.62347
402.63        14.43626
403.08        14.21244
403.53        14.09005
403.97        14.08178
404.42        14.15052
404.87        14.24038
405.32        14.25931
405.76        14.18343
406.21        14.05106
406.66        13.90627
407.11        13.82088
407.55        13.81717
408.00         13.8675
408.45        13.94667
408.90        13.99199
409.34        13.99017
409.79        13.99029
410.24        13.98646
410.68        13.93401
411.13        13.83889
411.58        13.72512
412.03        13.61267
412.47        13.53352
412.92         13.4988
413.37        13.49944
413.81        13.52806
414.26        13.58458
414.71        13.65536
415.15        13.74474
415.60        13.81195
416.05        13.80579
416.49        13.71746
416.94         13.5628
417.39        13.39391
417.83        13.29561
418.28         13.2888
418.73        13.34814
419.17        13.43343
419.62        13.46953
420.07        13.44173
420.51        13.37462
420.96        13.30094
421.41        13.24856
421.85        13.22343
422.30        13.21665
422.74        13.22957
423.19        13.27974
423.64        13.36026
424.08        13.47295
424.53        13.56619
424.98        13.57252
425.42        13.48094
425.87        13.31997
426.31        13.13989
426.76        13.03104
427.21        13.01081
427.65        13.05052
428.10        13.13831
428.54        13.24952
428.99        13.36609
429.44        13.51112
429.88        13.61912
430.33        13.59676
430.77        13.44115
431.22        13.19996
431.66        12.95895
432.11        12.87413
432.56        12.92726
433.00         13.0425
433.45        13.10713
433.89        12.89659
434.34        12.43806
434.78        12.53828
435.23        13.21714
435.67        13.50823
436.12         13.3819
436.57         13.3491
437.01         13.4304
437.46        13.39885
437.90        13.25795
438.35        13.09441
438.79        12.94171
439.24        12.81792
439.68        12.75936
440.13        12.84937
440.57        13.02275
441.02        13.11246
441.46        13.09249
441.91        12.95423
442.35        12.76927
442.80        12.86082
443.24        13.13608
443.69        13.06859
444.13        12.70681
444.58        12.57212
445.02        12.67341
445.47        12.73386
445.91        12.73697
446.36        12.78717
446.80         12.8762
447.24        12.97238
447.69        13.05659
448.13        13.10253
448.58        13.10367
449.02        13.06433
449.47        13.00857
449.91        12.96403
450.36        12.94424
450.80        12.94316
451.25        12.94164
451.69        12.89909
452.13        12.81256
452.58        12.69888
453.02        12.59359
453.47         12.5604
453.91        12.60799
454.36        12.71873
454.80         12.8416
455.24        12.89261
455.69        12.85636
456.13        12.75036
456.58        12.63751
457.02        12.59572
457.46        12.64469
457.91        12.75725
458.35        12.87478
458.79        12.88607
459.24        12.78077
459.68        12.63085
460.13         12.5197
460.57        12.31442
461.01        12.39362
461.46         12.4555
461.90         12.5695
462.34        12.61753
462.79        12.64919
463.23        12.62566
463.68         12.5928
464.12        12.59239
464.56        12.63521
465.01        12.71991
465.45        12.79319
465.89         12.8003
466.34        12.73905
466.78        12.62183
467.22        12.49828
467.67        12.47558
468.11        12.52084
468.55        12.65164
468.99        12.79773
469.44        12.87511
469.88        12.86574
470.32        12.79159
470.77        12.69219
471.21        12.62825
471.65         12.6194
472.10        12.64741
472.54        12.68563
472.98        12.70183
473.42        12.68806
473.87        12.66369
474.31         12.6339
474.75        12.61878
475.20        12.62566
475.64         12.6366
476.08        12.64573
476.52         12.6769
476.97        12.73422
477.41        12.75602
477.85        12.70938
478.29        12.90106
478.74        12.77439
479.18        12.75504
479.62        12.70975
480.06        12.76779
480.50        12.93792
480.95        12.94313
481.39         13.1749
481.83        13.18943
482.27        13.11386
482.72        12.97895
483.16        12.83691
483.60        12.79063
484.04        12.83714
484.48        12.92481
484.93        13.11559
485.37         13.3479
485.81        13.43178
486.25        14.00978
486.69        13.07951
487.14        12.73121
487.58        13.18511
488.02        13.23304
488.46        13.37436
488.90        13.52624
489.34        13.35852
489.79        13.20561
490.23        13.50357
490.67        13.67846
491.11        13.82444
491.55        13.77716
491.99        13.58959
492.43        13.54023
492.88        13.64992
493.32        13.73299
493.76        13.78016
494.20        13.88133
494.64        14.03682
495.08        14.20627
495.52        14.35356
495.96        14.47543
496.41        14.54931
496.85         14.4615
497.29         14.2958
497.73        14.37316
498.17        14.67019
498.61        14.82659
499.05        14.82061
499.49        14.89899
499.93        15.05626
500.37         15.1389
500.82        15.15001
501.26        15.16874
501.70        15.20455
502.14        15.23582
502.58        15.26189
503.02        15.28332
503.46        15.30243
503.90        15.32648
504.34        15.36434
504.78        15.42502
505.22        15.50815
505.66        15.60747
506.10        15.70879
506.54        15.78928
506.98        15.84101
507.42        15.86942
507.86        15.87941
508.30        15.87983
508.74        15.87663
509.18        15.86957
509.62        15.86624
510.06        15.87881
510.50        15.91009
510.94         15.9577
511.38        16.01338
511.82         16.0623
512.26         16.0978
512.70        16.11981
513.14        16.13013
513.58        16.13357
514.02        16.13169
514.46        16.12414
514.90        16.10671
515.34        16.07293
515.78        16.02555
516.22        15.97164
516.66        15.92603
517.10        15.90972
517.54        15.92677
517.98        15.96989
518.42        16.02665
518.86        16.07557
519.30        16.10818
519.74        16.12826
520.18        16.13678
520.62        16.13721
521.06        16.13102
521.50        16.11443
521.93         16.0927
522.37        16.07149
522.81         16.0543
523.25        16.04213
523.69        16.02715
524.13        15.99483
524.57        15.94565
525.01        15.88742
525.45        15.83459
525.89        15.80981
526.32        15.81615
526.76        15.84031
527.20        15.87233
527.64        15.89562
528.08        15.90287
528.52        15.90154
528.96        15.88108
529.40        15.82558
529.83        15.73586
530.27        15.62169
530.71        15.51513
531.15        15.47156
531.59        15.49919
532.03        15.57897
532.46        15.66724
532.90        15.69418
533.34        15.64574
533.78        15.53577
534.22        15.39905
534.66        15.31489
535.09        15.28332
535.53        15.23259
535.97        15.16998
536.41        15.16249
536.85        15.21064
537.28         15.2836
537.72        15.35376
538.16         15.3925
538.60        15.39063
539.04        15.35137
539.47        15.30998
539.91        15.33275
540.35        15.42548
540.79        15.57598
541.22        15.73318
541.66        15.79045
542.10        15.77429
542.54        15.68367
542.97        15.59002
543.41        15.59562
543.85        15.71773
544.29        15.92139
544.72        16.15267
545.16         16.3357
545.60         16.4457
546.04        16.50449
546.47        16.53643
546.91        16.58482
547.35        16.66352
547.79        16.75393
548.22        16.83359
548.66        16.90662
549.10        16.97232
549.53        16.95868
549.97        17.03769
550.41        17.13098
550.84        17.28548
551.28        17.48716
551.72        17.69997
552.15        17.84826
552.59        17.92611
553.03        17.97957
553.46        18.02143
553.90        18.08286
554.34        18.17512
554.77        18.25931
555.21        18.32114
555.65        18.53806
556.08        18.55519
556.52        18.66382
556.96        18.75196
557.39        18.82854
557.83        18.89798
558.27        18.93279
558.70        18.94314
559.14         19.0394
559.57        19.05482
560.01        19.15173
560.45        19.24135
560.88         19.2492
561.32        19.21167
561.75         19.1523
562.19         19.1214
562.63         19.2774
563.06        19.53776
563.50        19.49612
563.93         19.2105
564.37        19.14799
564.80        19.31937
565.24         19.4769
565.68        19.58643
566.11        19.70953
566.55        19.84102
566.98        19.95428
567.42        20.06654
567.85        20.19186
568.29         20.3382
568.72        20.48397
569.16        20.64097
569.60        20.74879
570.03        20.79007
570.47        20.85032
570.90        21.12005
571.34         20.8341
571.77        21.14618
572.21        21.18317
572.64        21.30489
573.08        21.35374
573.51        21.73941
573.95        21.97569
574.38        21.66476
574.82        21.86801
575.25        21.85269
575.69        21.94936
576.12        21.95017
576.56        22.15316
576.99        22.46327
577.42        22.09493
577.86        22.10118
578.29        22.15778
578.73        22.38352
579.16         22.1095
579.60        21.86794
580.03        21.67998
580.47        21.87064
580.90        21.53123
581.33        21.81537
581.77        22.09753
582.20        21.87136
582.64         21.5018
583.07        21.44983
583.51          21.242
583.94        21.17629
584.37        21.21059
584.81        21.29164
585.24        21.24537
585.68        21.12054
586.11        20.80199
586.54        20.79283
586.98        20.72283
587.41        20.76716
587.85        20.78952
588.28        20.76556
588.71        20.41881
589.15        20.72965
589.58        20.36081
590.01        20.41092
590.45        20.29814
590.88        20.27547
591.31         20.3328
591.75        20.46372
592.18        20.44283
592.61        20.21746
593.05        20.62559
593.48        20.63592
593.91        20.43734
594.35        20.69013
594.78        20.72542
595.21        20.81561
595.65        20.85222
596.08        20.83568
596.51        21.04239
596.94        21.05174
597.38        21.19675
597.81        21.35306
598.24        21.57839
598.68        21.92921
599.11        21.95185
599.54        22.37537
599.97        22.31893
600.41        22.73378
600.84        23.03126
601.27        23.23472
601.70        23.64452
602.14         24.0114
602.57        24.28132
603.00        24.42218
603.43        24.61066
603.87        25.03501
604.30        25.34559
604.73        25.63059
605.16        25.93179
605.60        26.25965
606.03        26.78364
606.46         27.3486
606.89        27.58523
607.32        27.62397
607.76        27.80153
608.19        28.16941
608.62        28.68788
609.05        29.05532
609.48        29.29678
609.92        29.46133
610.35        29.52258
610.78        30.48001
611.21        30.83423
611.64        30.89398
612.07        31.06152
612.50        31.37398
612.94        31.57691
613.37        31.69861
613.80         31.9116
614.23        32.17791
614.66         32.6074
615.09        32.67947
615.52         32.9495
615.96        33.26334
616.39        33.57984
616.82        33.87101
617.25        34.12851
617.68        34.33743
618.11        34.44848
618.54        34.50115
618.97        34.62861
619.40        34.86374
619.84        35.08694
620.27        35.29453
620.70        35.66006
621.13        36.12312
621.56        36.16623
621.99        36.14873
622.42        36.27082
622.85        36.15233
623.28        36.35049
623.71        36.23012
624.14        36.35762
624.57        36.53604
625.00        36.59471
625.43        36.51155
625.86        36.38748
626.29        36.30112
626.72        35.98076
627.15        35.87625
627.58        35.57265
628.01        35.24263
628.44        35.16782
628.87        35.27723
629.30        35.05738
629.73        34.51714
630.16        34.38955
630.59        34.12023
631.02        33.92639
631.45        33.62582
631.88        33.30521
632.31        32.95697
632.74        32.62796
633.17        32.22874
633.60        31.86528
634.03        31.51058
634.46        31.16965
634.89        30.82399
635.32        30.44356
635.75        30.02797
636.18        29.58969
636.61        29.15926
637.04        28.78057
637.47        28.46225
637.89        28.18889
638.32        27.92013
638.75        27.62399
639.18        27.29596
639.61        26.88714
640.04        26.55406
640.47        26.25081
640.90        26.02593
641.33        25.85522
641.76        25.71469
642.18        25.60275
642.61        25.50993
643.04         25.3843
643.47        25.20809
643.90        25.30703
644.33        25.13827
644.76        25.10189
645.18        25.05837
645.61        25.14333
646.04        25.31856
646.47        25.37995
646.90        25.35567
647.33        25.45925
647.75         25.7017
648.18        25.95892
648.61        26.21092
649.04        26.46802
649.47        26.72174
649.89        27.02096
650.32         27.3533
650.75        27.59299
651.18         27.7809
651.61        28.19496
652.03        28.79881
652.46        29.22263
652.89         29.5087
653.32        29.91672
653.74        30.46027
654.17        31.26099
654.60        31.52617
655.03        32.00478
655.46        32.06853
655.88        32.98648
656.31        37.34314
656.74        37.09825
657.16        34.01709
657.59        33.76241
658.02        34.94345
658.45        35.06086
658.87         35.7577
659.30        35.67939
659.73        36.11016
660.15        37.05602
660.58        37.03649
661.01        37.22748
661.44        37.25366
661.86        37.59668
662.29        38.22682
662.72         38.7163
663.14        39.03552
663.57        39.35915
664.00        39.68228
664.42        39.91651
664.85        40.07377
665.27        40.15901
665.70         40.2242
666.13         40.3645
666.55         40.6071
666.98        40.91644
667.41         41.2653
667.83         41.6034
668.26        41.89656
668.69        42.16059
669.11        42.38584
669.54        42.57633
669.96        42.73032
670.39        42.80267
670.82        42.84158
671.24        42.95729
671.67        43.16326
672.09           43.41
672.52        43.65541
672.94        43.81031
673.37        43.86435
673.80        43.84839
674.22        43.81963
674.65        43.84703
675.07        43.96732
675.50        44.14959
675.92        44.37534
676.35        44.60855
676.77        44.83516
677.20        45.05552
677.62        45.26826
678.05        45.45994
678.47        45.62467
678.90        45.76479
679.32        45.87184
679.75        45.95274
680.17        46.01023
680.60        46.05333
681.02         46.1043
681.45        46.17805
681.87        46.28487
682.30        46.44286
682.72        46.65119
683.15        46.79285
683.57        46.86852
684.00        47.16037
684.42         47.3129
684.85        47.47495
685.27        47.52831
685.70        47.56968
686.12        47.60622
686.54        47.57794
686.97        47.52084
687.39        47.62752
687.82        47.84918
688.24        47.87617
688.66        47.75644
689.09         47.8711
689.51        48.21893
689.94        48.47064
690.36        48.60331
690.78        48.70485
691.21         48.8267
691.63        49.07578
692.06        49.44131
692.48         49.7994
692.90        50.08743
693.33        50.29255
693.75        50.39798
694.17        50.33461
694.60        50.20453
695.02        50.22635
695.44        50.38359
695.87        50.58136
696.29        50.76876
696.71        50.66363
697.14        50.40499
697.56        50.80788
697.98        51.50226
698.41        51.89022
698.83        51.85675
699.25        51.89876
699.68        52.05144
700.10        52.17881
700.52          52.293
700.94        52.40599
701.37         52.5223
701.79        52.74184
702.21        53.00548
702.64        53.13713
703.06        53.18959
703.48         53.1768
703.90        53.11129
704.33        53.30038
704.75        53.10548
705.17        53.17251
705.59        53.31522
706.01        53.51215
706.44        53.74414
706.86        53.99328
707.28        54.22866
707.70        54.49031
708.12        54.72845
708.55        54.75448
708.97        54.61098
709.39        54.57024
709.81        54.65683
710.23        54.69872
710.66        54.70367
711.08        54.80685
711.50        54.98891
711.92        55.16175
712.34        55.31287
712.76        55.46739
713.19        55.60204
713.61         55.7168
714.03        55.79335
714.45        55.82916
714.87        55.85895
715.29        55.94154
715.71        56.08945
716.13        56.29157
716.56        56.48729
716.98        56.64268
717.40        56.71405
717.82        56.71587
718.24        56.70354
718.66        56.76664
719.08        56.92446
719.50        57.15257
719.92         57.3803
720.34        57.49331
720.76        57.46861
721.19        57.34343
721.61        57.21026
722.03        57.20725
722.45        57.37084
722.87        57.66922
723.29         58.0204
723.71        58.24858
724.13        58.29953
724.55        58.27919
724.97        58.30273
725.39        58.16306
725.81        58.51726
726.23        58.81685
726.65        59.11491
727.07        59.18335
727.49        58.99332
727.91        58.62045
728.33        58.23146
728.75        58.10548
729.17        58.30002
729.59        58.71732
730.01        59.21204
730.43        59.54681
730.85        59.65122
731.27        59.59319
731.69        59.41291
732.10        59.33348
732.52        59.13509
732.94        58.97334
733.36        58.88171
733.78        59.00508
734.20        59.34892
734.62        60.03856
735.04        60.81066
735.46        60.88136
735.88         60.3624
736.30        60.13359
736.72        60.30958
737.13        60.52734
737.55        60.64209
737.97         60.5828
738.39        60.45077
738.81        60.18382
739.23        60.62242
739.65        60.94617
740.06        61.23558
740.48        61.40337
740.90          61.402
741.32        61.28437
741.74         61.1082
742.16        60.95739
742.57        60.87065
742.99        60.90035
743.41        61.03899
743.83        61.07373
744.25        61.07369
744.67        61.46665
745.08        62.12665
745.50        62.37603
745.92        62.15887
746.34        61.79857
746.75        61.42942
747.17        61.18165
747.59        61.10564
748.01         61.1744
748.42         61.3483
748.84        61.53395
749.26        61.70595
749.68        61.85867
750.09        61.98445
750.51        62.15678
750.93        62.33565
751.35        62.35006
751.76        62.25724
752.18        62.28913
752.60        62.47109
753.01        62.71527
753.43        62.94378
753.85        63.05467
754.27        63.01826
754.68        62.96993
755.10        63.01846
755.52        62.81561
755.93        63.15431
756.35        63.43174
756.77        63.75407
757.18        63.87764
757.60        63.79773
758.02        63.61174
758.43        63.25654
758.85        63.32814
759.26        62.46303
759.68        62.58995
760.10        63.53445
760.51        64.11526
760.93        64.26029
761.34         64.0192
761.76        64.20134
762.18        63.67567
762.59        62.97551
763.01        63.14909
763.42         64.1172
763.84        64.55373
764.26        64.36372
764.67        64.14869
765.09        64.05919
765.50        64.20546
765.92        64.50082
766.33        64.28758
766.75        63.60951
767.16        63.46124
767.58        63.89801
768.00        64.23502
768.41         64.4799
768.83         65.2002
769.24        66.15205
769.66         66.4641
770.07         66.1469
770.49        65.71522
770.90          65.378
771.32        65.40215
771.73        65.69944
772.15        65.70132
772.56        65.39742
772.97        65.14095
773.39        65.00244
773.80        65.15832
774.22        65.31947
774.63        65.53563
775.05        65.65739
775.46        65.80383
775.88        65.92956
776.29         65.9641
776.70        65.93319
777.12        65.95905
777.53        66.06461
777.95        66.17654
778.36         66.2801
778.77        66.26671
779.19        66.11627
779.60        66.07479
780.02        66.10161
780.43        65.69176
780.84        65.09234
781.26        65.25682
781.67         66.0754
782.09        66.65947
782.50        66.78366
782.91        66.44428
783.33        65.85788
783.74        65.70895
784.15        66.09284
784.57        66.54845
784.98         67.0079
785.39        67.52776
785.81        68.04809
786.22        68.33379
786.63        68.71021
787.04        68.76209
787.46        68.63071
787.87        68.29179
788.28        67.94506
788.70        67.83928
789.11        67.99512
789.52        68.46746
789.93        69.02303
790.35        69.04155
790.76        68.56588
791.17         68.1819
791.58        68.03018
792.00        67.93463
792.41        67.91547
792.82        68.02512
793.23        68.17413
793.65        68.23562
794.06         68.1826
794.47        67.98974
794.88        67.79643
795.29         67.7961
795.71        67.94849
796.12        68.41968
796.53        68.99595
796.94        68.91532
797.35        68.22222
797.76        67.88461
798.18        68.02691
798.59        68.05944
799.00        68.01868
799.41        68.30171
799.82        68.81852
800.23        69.18426
800.64        69.32311
801.06        69.31178
801.47        69.23923
801.88        69.16579
802.29        69.12531
802.70        69.08217
803.11        69.02074
803.52        68.93102
803.93        68.82847
804.34        68.73341
804.75        68.68169
805.17        68.79279
805.58        69.12611
805.99        69.36249
806.40        69.47517
806.81        70.01411
807.22        70.68131
807.63        70.17323
808.04        68.76225
808.45        68.10697
808.86        68.38125
809.27        68.70769
809.68        68.93484
810.09        69.18855
810.50        69.39366
810.91         69.5333
811.32        69.60529
811.73        69.58509
812.14        69.48364
812.55         69.3469
812.96         69.2584
813.37        69.25103
813.78        69.40443
814.19         69.9264
814.60        70.63615
815.01        71.03358
815.42        71.04248
815.83        70.86298
816.24        70.60651
816.65        70.41531
817.05        70.36906
817.46         70.4108
817.87        70.47775
818.28        70.43075
818.69        70.23885
819.10        69.94482
819.51        69.65543
819.92        69.55761
820.33        69.69682
820.74        70.00309
821.14        70.32237
821.55        70.45512
821.96        70.34676
822.37        70.07617
822.78        69.76437
823.19        69.62723
823.60        69.74256
824.00        70.05988
824.41        70.47587
824.82        70.92495
825.23        71.34433
825.64        71.73273
826.04        72.05372
826.45        72.17156
826.86         72.0891
827.27        71.83527
827.68        71.44611
828.08        71.01439
828.49        70.56017
828.90        70.09689
829.31        69.71858
829.72        69.55111
830.12        69.64976
830.53        69.96681
830.94        70.35754
831.35        70.50379
831.75         70.3456
832.16        69.91871
832.57        69.51093
832.97        69.56097
833.38        70.12551
833.79        71.04627
834.20        72.00773
834.60        72.47509
835.01        72.27904
835.42        71.63048
835.82        70.77093
836.23        70.06644
836.64        69.65182
837.04        69.43369
837.45        69.39153
837.86        69.55002
838.26        69.88432
838.67        70.36658
839.08        70.85703
839.48        71.08307
839.89        70.97298
840.29        70.59607
840.70        70.12225
841.11        69.80157
841.51        69.72603
841.92        69.80451
842.33        70.00401
842.73        70.27167
843.14        70.52193
843.54        70.82394
843.95        71.10117
844.35        71.29308
844.76        71.35426
845.17        71.28953
845.57        71.16934
845.98        71.10638
846.38        71.14686
846.79        71.24467
847.19        71.34805
847.60        71.28529
848.00        71.05022
848.41        70.68666
848.81        70.31976
849.22        70.11697
849.62        70.13319
850.03        70.28757
850.43         70.5103
850.84        70.53879
851.24        70.38216
851.65        70.10166
852.05        69.85338
852.46        69.84328
852.86        70.09407
853.27        70.50444
853.67        70.97948
854.07        71.58828
854.48        72.24577
854.88        73.04079
855.29        73.62228
855.69        73.59284
856.10        72.75902
856.50        71.37836
856.90        69.90888
857.31        69.00701
857.71        68.81567
858.12        69.11116
858.52        69.74266
858.92        70.19743
859.33        70.26453
859.73        70.13313
860.13         69.8027
860.54         69.3039
860.94        68.69749
861.34        67.95144
861.75        67.24418
862.15        66.95496
862.55        67.15337
862.96        67.73611
863.36        68.49442
863.76        68.98151
864.17        69.06903
864.57        68.88519
864.97        68.58183
865.38        68.42871
865.78        68.52842
866.18        68.75544
866.58        69.00757
866.99         69.1189
867.39        69.07249
867.79        68.95013
868.19        68.76378
868.60        68.48145
869.00        68.11858
869.40        67.67722
869.80         67.3427
870.21         67.4485
870.61        68.09063
871.01         69.0886
871.41        70.06832
871.81        70.47542
872.22        70.18704
872.62        69.36539
873.02        68.32219
873.42        67.58088
873.82         67.3293
874.22        67.46415
874.63        67.79397
875.03        68.00269
875.43         68.0065
875.83        67.89198
876.23        67.86623
876.63        68.24586
877.03        69.05252
877.44        70.11504
877.84        71.09676
878.24         71.4062
878.64        70.92377
879.04        69.87776
879.44        68.64358
879.84        67.78229
880.24        67.44947
880.64        67.48565
881.04        67.75411
881.44        68.01765
881.84        68.19239
882.24        68.38531
882.65        68.54064
883.05        68.64709
883.45        68.66454
883.85        68.55745
884.25         68.4761
884.65        68.67673
885.05        69.19082
885.45         69.9531
885.85        70.71422
886.25        71.03658
886.65        70.80855
887.05        70.15677
887.45         69.3853
887.85        68.97234
888.25        69.04053
888.65        69.46043
889.04        69.97305
889.44        70.13146
889.84        69.84031
890.24        69.24065
890.64        68.59931
891.04        68.28761
891.44        68.39052
891.84        68.81944
892.24        69.30665
892.64        69.40788
893.04        69.03211
893.44        68.31639
893.83        67.64326
894.23        67.60715
894.63        68.27869
895.03        69.45999
895.43        70.68258
895.83        71.10169
896.23        70.51896
896.63        69.28643
897.02         67.8438
897.42        66.90884
897.82        66.59988
898.22          66.749
898.62        67.22962
899.01        67.85193
899.41        68.45715
899.81        69.11784
900.21        69.82674
900.61        70.55438
901.00        71.24759
901.40        71.81337
901.80        72.14165
902.20        72.11423
902.59        71.73915
902.99        71.08482
903.39        70.31903
903.79        69.70366
904.18        69.32212
904.58        69.15683
904.98        69.14058
905.38        69.15779
905.77        69.16683
906.17        69.22942
906.57        69.31981
906.96        69.40704
907.36        69.46714
907.76        69.48811
908.15        69.55293
908.55        69.76611
908.95        70.14663
909.34        70.65508
909.74        71.10978
910.14        71.29749
910.53        71.15691
910.93        70.76078
911.33        70.24108
911.72         69.8039
912.12        69.53428
912.52        69.37096
912.91        69.24461
913.31        69.03066
913.70        68.71713
914.10        68.38277
914.49        68.10109
914.89        67.94868
915.29        67.95952
915.68        68.09789
916.08        68.36462
916.47        68.78029
916.87        69.30247
917.26        69.88622
917.66         70.4325
918.05        70.80402
918.45         70.9621
918.84        70.97644
919.24        70.86871
919.64        70.76749
920.03        70.74215
920.42        70.74714
920.82        70.80747
921.21        70.98109
921.61         71.2256
922.00        71.52781
922.40        71.77441
922.79        71.82657
923.19        71.63058
923.58        71.25729
923.98        70.74806
924.37        70.09369
924.77        69.37119
925.16        68.60033
925.55        67.96824
925.95        67.76395
926.34        68.07365
926.74        68.75819
927.13        69.71012
927.52        70.64927
927.92         71.4319
928.31        72.10525
928.70         72.5502
929.10        72.62324
929.49        72.34183
929.89        71.73422
930.28        71.00188
930.67        70.45419
931.07        70.17816
931.46        70.09685
931.85         70.1587
932.24        70.25194
932.64        70.31951
933.03        70.46176
933.42         70.5089
933.82        70.20661
934.21        69.55375
934.60        68.60865
934.99        67.79062
935.39        67.72326
935.78        68.55045
936.17        70.13574
936.56        71.90488
936.96         72.7711
937.35        72.45203
937.74        71.21078
938.13        69.75279
938.53        69.04216
938.92        69.23417
939.31        70.09572
939.70        71.11939
940.09        71.39161
940.49        70.68655
940.88        69.36448
941.27        67.99363
941.66        67.39513
942.05        67.75681
942.44        68.82254
942.84        70.16219
943.23        71.06316
943.62        71.21018
944.01        70.84542
944.40        70.24701
944.79        69.85992
945.18        69.82425
945.57        69.95088
945.97        70.16827
946.36        70.48557
946.75        70.82963
947.14        71.25371
947.53         71.5998
947.92         71.5593
948.31        71.09053
948.70        70.29648
949.09        69.48254
949.48        69.11352
949.87         69.3041
950.26        69.95385
950.65        70.82057
951.04        71.45971
951.43        71.70823
951.82        71.64281
952.21        71.47151
952.60        71.53915
952.99        71.88226
953.38        72.34118
953.77        72.62919
954.16        72.26694
954.55        71.20227
954.94        69.74018
955.33        68.17708
955.72        66.92621
956.11        66.14214
956.50        65.67633
956.89        65.66257
957.28        66.31421
957.66        67.62187
958.05        69.41207
958.44        71.10834
958.83        71.59849
959.22        70.64362
959.61        68.64716
960.00        66.37483
960.39         64.9325
960.78        64.58956
961.16         65.0662
961.55        66.03417
961.94        67.03448
962.33        67.83952
962.72        68.59534
963.11        69.18565
963.49        69.38889
963.88        69.13613
964.27        68.49802
964.66        67.70541
965.04        67.12376
965.43        66.82534
965.82        66.70858
966.21        66.74776
966.60        66.86422
966.98        67.00962
967.37        67.21403
967.76        67.32632
968.15        67.06191
968.53        66.41153
968.92        65.46696
969.31        64.53803
969.69        64.12653
970.08         64.2995
970.47        64.89499
970.86        65.67726
971.24         66.2104
971.63        66.26422
972.02        66.01495
972.40        65.47236
972.79        64.68388
973.17        63.78823
973.56        62.82562
973.95        62.05046
974.33        61.86697
974.72        62.28349
975.11        63.12981
975.49        64.32615
975.88        65.61516
976.26        66.84496
976.65        68.01799
977.04        68.64668
977.42        67.97099
977.81         65.9983
978.19         62.9916
978.58        60.31838
978.96        59.80297
979.35        61.77105
979.74        65.84611
980.12        70.83489
980.51        73.65853
980.89        73.42642
981.28        70.79064
981.66        67.23473
982.05        65.31705
982.43        65.70091
982.82        67.57156
983.20        70.19704
983.59        72.15205
983.97        73.01513
984.35        73.26546
984.74        72.88113
985.12        71.90195
985.51        70.46533
985.89        68.48382
986.28        66.65022
986.66        65.97063
987.04        66.74046
987.43        68.68577
987.81        71.01842
988.20        72.13836
988.58        71.63615
988.96        69.80484
989.35        67.53874
989.73        66.27925
990.12        66.36439
990.50         67.4513
990.88        68.64532
991.27        68.50379
991.65         66.8329
992.03        64.21695
992.42        61.71172
992.80        60.65404
993.18        61.46213
993.56        63.60717
993.95        66.34424
994.33        68.68131
994.71        69.96801
995.10        70.48877
995.48        70.24434
995.86        69.27495
996.24          67.792
996.63        65.82529
997.01         63.8553
997.39        62.57993
997.77        62.15152
998.15        62.49367
998.54        63.30787
998.92        63.96853
999.30        64.24334
999.68        64.24802
1000.06        64.19505
1000.45        64.43368
1000.83        65.17622
1001.21        66.22449
1001.59        67.22983
1001.97        67.65556
1002.35        67.35939
1002.73         66.4752
1003.12        65.52251
1003.50         65.2823
1003.88         65.9387
1004.26         67.2552
1004.64        68.57551
1005.02         68.9229
1005.40        68.13589
1005.78        66.51064
1006.16        64.75086
1006.54         64.1069
1006.92        64.90652
1007.30        66.71404
1007.69        68.71361
1008.07        69.81473
1008.45        69.59045
1008.83        68.43802
1009.21        66.79875
1009.59        65.39375
1009.97        64.54082
1010.35        64.06313
1010.73        63.98835
1011.11        64.36684
1011.49        65.20778
1011.86        66.73164
1012.24        68.56779
1012.62        70.40518
1013.00        72.01364
1013.38        73.21265
1013.76        74.11555
1014.14        75.09077
1014.52        76.19086
1014.90         77.3718
1015.28        77.89387
1015.66        76.58652
1016.04        73.66628
1016.41        69.98117
1016.79        66.89613
1017.17        65.60812
1017.55        66.10612
1017.93        68.12256
1018.31        71.01504
1018.69        72.32272
1019.06        70.93465
1019.44        68.28358
1019.82         65.5605
1020.20        63.45037
1020.58        61.88372
1020.95        60.32021
1021.33        59.33272
1021.71        60.17387
1022.09        63.20495
1022.46         67.9024
1022.84        72.58279
1023.22        75.16599
1023.60        75.20789
1023.97        73.31424
1024.35        69.96415
1024.73        66.31214
