SpectraSmart Spectrum 2.9.0.0
--------- Device Information -----------
Spectrum Name :  反射率_0
Saving Time :  2024/05/01 16:58:44
Spectro-Module Model Name : SE2030-DUVN
Spectro-Module Serial Number : OS361AC55029948
Wavelength Start : 200
Wavelength End : 1025
Wavelength Unit : Wavelength(nm)
Spectrum Unit : Reflectance(%)
-----------Spectrum Setting ------------
Integration Time : 20ms
Average : 10
Boxcar : 0
Background removal :  enabled
linearity correction :  enabled
SC :  disabled
Intensity correction :  disabled
DWT denoise :  enabled
savitzky-golay :  disabled
FFT :  disabled
Running average :  disabled
Kalman :  disabled
High pass :  disabled
---------------BEGIN--------------------
Wavelength(nm)             Reflectance(%)
200.29               0
200.75        159.0299
201.21        514.1899
201.67        -157.738
202.13       -38.95722
202.58       -4.457808
203.04        14.37058
203.50        25.57592
203.96         31.1551
204.42        33.18253
204.88        31.02898
205.34       -51.67837
205.80        41.44766
206.26        26.38097
206.72      0.04257051
207.18       -126.4845
207.64        225.6977
208.10        97.45428
208.55        63.98277
209.01        47.35148
209.47         41.8485
209.93        43.18679
210.39        47.61742
210.85        53.82441
211.31        61.20584
211.77        76.97513
212.23       -41.97225
212.69        35.11425
213.14        51.83117
213.60        92.18082
214.06        -323.551
214.52       -32.04289
214.98       -7.843415
215.44        7.284663
215.90            37.6
216.36        465.1531
216.81       -199.5647
217.27       -262.6516
217.73        540.1567
218.19        100.8066
218.65        51.24815
219.11        20.93505
219.57       -41.55965
220.02       -271.1183
220.48       -110.2418
220.94        9.250145
221.40        40.10256
221.86          51.889
222.32        58.13222
222.77        63.40358
223.23        70.02792
223.69        76.70354
224.15        76.49478
224.61         69.1862
225.06        60.19597
225.52        55.05667
225.98        55.40255
226.44        60.64553
226.90        71.00852
227.36        84.54695
227.81        90.83978
228.27        85.95878
228.73         76.6054
229.19        69.01794
229.65         66.6511
230.10        68.89941
230.56        74.62954
231.02        82.33057
231.48        87.01316
231.93        86.08451
232.39         82.5233
232.85          78.314
233.31        75.13343
233.77        73.31924
234.22        72.20207
234.68        72.05346
235.14        73.43048
235.60         76.5734
236.05        82.23051
236.51        90.54143
236.97        99.30576
237.43         105.099
237.88        106.4851
238.34        103.9321
238.80        100.8985
239.26        98.30117
239.71        95.30788
240.17        89.93958
240.63        80.79907
241.08        70.27515
241.54        62.83294
242.00        60.52884
242.46        62.65271
242.91        69.42532
243.37        82.48507
243.83        103.9048
244.28         119.567
244.74        113.2721
245.20        98.07173
245.66        84.41796
246.11         73.7423
246.57         63.1778
247.03        48.54656
247.48         25.9894
247.94      -0.3721675
248.40       -17.71994
248.85       -22.37916
249.31       -12.91542
249.77        4.139077
250.22        21.16407
250.68        35.54956
251.14        45.89951
251.59        52.58268
252.05        57.62307
252.51        63.10468
252.96        72.76154
253.42        92.85587
253.88        105.8987
254.33        98.63626
254.79        90.14962
255.25        84.93549
255.70        81.41154
256.16        79.36224
256.62        78.28596
257.07        77.97242
257.53        78.60773
257.99        79.45214
258.44        79.93225
258.90        80.20714
259.35        79.88663
259.81        79.46114
260.27        78.86684
260.72        78.13946
261.18        77.65131
261.63        77.01001
262.09         76.4827
262.55        75.83065
263.00        74.93294
263.46        74.07384
263.91        73.09581
264.37        72.26115
264.83        71.49596
265.28        70.74375
265.74        70.09053
266.19        69.29024
266.65        68.47031
267.11         67.5987
267.56        66.82357
268.02        66.49537
268.47        66.59087
268.93        66.96059
269.38        67.32414
269.84        67.19299
270.30        66.46539
270.75        65.26597
271.21        63.85322
271.66        62.47502
272.12        61.29517
272.57        60.16908
273.03        59.12286
273.48        58.10521
273.94        57.15137
274.39        56.24638
274.85        55.40073
275.31        54.48506
275.76        53.47121
276.22        52.48568
276.67        51.50217
277.13        50.66434
277.58        49.89851
278.04         49.2128
278.49        48.56443
278.95        48.06081
279.40        47.62061
279.86        47.27551
280.31        46.83643
280.77        46.19653
281.22        45.28179
281.68        44.24615
282.13        43.16015
282.59         42.2609
283.04        41.54237
283.50        41.00259
283.95        40.55318
284.41        40.14589
284.86        39.73478
285.32        39.36952
285.77        39.05848
286.22        38.87336
286.68         38.8068
287.13        38.79636
287.59        38.76168
288.04        38.53221
288.50        38.12852
288.95        37.57699
289.41        37.04645
289.86        36.66652
290.32        36.50021
290.77        36.46907
291.22        36.50784
291.68        36.50045
292.13        36.41069
292.59         36.3196
293.04        36.23892
293.50        36.24467
293.95        36.33813
294.40        36.49502
294.86        36.73838
295.31        37.11964
295.77        37.62093
296.22        38.20311
296.68        38.76019
297.13        39.10328
297.58        39.22327
298.04        39.20615
298.49        39.15189
298.95        39.26971
299.40        39.58704
299.85        40.02557
300.31        40.55748
300.76        41.12548
301.21        41.69675
301.67        42.29621
302.12        42.78743
302.58        42.99277
303.03        42.87935
303.48        42.54073
303.94        42.21753
304.39        42.18034
304.84         42.5062
305.30        43.09097
305.75        43.74791
306.20        44.21005
306.66        44.40918
307.11        44.40154
307.57        44.29567
308.02        44.18312
308.47         44.1195
308.93        44.07603
309.38        44.00711
309.83        43.90926
310.29        43.79028
310.74        43.66097
311.19        43.54466
311.65        43.45275
312.10        43.37877
312.55        43.31672
313.00         43.2685
313.46        43.23889
313.91        43.21284
314.36        43.17936
314.82         43.1056
315.27        42.95698
315.72        42.72176
316.18        42.42553
316.63         42.0804
317.08        41.71847
317.53        41.35475
317.99        40.99183
318.44        40.64251
318.89        40.33691
319.35        40.08714
319.80        39.89168
320.25        39.73903
320.70        39.60272
321.16        39.46326
321.61         39.3288
322.06        39.19398
322.51        39.06014
322.97        38.91591
323.42        38.76757
323.87        38.59721
324.32        38.39324
324.78        38.15032
325.23        37.88904
325.68        37.61777
326.13        37.35725
326.59         37.1049
327.04        36.87371
327.49        36.65104
327.94        36.42622
328.39        36.19629
328.85        35.95591
329.30        35.73006
329.75        35.51421
330.20        35.31362
330.66        35.12193
331.11         34.9586
331.56        34.81445
332.01        34.68908
332.46        34.58007
332.92        34.48146
333.37        34.42332
333.82        34.39445
334.27        34.39399
334.72        34.39697
335.17        34.36499
335.63        34.27522
336.08        34.14582
336.53           34.01
336.98        33.94083
337.43         33.9502
337.88        34.02383
338.34        34.06903
338.79        33.95475
339.24        33.65005
339.69        33.20338
340.14        32.75685
340.59         32.5323
341.05         32.5706
341.50        32.81288
341.95        33.11215
342.40        33.22834
342.85        33.10445
343.30        32.82598
343.75         32.5128
344.20        32.35005
344.66        32.38722
345.11        32.54539
345.56         32.7694
346.01        32.96839
346.46         33.0977
346.91        33.18418
347.36        33.20816
347.81        33.13699
348.26        32.98006
348.72        32.75954
349.17        32.50945
349.62        32.33075
350.07         32.2441
350.52        32.21587
350.97        32.22116
351.42        32.20945
351.87         32.1651
352.32        32.12291
352.77        32.03865
353.22        31.84619
353.67        31.54818
354.13        31.16159
354.58        30.80625
355.03        30.70821
355.48        30.89747
355.93        31.32138
356.38         31.7553
356.83        31.81973
357.28        31.44506
357.73        30.76267
358.18        30.06337
358.63        29.77958
359.08        29.98927
359.53        30.54217
359.98        31.18991
360.43        31.51233
360.88        31.38576
361.33         30.9561
361.78        30.38919
362.23        29.92396
362.68        29.63524
363.13        29.44325
363.58        29.31246
364.03        29.19827
364.48        29.07374
364.93        28.95971
365.38        28.84541
365.83         28.6972
366.28        28.50947
366.73         28.2938
367.18        28.04165
367.63        27.75115
368.08        27.44118
368.53        27.12035
368.98         26.8554
369.43        26.74179
369.88         26.7831
370.33        26.94351
370.78        27.12256
371.23        27.14236
371.68        26.95311
372.13        26.61115
372.58        26.20239
373.03        25.85759
373.48        25.61604
373.93        25.44065
374.38        25.31412
374.83        25.20858
375.28        25.11116
375.72        25.03599
376.17        24.97211
376.62        24.88791
377.07        24.77601
377.52        24.63424
377.97        24.48178
378.42         24.3559
378.87        24.26263
379.32        24.19098
379.77        24.11463
380.22        23.99154
380.67        23.81602
381.11        23.60945
381.56        23.39995
382.01        23.23965
382.46         23.1462
382.91         23.1053
383.36        23.09451
383.81        23.08039
384.26        23.04502
384.71        22.98594
385.15        22.90576
385.60        22.82965
386.05        22.75537
386.50        22.68643
386.95        22.59048
387.40        22.42044
387.85        22.18532
388.29        21.89555
388.74        21.66503
389.19        21.58733
389.64        21.66946
390.09        21.86313
390.54        22.07923
390.98         22.1704
391.43        22.10919
391.88        21.94842
392.33        21.74103
392.78        21.57203
393.23        21.46716
393.67        21.36394
394.12        21.28942
394.57        21.30512
395.02        21.37477
395.47        21.35347
395.91        21.25489
396.36        21.21525
396.81         21.2459
397.26        21.26537
397.71        21.25219
398.15        21.22809
398.60        21.21588
399.05        21.12288
399.50         20.9965
399.95        21.05831
400.39        21.24565
400.84        21.16785
401.29         20.8411
401.74        20.63387
402.18        20.57226
402.63        20.43916
403.08        20.25817
403.53        20.15662
403.97        20.13786
404.42        20.17347
404.87        20.21187
405.32        20.17069
405.76         20.0315
406.21        19.82759
406.66        19.62356
407.11        19.52322
407.55        19.55377
408.00        19.68435
408.45         19.8453
408.90        19.88564
409.34         19.7812
409.79        19.62568
410.24        19.47656
410.68        19.37177
411.13        19.33431
411.58        19.36202
412.03        19.41917
412.47        19.43518
412.92         19.3868
413.37        19.30188
413.81        19.20788
414.26        19.15968
414.71        19.16054
415.15        19.19747
415.60        19.23045
416.05        19.21606
416.49        19.14307
416.94        19.02801
417.39        18.90278
417.83        18.81533
418.28        18.77899
418.73        18.77736
419.17        18.79103
419.62        18.78214
420.07        18.74562
420.51        18.69368
420.96        18.64832
421.41        18.61605
421.85        18.59478
422.30        18.58586
422.74        18.59288
423.19         18.6424
423.64        18.72777
424.08        18.84839
424.53        18.94687
424.98        18.95288
425.42         18.8567
425.87        18.68954
426.31        18.50352
426.76        18.39038
427.21        18.36644
427.65        18.39748
428.10          18.481
428.54        18.60536
428.99        18.75658
429.44        18.96168
429.88        19.11652
430.33        19.07708
430.77        18.83926
431.22        18.47451
431.66        18.12176
432.11        18.03586
432.56        18.19927
433.00         18.4568
433.45         18.6218
433.89        18.41168
434.34        17.80897
434.78        17.81155
435.23        18.49609
435.67        18.74354
436.12        18.55684
436.57        18.51908
437.01        18.65323
437.46        18.68426
437.90        18.60299
438.35        18.51398
438.79        18.42789
439.24        18.31329
439.68        18.21204
440.13        18.25982
440.57        18.39594
441.02         18.4449
441.46        18.39108
441.91        18.20927
442.35        17.98297
442.80        18.14108
443.24        18.54781
443.69        18.46735
444.13        17.97501
444.58        17.81678
445.02        18.00573
445.47        18.14018
445.91        18.18264
446.36        18.26454
446.80        18.37116
447.24        18.46732
447.69        18.53775
448.13        18.56038
448.58        18.53514
449.02        18.46592
449.47        18.39192
449.91        18.35922
450.36        18.38419
450.80         18.4529
451.25         18.5247
451.69        18.52124
452.13        18.43086
452.58        18.27957
453.02        18.12149
453.47        18.05353
453.91        18.09219
454.36        18.21285
454.80        18.34623
455.24        18.38162
455.69        18.29992
456.13        18.12601
456.58         17.9485
457.02        17.87508
457.46        17.93269
457.91        18.08628
458.35        18.24933
458.79        18.26008
459.24        18.10166
459.68        17.87599
460.13        17.70885
460.57        17.43009
461.01        17.57358
461.46         17.7085
461.90        17.90914
462.34        17.97389
462.79        17.96674
463.23        17.84329
463.68        17.69734
464.12        17.63843
464.56        17.69239
465.01         17.8413
465.45        17.98274
465.89        18.00374
466.34        17.89287
466.78        17.68347
467.22        17.45829
467.67        17.38946
468.11        17.44391
468.55        17.63916
468.99        17.87665
469.44        18.03864
469.88        18.09491
470.32        18.07364
470.77        18.02354
471.21        18.02184
471.65        18.08721
472.10        18.19218
472.54        18.28865
472.98        18.31717
473.42        18.26852
473.87          18.178
474.31        18.07545
474.75        18.02244
475.20        18.03822
475.64        18.09026
476.08        18.15394
476.52        18.23721
476.97        18.33745
477.41        18.36845
477.85         18.2951
478.29        18.57802
478.74        18.41919
479.18        18.42987
479.62        18.39654
480.06        18.47011
480.50         18.6649
480.95        18.60352
481.39        18.88466
481.83        18.92589
482.27        18.91197
482.72        18.85871
483.16        18.81122
483.60        18.83545
484.04        18.91895
484.48        19.07024
484.93        19.33868
485.37        19.49447
485.81        19.42895
486.25         19.9703
486.69        19.31031
487.14        18.87981
487.58        19.37246
488.02        19.86626
488.46        19.81798
488.90        20.08044
489.34        19.81831
489.79        19.64565
490.23        20.19492
490.67        20.55715
491.11        20.86434
491.55        20.83505
491.99          20.564
492.43        20.52997
492.88        20.76704
493.32        20.95635
493.76        21.06104
494.20        21.20789
494.64        21.39602
495.08         21.5661
495.52        21.70978
495.96        21.88956
496.41        22.08123
496.85        22.11549
497.29        22.05334
497.73        22.22039
498.17        22.59135
498.61        22.79725
499.05        22.81841
499.49        22.91894
499.93        23.09914
500.37        23.19653
500.82        23.23262
501.26        23.32017
501.70        23.46902
502.14        23.64512
502.58        23.81056
503.02         23.9077
503.46        23.92694
503.90        23.89346
504.34        23.85148
504.78        23.86865
505.22         23.9639
505.66        24.11765
506.10        24.29386
506.54        24.43235
506.98        24.51324
507.42        24.55225
507.86        24.57288
508.30        24.61158
508.74        24.67861
509.18        24.76261
509.62        24.84379
510.06        24.89167
510.50        24.90063
510.94        24.88318
511.38        24.86518
511.82        24.88622
512.26        24.95246
512.70        25.04652
513.14        25.14214
513.58        25.19827
514.02        25.20495
514.46        25.17956
514.90        25.13246
515.34        25.08086
515.78         25.0354
516.22        24.99046
516.66        24.96445
517.10        24.98573
517.54        25.05506
517.98        25.16494
518.42        25.27689
518.86        25.32538
519.30         25.2966
519.74        25.20943
520.18        25.10456
520.62        25.04906
521.06        25.05709
521.50        25.10271
521.93         25.1587
522.37        25.17526
522.81         25.1405
523.25        25.07626
523.69        24.98566
524.13        24.87153
524.57        24.74392
525.01        24.60255
525.45        24.47997
525.89        24.42777
526.32        24.45172
526.76        24.53522
527.20        24.63083
527.64        24.65912
528.08        24.60234
528.52        24.48709
528.96        24.35248
529.40        24.26159
529.83        24.22714
530.27        24.22963
530.71        24.25094
531.15        24.27011
531.59        24.27544
532.03        24.27461
532.46        24.24911
532.90        24.17396
533.34        24.05286
533.78        23.87939
534.22        23.69365
534.66        23.59715
535.09        23.57974
535.53        23.54216
535.97         23.4765
536.41        23.45312
536.85        23.46859
537.28        23.47786
537.72        23.48049
538.16        23.50036
538.60         23.5365
539.04        23.57759
539.47        23.62134
539.91        23.67997
540.35        23.74889
540.79         23.8396
541.22        23.94182
541.66        24.00239
542.10        24.08086
542.54        24.13252
542.97        24.19821
543.41        24.32779
543.85        24.52095
544.29        24.76091
544.72        25.00383
545.16        25.19457
545.60        25.31715
546.04        25.38821
546.47        25.44237
546.91        25.54156
547.35        25.70101
547.79        25.89277
548.22        26.07476
548.66        26.24011
549.10        26.38321
549.53        26.39562
549.97        26.53528
550.41        26.67018
550.84         26.8761
551.28        27.13526
551.72        27.41824
552.15        27.65041
552.59        27.82745
553.03        28.00234
553.46        28.16206
553.90        28.30433
554.34        28.43382
554.77        28.50679
555.21        28.51653
555.65        28.76432
556.08        28.71349
556.52         28.8142
556.96        28.90029
557.39        28.99594
557.83        29.10823
558.27        29.19156
558.70          29.254
559.14        29.45067
559.57        29.51687
560.01        29.70596
560.45        29.87421
560.88        29.89494
561.32        29.82573
561.75        29.71396
562.19         29.6571
562.63        29.91063
563.06        30.36011
563.50        30.40474
563.93        30.09593
564.37        30.07038
564.80        30.33354
565.24         30.5331
565.68        30.63862
566.11        30.77246
566.55        30.93793
566.98        31.08553
567.42        31.23064
567.85        31.37508
568.29        31.53284
568.72        31.67563
569.16        31.82183
569.60         31.9466
570.03         32.0355
570.47        32.07626
570.90        32.32949
571.34        32.17945
571.77        32.42411
572.21        32.49936
572.64        32.65354
573.08        32.69401
573.51        33.22128
573.95        33.33148
574.38        32.99415
574.82        33.15866
575.25         33.3765
575.69        33.50952
576.12         33.4429
576.56        33.49881
576.99        33.89973
577.42        33.58411
577.86        33.60198
578.29         33.6418
578.73        33.76793
579.16        33.37829
579.60        32.92827
580.03        32.89842
580.47         33.1638
580.90        32.64191
581.33         33.0355
581.77         33.0986
582.20        33.05352
582.64        32.60122
583.07        32.58805
583.51        32.34149
583.94        32.25612
584.37        32.33595
584.81        32.50683
585.24        32.36361
585.68        31.98243
586.11        31.66417
586.54        31.68503
586.98        31.39689
587.41         31.3395
587.85        31.66403
588.28        31.40481
588.71        30.99483
589.15        31.46271
589.58         31.2107
590.01        31.32726
590.45        31.25051
590.88        31.22034
591.31        31.22876
591.75        31.29205
592.18        31.26259
592.61        31.05044
593.05        31.62613
593.48        31.22755
593.91        31.30455
594.35        31.44267
594.78        31.56502
595.21        31.68341
595.65        31.81916
596.08        31.94364
596.51        32.20654
596.94        32.15984
597.38        32.35688
597.81        32.68516
598.24         32.7056
598.68        33.38562
599.11        33.32179
599.54        33.90201
599.97        34.21201
600.41        34.37695
600.84          35.018
601.27        35.18489
601.70        35.77911
602.14        36.24102
602.57        36.50626
603.00        36.72301
603.43        36.87624
603.87        37.30632
604.30        37.86985
604.73        38.02668
605.16         38.4602
605.60        38.94297
606.03        39.43122
606.46        39.81283
606.89        40.08705
607.32        40.38705
607.76         40.6629
608.19        40.94283
608.62        41.54541
609.05        41.90824
609.48        42.22641
609.92        42.13743
610.35        42.42245
610.78        43.23543
611.21        43.67958
611.64        43.82465
612.07        44.05451
612.50        44.38725
612.94        44.57925
613.37        44.67976
613.80        44.82881
614.23        45.00007
614.66         45.4963
615.09        45.58585
615.52        45.87437
615.96        46.11681
616.39        46.59166
616.82        46.72928
617.25        47.05622
617.68        47.35961
618.11         47.4848
618.54        47.43633
618.97        47.35655
619.40        47.35406
619.84        47.40107
620.27        47.51946
620.70        47.97479
621.13        48.68547
621.56        48.37981
621.99        48.33441
622.42            48.4
622.85        48.78383
623.28        48.69105
623.71         48.3783
624.14        48.92606
624.57        48.68966
625.00        48.81872
625.43        48.78214
625.86        48.75347
626.29        48.71375
626.72        48.46146
627.15        48.34366
627.58        48.05583
628.01         47.7493
628.44        47.57133
628.87        47.49434
629.30        47.32041
629.73        47.05063
630.16        46.82788
630.59        46.64122
631.02        46.40578
631.45        46.10798
631.88         45.7677
632.31        45.38813
632.74        44.96613
633.17        44.54002
633.60        44.17096
634.03        43.87013
634.46        43.62158
634.89        43.38359
635.32        43.08578
635.75         42.7114
636.18        42.28428
636.61        41.83517
637.04        41.41237
637.47        41.03408
637.89        40.67872
638.32        40.32286
638.75        39.99571
639.18        39.70543
639.61        39.29226
640.04        39.06125
640.47        38.78171
640.90        38.54325
641.33        38.33011
641.76        38.13223
642.18        37.98729
642.61        37.89631
643.04        37.77028
643.47        37.58113
643.90        37.81602
644.33         37.6573
644.76        37.69745
645.18        37.71626
645.61        37.89515
646.04        38.17389
646.47         38.2529
646.90        38.16756
647.33        38.24642
647.75        38.51453
648.18        38.74181
648.61        38.94682
649.04         39.3162
649.47        39.79468
649.89        40.22308
650.32        40.57492
650.75        40.80355
651.18        40.99757
651.61        41.56374
652.03        42.45967
652.46        42.97307
652.89        43.05791
653.32        43.43419
653.74        44.23869
654.17        44.11202
654.60        44.62997
655.03        45.43824
655.46         45.2477
655.88        46.23324
656.31        51.23858
656.74        49.71919
657.16        45.93646
657.59         45.6268
658.02        47.34994
658.45        48.41476
658.87        49.06522
659.30        48.49001
659.73        48.93298
660.15        50.02925
660.58        49.74755
661.01        50.00632
661.44        50.12254
661.86         50.4975
662.29        51.05686
662.72        51.40108
663.14        51.53141
663.57        51.66318
664.00        51.82739
664.42        51.91664
664.85        51.95636
665.27        51.99742
665.70         52.0682
666.13         52.1865
666.55        52.36641
666.98        52.59843
667.41        52.86794
667.83        53.13696
668.26        53.36119
668.69        53.58164
669.11        53.80504
669.54        53.93186
669.96        53.92618
670.39        54.28555
670.82        54.07546
671.24        54.13728
671.67         54.1998
672.09        54.25019
672.52        54.28814
672.94        54.30369
673.37        54.31072
673.80        54.30499
674.22         54.3161
674.65        54.36014
675.07        54.45808
675.50        54.59229
675.92        54.74785
676.35        54.90411
676.77        55.04987
677.20        55.15749
677.62        55.25284
678.05        55.40114
678.47        55.54207
678.90        55.72135
679.32        55.49396
679.75        55.50201
680.17        55.61839
680.60        55.71411
681.02        55.78738
681.45        55.88365
681.87        56.01053
682.30        56.17026
682.72         56.3401
683.15        56.38293
683.57        56.32885
684.00         56.3494
684.42        56.45665
684.85        56.54132
685.27        56.59132
685.70        56.69682
686.12        56.82963
686.54        56.88108
686.97        56.84766
687.39        56.88734
687.82        56.97443
688.24        56.88376
688.66        56.69031
689.09        56.78456
689.51        57.16136
689.94        57.41971
690.36        57.53637
690.78        57.75884
691.21        58.07393
691.63        58.25057
692.06        58.33239
692.48        58.61767
692.90        59.02968
693.33         59.2056
693.75         59.1234
694.17        58.90876
694.60        58.69862
695.02         58.6884
695.44         58.8633
695.87        59.08479
696.29        59.26009
696.71        59.13274
697.14         58.8291
697.56        58.94602
697.98         59.4417
698.41        59.71559
698.83         59.7396
699.25        59.87489
699.68        60.10153
700.10        60.26487
700.52        60.34781
700.94        60.35043
701.37        60.31599
701.79        60.43362
702.21        60.65705
702.64        60.77578
703.06        60.76777
703.48        60.71189
703.90        60.60711
704.33        60.62886
704.75        60.38704
705.17        60.32852
705.59        60.34671
706.01        60.40926
706.44        60.54218
706.86        60.78294
707.28        61.09885
707.70        61.56055
708.12        62.03024
708.55        62.06516
708.97         61.7367
709.39        61.62098
709.81        61.76068
710.23        61.77105
710.66        61.66398
711.08        61.72007
711.50        61.90413
711.92        62.02717
712.34        62.06931
712.76        62.09158
713.19         62.0927
713.61        62.11079
714.03         62.1389
714.45        62.16047
714.87        62.19616
715.29        62.28595
715.71        62.43242
716.13        62.62598
716.56        62.80484
716.98        62.94177
717.40        62.99228
717.82        62.97052
718.24        62.92612
718.66        62.94197
719.08        63.03684
719.50        63.18551
719.92        63.33718
720.34        63.41039
720.76        63.38503
721.19        63.28767
721.61        63.17208
722.03        63.11316
722.45         63.1395
722.87        63.24257
723.29        63.37811
723.71        63.47325
724.13        63.50639
724.55        63.48279
724.97        63.47809
725.39        63.61454
725.81        63.90274
726.23        64.30001
726.65        64.65498
727.07        64.72615
727.49         64.4777
727.91        64.00105
728.33        63.49023
728.75         63.2534
729.17        63.36416
729.59        63.72081
730.01        64.18736
730.43        64.52531
730.85        64.65163
731.27        64.65103
731.69        64.55272
732.10        64.40131
732.52        64.23404
732.94        64.02194
733.36         63.8534
733.78        63.87236
734.20        64.09816
734.62        64.54459
735.04        65.06165
735.46        65.28248
735.88        65.22913
736.30        65.22592
736.72        65.30054
737.13        65.43684
737.55        65.55317
737.97        65.29771
738.39        64.82585
738.81        64.93787
739.23        65.55667
739.65        65.74947
740.06          65.467
740.48        65.43616
740.90        65.63502
741.32        65.69389
741.74        65.59979
742.16        65.52961
742.57        65.50023
742.99          65.479
743.41        65.51779
743.83        65.61725
744.25        65.80752
744.67         66.2255
745.08        66.73889
745.50        66.90464
745.92        66.67083
746.34        66.21082
746.75        65.68372
747.17        65.31187
747.59        65.15841
748.01        65.22996
748.42        65.43433
748.84        65.51646
749.26        65.50522
749.68        65.53986
750.09        65.66235
750.51        66.10542
750.93        66.67937
751.35        66.63918
751.76        66.11221
752.18        65.99051
752.60        66.34203
753.01        66.67451
753.43        66.87016
753.85        67.01658
754.27        67.08423
754.68         67.0479
755.10        66.98102
755.52        67.00298
755.93        67.13864
756.35        67.31472
756.77         67.4464
757.18        67.49387
757.60        67.49365
758.02        67.05206
758.43        66.97131
758.85        66.75879
759.26        66.81911
759.68        66.42577
760.10        66.88798
760.51        67.66158
760.93        67.49236
761.34        67.42347
761.76        67.11069
762.18        66.62141
762.59        66.21472
763.01        66.56843
763.42        67.54856
763.84        67.99795
764.26        67.81892
764.67        67.45562
765.09        67.15618
765.50        67.28058
765.92        67.74413
766.33        67.72208
766.75        67.18099
767.16        67.10894
767.58        67.52616
768.00        67.67072
768.41        67.64286
768.83          68.302
769.24        69.38495
769.66        69.72821
770.07         69.3217
770.49        68.82325
770.90        68.46233
771.32        68.51079
771.73        68.87791
772.15        68.90975
772.56        68.58559
772.97          68.379
773.39        68.35036
773.80        68.39078
774.22        68.47889
774.63        68.69669
775.05        68.94556
775.46        69.12532
775.88        69.17586
776.29        69.14353
776.70        69.07355
777.12        69.07182
777.53        69.17316
777.95        69.31362
778.36         69.4508
778.77        69.46002
779.19        69.32329
779.60        69.20086
780.02        69.10638
780.43        68.85644
780.84        68.61089
781.26        68.75224
781.67         69.2154
782.09        69.75265
782.50        70.10468
782.91        69.69442
783.33         68.7717
783.74        68.45729
784.15        68.87241
784.57        69.34853
784.98         69.7907
785.39        70.28912
785.81        70.77388
786.22        71.00011
786.63        71.32294
787.04        71.33095
787.46        71.17594
787.87        70.83047
788.28        70.48843
788.70        70.38026
789.11        70.52149
789.52        70.99174
789.93        71.56347
790.35        71.57279
790.76        71.07956
791.17        70.78706
791.58        70.80385
792.00        70.74219
792.41        70.64393
792.82          70.812
793.23        71.12603
793.65        71.19988
794.06        71.00789
794.47        70.68625
794.88        70.40553
795.29        70.37653
795.71        70.57426
796.12         71.0263
796.53        71.54924
796.94        71.79291
797.35        71.63937
797.76        71.21208
798.18        70.72068
798.59        70.45043
799.00         70.4889
799.41        70.73029
799.82        71.08878
800.23        71.42228
800.64        71.66235
801.06        71.83878
801.47          71.942
801.88        71.85253
802.29        71.57439
802.70        71.13215
803.11        70.68842
803.52        70.51511
803.93        70.68208
804.34        71.11953
804.75        71.67282
805.17        72.10987
805.58        72.38783
805.99        72.33958
806.40        72.06634
806.81        72.23296
807.22        72.66348
807.63        72.19395
808.04        71.04962
808.45        70.62373
808.86         71.0396
809.27        71.57032
809.68        72.00986
810.09        72.31447
810.50        72.38816
810.91        72.25233
811.32         71.9972
811.73        71.78004
812.14        71.66825
812.55        71.61932
812.96        71.66661
813.37        71.86271
813.78        72.19048
814.19        72.62577
814.60        73.06076
815.01        73.32532
815.42        73.37857
815.83        73.25578
816.24        73.00504
816.65        72.74144
817.05        72.52933
817.46        72.32573
817.87        72.17427
818.28        72.08411
818.69        72.04887
819.10        72.07964
819.51        72.14503
819.92        72.17481
820.33        72.14554
820.74        72.06514
821.14        71.96279
821.55        71.91719
821.96        71.93716
822.37        72.02605
822.78        72.15055
823.19        72.24701
823.60         72.3045
824.00        72.35612
824.41        72.44285
824.82        72.74257
825.23        73.26266
825.64        73.92171
826.04        74.56905
826.45        74.87757
826.86        74.79092
827.27        74.40408
827.68          73.825
828.08        73.26151
828.49        72.77132
828.90        72.32294
829.31        71.98711
829.72        71.85703
830.12        71.97497
830.53        72.31669
830.94        72.71893
831.35        72.82278
831.75        72.56771
832.16          71.995
832.57        71.45824
832.97        71.50062
833.38         72.1933
833.79        73.34705
834.20        74.55724
834.60        75.13305
835.01        74.86279
835.42        74.00785
835.82         72.8981
836.23        72.03714
836.64        71.60023
837.04        71.45777
837.45        71.53775
837.86        71.78085
838.26         72.1307
838.67        72.57725
839.08        73.01789
839.48        73.23692
839.89        73.17336
840.29        72.87823
840.70        72.46153
841.11        72.08231
841.51        71.82544
841.92          71.639
842.33        71.58492
842.73        71.76328
843.14        72.12234
843.54        72.67918
843.95        73.26765
844.35        73.67529
844.76        73.79604
845.17        73.67089
845.57        73.40427
845.98        73.16328
846.38        73.02621
846.79        72.94371
847.19         72.8745
847.60        72.66927
848.00        72.33657
848.41        71.91704
848.81        71.56871
849.22        71.50165
849.62        71.76202
850.03        72.24852
850.43         72.7803
850.84          72.901
851.24        72.57286
851.65         71.9029
852.05        71.19051
852.46        70.89851
852.86        71.12017
853.27         71.6746
853.67        72.34996
854.07        73.05183
854.48        73.66045
854.88        74.33173
855.29        74.75317
855.69        74.61542
856.10        73.76483
856.50        72.40704
856.90        71.02501
857.31        70.32534
857.71          70.447
858.12         71.1716
858.52        72.21217
858.92        72.78582
859.33        72.61808
859.73        71.97585
860.13        71.09998
860.54        70.40137
860.94        70.02187
861.34         69.8196
861.75        69.74564
862.15        69.78702
862.55        69.89317
862.96        70.07919
863.36        70.31257
863.76        70.42889
864.17        70.39235
864.57        70.25405
864.97         70.0649
865.38        69.93368
865.78        69.92081
866.18        69.96041
866.58        70.04736
866.99        70.17554
867.39        70.35302
867.79        70.57143
868.19        70.72269
868.60        70.61164
869.00        70.22152
869.40        69.62695
869.80        69.05001
870.21        68.89951
870.61        69.32794
871.01        70.12594
871.41        71.01885
871.81        71.60079
872.22         71.7462
872.62        71.57472
873.02        71.17396
873.42        70.68761
873.82        70.22366
874.22         69.7939
874.63        69.46458
875.03        69.33987
875.43        69.44305
875.83        69.73186
876.23        70.22501
876.63        70.93775
877.03        71.80228
877.44        72.74413
877.84        73.52591
878.24        73.71295
878.64        73.23757
879.04        72.26431
879.44        71.11861
879.84        70.29939
880.24        69.94456
880.64        69.92574
881.04        70.13531
881.44        70.37097
881.84         70.5623
882.24        70.80836
882.65        71.02833
883.05        71.17393
883.45        71.19203
883.85        71.05426
884.25        70.95145
884.65        71.20065
885.05        71.83981
885.45        72.78395
885.85        73.71857
886.25        74.09534
886.65        73.77663
887.05        72.92421
887.45        71.92363
887.85        71.38024
888.25        71.44917
888.65         71.9653
889.04        72.60211
889.44        72.80409
889.84        72.44463
890.24        71.69547
890.64        70.88268
891.04        70.46027
891.44        70.53278
891.84        70.99524
892.24         71.5182
892.64        71.55627
893.04        71.00937
893.44        70.06033
893.83        69.20151
894.23        69.18567
894.63        70.11292
895.03        71.74024
895.43         73.4805
895.83         74.2638
896.23        73.81135
896.63        72.53019
897.02        70.96747
897.42        70.00888
897.82        69.80267
898.22        70.12206
898.62        70.76427
899.01        71.41389
899.41        71.87383
899.81        72.27319
900.21        72.66496
900.61        73.11562
901.00        73.61691
901.40        74.05727
901.80        74.33056
902.20        74.31334
902.59        74.01009
902.99        73.50601
903.39        72.92904
903.79        72.47518
904.18        72.19946
904.58        72.06155
904.98        72.06384
905.38        72.21107
905.77        72.46835
906.17        72.86829
906.57        73.21227
906.96        73.18893
907.36        72.74019
907.76        71.96277
908.15        71.22343
908.55        71.07729
908.95        71.65842
909.34        72.80604
909.74        74.07762
910.14        74.82349
910.53        74.84575
910.93        74.32374
911.33        73.57819
911.72        73.11835
912.12        73.10628
912.52        73.38284
912.91        73.69277
913.31        73.61868
913.70        73.08657
914.10        72.27711
914.49        71.49413
914.89        71.16547
915.29        71.38766
915.68        71.99772
916.08        72.75347
916.47        73.27331
916.87        73.42201
917.26        73.32364
917.66        73.07587
918.05        72.82011
918.45        72.61484
918.84        72.45055
919.24        72.35556
919.64        72.46812
920.03        72.81741
920.42        73.34148
920.82         73.9386
921.21        74.47868
921.61         74.8724
922.00        75.12801
922.40        75.20345
922.79        75.12085
923.19        74.88628
923.58        74.53811
923.98        74.06352
924.37        73.36745
924.77        72.50736
925.16         71.5207
925.55        70.67853
925.95        70.40083
926.34         70.8132
926.74        71.76469
927.13        72.98052
927.52        73.91154
927.92        74.37492
928.31        74.48724
928.70        74.42527
929.10        74.53603
929.49        74.92105
929.89        75.43632
930.28        75.88189
930.67        75.90363
931.07        75.41975
931.46        74.56911
931.85        73.63811
932.24         73.0817
932.64        73.02552
933.03        73.38697
933.42        73.85448
933.82        73.95654
934.21        73.59045
934.60        72.88395
934.99        72.21997
935.39        72.14522
935.78        72.79859
936.17        74.03855
936.56        75.34946
936.96         75.8051
937.35        75.20702
937.74        73.80706
938.13        72.29674
938.53        71.59184
938.92        71.82587
939.31        72.78934
939.70        73.95284
940.09        74.35273
940.49        73.74146
940.88        72.46851
941.27        71.13564
941.66        70.63026
942.05        71.15725
942.44        72.45161
942.84        74.01662
943.23        75.02899
943.62        75.12984
944.01        74.57597
944.40         73.7609
944.79        73.31022
945.18        73.39968
945.57        73.80354
945.97        74.27336
946.36         74.5379
946.75        74.47337
947.14        74.20509
947.53        73.83466
947.92        73.51195
948.31        73.30377
948.70        73.16676
949.09        73.07016
949.48        72.96332
949.87        72.85056
950.26        72.79613
950.65        72.83527
951.04          73.018
951.43        73.33485
951.82         73.6865
952.21        74.09076
952.60        74.61501
952.99        75.20543
953.38        75.80263
953.77        76.13253
954.16        75.72488
954.55        74.55921
954.94        72.92458
955.33        71.20663
955.72        69.97501
956.11        69.40755
956.50        69.31307
956.89        69.72475
957.28        70.68184
957.66        72.12209
958.05        73.91023
958.44        75.51055
958.83        75.88953
959.22        74.85363
959.61         72.7934
960.00        70.48077
960.39        69.03357
960.78        68.71703
961.16        69.24368
961.55         70.2933
961.94        71.41434
962.33        72.36739
962.72        73.29453
963.11        73.98618
963.49        74.07021
963.88          73.457
964.27        72.27742
964.66        70.93886
965.04        70.03433
965.43        69.67799
965.82        69.73471
966.21         70.0254
966.60        70.17975
966.98        70.08352
967.37        69.85473
967.76        69.59032
968.15        69.41122
968.53        69.37344
968.92        69.39042
969.31        69.48473
969.69        69.74038
970.08        70.10442
970.47        70.53683
970.86        70.92106
971.24        71.05424
971.63        70.83133
972.02        70.38881
972.40        69.75858
972.79        69.02827
973.17        68.30637
973.56        67.60283
973.95        67.13725
974.33        67.24258
974.72        67.90776
975.11        69.02361
975.49        70.37489
975.88        71.45816
976.26        72.09589
976.65        72.30677
977.04        72.07281
977.42        71.36514
977.81        70.27415
978.19        68.83604
978.58        67.68915
978.96        67.56331
979.35        68.55991
979.74        70.54613
980.12        73.09206
980.51        74.69245
980.89        75.03201
981.28        74.34011
981.66        73.15972
982.05        72.51187
982.43        72.65706
982.82        73.25285
983.20         74.2409
983.59        75.34531
983.97        76.49969
984.35        77.72013
984.74        78.60235
985.12        78.62644
985.51        77.69812
985.89         75.9483
986.28        74.01402
986.66        72.76885
987.04         72.5698
987.43        73.18644
987.81        74.18712
988.20        74.61033
988.58        74.24199
988.96        73.23821
989.35        72.19242
989.73        72.01579
990.12        72.83757
990.50        74.39514
990.88        75.84134
991.27        75.84702
991.65        74.23901
992.03        71.51285
992.42        68.67988
992.80        67.02982
993.18        66.99934
993.56        68.14552
993.95        69.83051
994.33        71.24241
994.71        71.84505
995.10        71.93406
995.48        71.57489
995.86        70.86018
996.24        69.95611
996.63        68.82938
997.01        67.76871
997.39        67.22085
997.77        67.27626
998.15        67.88406
998.54        68.83253
998.92        69.69424
999.30        70.27708
999.68        70.61903
1000.06        70.82502
1000.45        71.06861
1000.83        71.51646
1001.21        72.02863
1001.59        72.34854
1001.97        72.08878
1002.35         71.1873
1002.73        69.77715
1003.12        68.37085
1003.50        67.72477
1003.88        68.02343
1004.26        69.05442
1004.64         70.1895
1005.02        70.47498
1005.40        69.74532
1005.78        68.28757
1006.16        66.73064
1006.54        66.20503
1006.92        66.99836
1007.30        68.67294
1007.69        70.54363
1008.07        71.74443
1008.45        71.88796
1008.83        71.31818
1009.21        70.23772
1009.59        68.97423
1009.97        67.75774
1010.35        66.50867
1010.73        65.58913
1011.11        65.63445
1011.49         66.8399
1011.86        69.34005
1012.24        72.40079
1012.62        74.97346
1013.00        76.59828
1013.38        77.30067
1013.76        77.64474
1014.14         78.8635
1014.52        81.20341
1014.90        84.16559
1015.28        86.60783
1015.66        86.57522
1016.04         83.9858
1016.41        80.11886
1016.79        76.28457
1017.17        73.35995
1017.55        71.21301
1017.93        69.13625
1018.31        67.39829
1018.69        67.12251
1019.06         68.5163
1019.44         71.0617
1019.82        72.87415
1020.20        72.19594
1020.58        68.99388
1020.95        63.20535
1021.33        56.31661
1021.71        52.93003
1022.09        55.59234
1022.46        63.12444
1022.84         72.0643
1023.22        77.51798
1023.60        78.29399
1023.97        75.84655
1024.35        71.64478
1024.73        68.43257
