SpectraSmart Spectrum 2.9.0.0
--------- Device Information -----------
Spectrum Name :  反射率_0
Saving Time :  2024/05/01 16:46:41
Spectro-Module Model Name : SE2030-DUVN
Spectro-Module Serial Number : OS361AC55029948
Wavelength Start : 200
Wavelength End : 1025
Wavelength Unit : Wavelength(nm)
Spectrum Unit : Reflectance(%)
-----------Spectrum Setting ------------
Integration Time : 20ms
Average : 10
Boxcar : 0
Background removal :  enabled
linearity correction :  enabled
SC :  disabled
Intensity correction :  disabled
DWT denoise :  enabled
savitzky-golay :  disabled
FFT :  disabled
Running average :  disabled
Kalman :  disabled
High pass :  disabled
---------------BEGIN--------------------
Wavelength(nm)             Reflectance(%)
200.29               0
200.75        301.0851
201.21        1178.131
201.67       -466.9266
202.13       -173.4769
202.58       -88.18481
203.04       -42.04189
203.50       -16.03351
203.96       -7.721599
204.42       -16.09446
204.88       -63.82203
205.34        -1394.72
205.80        225.5631
206.26        154.0571
206.72        143.9084
207.18        216.9841
207.64       -53.98787
208.10        23.71325
208.55        36.68592
209.01        37.95451
209.47        34.27727
209.93        27.30865
210.39        15.87295
210.85        1.440691
211.31       -16.64672
211.77       -61.96851
212.23        255.3726
212.69        65.05374
213.14        69.06735
213.60        147.4054
214.06       -773.6348
214.52       -138.9849
214.98       -98.67099
215.44       -92.81284
215.90       -111.9931
216.36       -503.2058
216.81        103.5475
217.27        135.1752
217.73       -424.3998
218.19       -131.8591
218.65       -120.8562
219.11        -150.808
219.57       -266.5347
220.02       -698.9627
220.48       -298.9112
220.94       -71.08883
221.40       -18.10324
221.86      -0.7310742
222.32        5.564694
222.77        7.890595
223.23        8.058792
223.69        6.663057
224.15        5.399569
224.61        5.462764
225.06        6.006574
225.52        6.897559
225.98        8.272634
226.44        10.32096
226.90        13.43671
227.36        17.29313
227.81        19.35979
228.27        18.43384
228.73        16.04278
229.19        13.81389
229.65        12.53734
230.10        12.07747
230.56        12.48994
231.02         13.4297
231.48        14.05486
231.93        14.04793
232.39        13.62582
232.85        13.90115
233.31        16.07496
233.77        19.69538
234.22        24.02515
234.68        27.67393
235.14        29.17098
235.60        28.25526
236.05        24.89404
236.51        19.37377
236.97        14.56623
237.43        13.33836
237.88        15.85586
238.34        19.82196
238.80        21.56462
239.26        19.72361
239.71        14.15197
240.17        4.053094
240.63       -7.526088
241.08       -13.85757
241.54       -13.29933
242.00       -9.231291
242.46       -5.443451
242.91       -1.846113
243.37         2.68275
243.83        13.17254
244.28        34.80564
244.74        53.16662
245.20        60.90039
245.66        61.40018
246.11        57.81704
246.57        50.66971
247.03        37.65536
247.48        14.12028
247.94       -17.60888
248.40       -44.24005
248.85       -60.40392
249.31       -57.58105
249.77       -36.65553
250.22       -10.12326
250.68        14.55149
251.14        31.85054
251.59        38.93921
252.05        36.81188
252.51        22.45035
252.96       -18.33082
253.42         -81.006
253.88       -79.83053
254.33       -24.86109
254.79        11.17495
255.25        26.17439
255.70        31.75901
256.16         34.5114
256.62        36.31312
257.07        38.03221
257.53        39.86311
257.99        41.23717
258.44        42.12532
258.90        42.85458
259.35        43.24663
259.81        43.59725
260.27        43.61884
260.72        42.96335
261.18        41.96398
261.63        40.66781
262.09        39.54801
262.55         38.8363
263.00        38.41965
263.46        38.19795
263.91        37.92052
264.37        37.48503
264.83        36.83989
265.28        36.10148
265.74        35.30461
266.19        34.28949
266.65        33.17789
267.11        31.95557
267.56        30.92023
268.02        30.62116
268.47         31.0748
268.93        32.05796
269.38        33.09972
269.84        33.37096
270.30        32.70527
270.75        31.36073
271.21         29.7629
271.66        28.45539
272.12        27.66327
272.57        27.17136
273.03          26.915
273.48        26.75098
273.94        26.61883
274.39        26.54917
274.85        26.47474
275.31        26.23854
275.76        25.81508
276.22        25.27054
276.67        24.66187
277.13        24.16453
277.58        23.76144
278.04         23.4362
278.49        23.11505
278.95        22.78277
279.40        22.39484
279.86        22.01291
280.31        21.60938
280.77        21.20723
281.22         20.7866
281.68         20.3929
282.13        20.01685
282.59        19.70966
283.04        19.45877
283.50        19.28435
283.95        19.17406
284.41        19.14901
284.86        19.18495
285.32        19.26308
285.77        19.36395
286.22         19.4873
286.68        19.62714
287.13        19.76885
287.59        19.86082
288.04        19.78181
288.50        19.55619
288.95        19.20811
289.41        18.89861
289.86        18.79589
290.32        18.94094
290.77        19.26667
291.22         19.6528
291.68        19.90667
292.13        19.98827
292.59        19.99175
293.04        19.99248
293.50        20.15566
293.95        20.50208
294.40        20.97031
294.86        21.51984
295.31         22.1058
295.77          22.684
296.22        23.25934
296.68        23.76556
297.13        24.09101
297.58        24.24313
298.04        24.28037
298.49        24.30328
298.95        24.50784
299.40        24.92153
299.85        25.48009
300.31        26.11479
300.76        26.72392
301.21        27.26389
301.67        27.76148
302.12        28.16486
302.58         28.4191
303.03        28.50907
303.48        28.47915
303.94        28.42584
304.39         28.4411
304.84        28.57386
305.30        28.79051
305.75        29.06364
306.20        29.36244
306.66        29.66392
307.11        29.95047
307.57        30.18557
308.02        30.26893
308.47        30.20266
308.93        30.02085
309.38        29.77168
309.83        29.58277
310.29        29.49295
310.74        29.46887
311.19        29.47042
311.65         29.4185
312.10         29.2917
312.55        29.12236
313.00         28.9602
313.46        28.87927
313.91        28.88409
314.36         28.9364
314.82        28.97827
315.27        28.93367
315.72        28.77424
316.18         28.5322
316.63         28.2256
317.08        27.88263
317.53        27.52241
317.99        27.15014
318.44        26.78459
318.89        26.47472
319.35        26.23647
319.80        26.05835
320.25        25.93081
320.70        25.82668
321.16        25.72411
321.61        25.63168
322.06        25.51846
322.51        25.34199
322.97        25.09061
323.42         24.7805
323.87         24.4522
324.32        24.18731
324.78        24.00417
325.23        23.89448
325.68        23.80897
326.13        23.66969
326.59         23.4486
327.04        23.17791
327.49        22.88828
327.94        22.64124
328.39        22.45419
328.85        22.30008
329.30        22.15759
329.75           21.97
330.20        21.72284
330.66        21.43092
331.11        21.13291
331.56        20.86638
332.01         20.6488
332.46        20.47391
332.92        20.31852
333.37        20.16912
333.82        20.01074
334.27        19.85125
334.72        19.71547
335.17        19.64638
335.63        19.64099
336.08        19.68995
336.53        19.74475
336.98        19.74041
337.43        19.65904
337.88        19.52206
338.34        19.34529
338.79        19.17022
339.24        19.01235
339.69        18.86111
340.14        18.74036
340.59        18.68697
341.05        18.69138
341.50        18.74468
341.95        18.79339
342.40        18.74764
342.85        18.59501
343.30        18.38171
343.75        18.14741
344.20        17.95378
344.66        17.82878
345.11        17.73801
345.56        17.72619
346.01        17.86045
346.46        18.12463
346.91        18.48096
347.36        18.79302
347.81        18.85557
348.26        18.63928
348.72         18.2244
349.17        17.72821
349.62        17.38032
350.07        17.24506
350.52        17.25237
350.97        17.34319
351.42        17.41291
351.87        17.42303
352.32        17.42352
352.77         17.3853
353.22        17.25912
353.67        17.05135
354.13         16.7708
354.58        16.51093
355.03        16.45011
355.48        16.61382
355.93        16.95807
356.38        17.32699
356.83        17.45285
357.28        17.28081
357.73        16.90299
358.18        16.49852
358.63        16.33717
359.08        16.46888
359.53        16.79181
359.98        17.17525
360.43         17.3967
360.88        17.38748
361.33         17.2388
361.78        16.99912
362.23        16.73335
362.68        16.48085
363.13        16.21419
363.58        16.00809
364.03        15.99267
364.48          16.172
364.93        16.49624
365.38        16.82026
365.83         16.9135
366.28        16.72487
366.73        16.32549
367.18        15.82306
367.63        15.40499
368.08        15.14401
368.53        14.99604
368.98        14.92975
369.43        14.89287
369.88        14.85823
370.33        14.83924
370.78        14.83298
371.23        14.82657
371.68        14.80948
372.13        14.77387
372.58        14.69229
373.03         14.5301
373.48        14.29094
373.93        13.99575
374.38        13.70716
374.83        13.52845
375.28        13.48823
375.72        13.55635
376.17        13.68087
376.62        13.77898
377.07        13.81983
377.52        13.81836
377.97        13.78427
378.42         13.7351
378.87        13.67887
379.32        13.61065
379.77        13.52549
380.22        13.41904
380.67        13.29605
381.11         13.1667
381.56        13.05677
382.01        13.00875
382.46        13.03032
382.91          13.108
383.36        13.19858
383.81        13.23739
384.26        13.20467
384.71        13.10853
385.15        12.98456
385.60        12.90601
386.05        12.88497
386.50        12.91211
386.95        12.93051
387.40        12.85351
387.85        12.67785
388.29        12.42731
388.74        12.22362
389.19        12.19157
389.64        12.34243
390.09        12.61907
390.54         12.9069
390.98        13.02217
391.43        12.92712
391.88        12.69564
392.33        12.41704
392.78        12.22267
393.23        12.14364
393.67        12.11302
394.12        12.12059
394.57        12.16092
395.02        12.20165
395.47        12.17865
395.91         12.1012
396.36        12.04141
396.81        12.01277
397.26        11.96648
397.71        11.91446
398.15        11.90772
398.60        11.95897
399.05        11.99718
399.50        12.01285
399.95        12.08164
400.39        12.15902
400.84        12.04019
401.29        11.75962
401.74        11.56971
402.18        11.50276
402.63        11.42738
403.08        11.35671
403.53        11.36281
403.97        11.43859
404.42        11.55905
404.87        11.67339
405.32        11.69881
405.76         11.6155
406.21        11.45648
406.66         11.2654
407.11        11.11505
407.55        11.03254
408.00        10.99962
408.45        11.00353
408.90        11.00468
409.34        10.99521
409.79        11.00771
410.24        11.03429
410.68        11.03391
411.13        11.00459
411.58         10.9635
412.03        10.90697
412.47        10.82831
412.92        10.73405
413.37         10.6311
413.81        10.54556
414.26         10.5243
414.71        10.56818
415.15        10.66993
415.60        10.78026
416.05        10.82899
416.49        10.79496
416.94        10.69485
417.39        10.57463
417.83        10.50958
418.28        10.51883
418.73        10.58061
419.17        10.65013
419.62        10.64806
420.07        10.56474
420.51        10.42755
420.96         10.2981
421.41        10.24984
421.85         10.2918
422.30        10.39646
422.74        10.51882
423.19        10.60247
423.64        10.62789
424.08        10.61799
424.53        10.56717
424.98        10.48844
425.42        10.39607
425.87        10.29476
426.31         10.2008
426.76        10.15125
427.21        10.14708
427.65        10.17807
428.10        10.24193
428.54        10.32937
428.99        10.42835
429.44        10.55221
429.88         10.6459
430.33        10.63181
430.77        10.50675
431.22        10.30769
431.66        10.10784
432.11         10.0414
432.56        10.09497
433.00        10.20828
433.45        10.27393
433.89        10.08317
434.34        9.658178
434.78        9.642385
435.23        10.07273
435.67        10.25556
436.12        10.18176
436.57        10.22462
437.01        10.37304
437.46        10.40376
437.90        10.30351
438.35         10.1543
438.79        10.00294
439.24        9.896612
439.68        9.870861
440.13        9.975979
440.57        10.14979
441.02        10.24258
441.46        10.22824
441.91        10.10923
442.35        9.946155
442.80        9.995651
443.24        10.18714
443.69        10.11153
444.13        9.813615
444.58        9.706414
445.02        9.798543
445.47        9.876035
445.91         9.91732
446.36        9.988604
446.80         10.0806
447.24        10.17066
447.69        10.25325
448.13        10.32503
448.58        10.38106
449.02        10.41555
449.47        10.43113
449.91        10.42544
450.36        10.40311
450.80        10.36644
451.25        10.31217
451.69         10.2268
452.13        10.11506
452.58        9.988206
453.02        9.869745
453.47        9.802413
453.91        9.793247
454.36        9.833772
454.80        9.892752
455.24        9.915096
455.69        9.889144
456.13        9.821289
456.58        9.752279
457.02        9.730618
457.46        9.767994
457.91        9.847367
458.35        9.920786
458.79        9.898801
459.24        9.776903
459.68        9.610884
460.13        9.480485
460.57        9.306635
461.01        9.380108
461.46        9.466536
461.90        9.598481
462.34        9.650027
462.79        9.650918
463.23        9.579788
463.68        9.497985
464.12        9.480273
464.56        9.543516
465.01        9.670056
465.45        9.789105
465.89        9.815687
466.34        9.742356
466.78        9.592044
467.22        9.431194
467.67        9.389946
468.11        9.456507
468.55        9.629884
468.99        9.827796
469.44        9.941914
469.88        9.947583
470.32        9.872953
470.77        9.771257
471.21        9.724703
471.65        9.756701
472.10        9.838689
472.54        9.927705
472.98        9.965806
473.42        9.941928
473.87        9.888194
474.31        9.825432
474.75        9.794298
475.20        9.807994
475.64        9.841276
476.08         9.89038
476.52         9.97601
476.97        10.09609
477.41        10.20085
477.85        10.24031
478.29        10.42515
478.74        10.30245
479.18        10.22975
479.62        10.12975
480.06        10.15573
480.50        10.32551
480.95        10.39794
481.39        10.67192
481.83        10.76684
482.27        10.77802
482.72        10.73951
483.16        10.67917
483.60        10.67421
484.04        10.73121
484.48        10.76115
484.93        10.84071
485.37        11.10027
485.81        11.35557
486.25        11.71934
486.69        10.91469
487.14          10.638
487.58        11.16038
488.02        11.33621
488.46        11.30588
488.90        11.55506
489.34        11.33168
489.79        11.38105
490.23        11.88598
490.67         12.1938
491.11        12.36184
491.55        12.31942
491.99        12.14729
492.43         12.1148
492.88        12.25341
493.32        12.37891
493.76        12.47162
494.20         12.6062
494.64        12.78055
495.08        12.96011
495.52        13.12216
495.96        13.28092
496.41        13.41743
496.85        13.41724
497.29         13.3427
497.73        13.47327
498.17        13.78414
498.61        13.94473
499.05          13.942
499.49        14.02121
499.93        14.18363
500.37        14.28188
500.82        14.32333
501.26        14.38863
501.70        14.48621
502.14        14.59403
502.58        14.70001
503.02        14.78632
503.46        14.85089
503.90        14.90415
504.34        14.96483
504.78        15.05969
505.22        15.19229
505.66        15.35015
506.10        15.50866
506.54        15.62827
506.98        15.69625
507.42        15.72355
507.86        15.72458
508.30        15.72202
508.74        15.72741
509.18        15.73987
509.62        15.76017
510.06        15.78911
510.50        15.82678
510.94        15.87214
511.38        15.93141
511.82        16.01267
512.26        16.11044
512.70        16.21554
513.14        16.30096
513.58        16.32659
514.02         16.2868
514.46        16.19758
514.90        16.08827
515.34        16.00724
515.78        15.97188
516.22        15.97165
516.66         15.9982
517.10        16.03581
517.54        16.07583
517.98        16.12152
518.42        16.16577
518.86        16.19546
519.30        16.20685
519.74        16.20038
520.18         16.1791
520.62        16.15181
521.06        16.12132
521.50        16.08398
521.93        16.04702
522.37        16.01677
522.81          15.997
523.25        15.99077
523.69        15.98264
524.13        15.94618
524.57         15.8805
525.01        15.79496
525.45        15.71966
525.89        15.70275
526.32        15.74919
526.76        15.83501
527.20        15.92485
527.64        15.96137
528.08        15.92891
528.52        15.85013
528.96        15.73812
529.40        15.61331
529.83         15.4882
530.27        15.36317
530.71        15.26176
531.15        15.22521
531.59        15.25599
532.03        15.33924
532.46        15.43188
532.90        15.46416
533.34        15.42051
533.78        15.31115
534.22        15.16831
534.66        15.06856
535.09        15.01313
535.53        14.93545
535.97        14.84442
536.41         14.8082
536.85        14.82885
537.28         14.8744
537.72        14.92727
538.16        14.97284
538.60        15.00327
539.04         15.0203
539.47        15.03498
539.91        15.07601
540.35         15.1446
540.79        15.23805
541.22        15.34287
541.66        15.41441
542.10        15.48633
542.54        15.53386
542.97        15.58017
543.41         15.6528
543.85        15.75414
544.29        15.87889
544.72        16.01035
545.16        16.12916
545.60        16.23019
546.04        16.31925
546.47        16.41477
546.91         16.5495
547.35        16.72634
547.79        16.92621
548.22        17.11325
548.66        17.27192
549.10        17.39784
549.53        17.42064
549.97         17.5212
550.41        17.62922
550.84        17.79894
551.28        18.01499
551.72        18.24914
552.15        18.43659
552.59        18.57167
553.03        18.69682
553.46        18.81186
553.90        18.92794
554.34        19.05147
554.77        19.14782
555.21        19.20845
555.65        19.43042
556.08          19.447
556.52        19.56177
556.96        19.65891
557.39        19.75044
557.83        19.84119
558.27        19.90196
558.70        19.94274
559.14        20.07684
559.57        20.12704
560.01        20.26607
560.45         20.3955
560.88        20.42955
561.32        20.40717
561.75        20.35517
562.19        20.33908
562.63         20.5465
563.06         20.8926
563.50        20.93494
563.93        20.71442
564.37        20.70576
564.80        20.91488
565.24        21.08029
565.68        21.17801
566.11        21.29564
566.55         21.4346
566.98        21.56248
567.42        21.68804
567.85        21.81144
568.29        21.94154
568.72        22.05795
569.16        22.18219
569.60        22.30368
570.03         22.4125
570.47        22.50904
570.90        22.75958
571.34        22.66438
571.77        22.85606
572.21         22.8761
572.64        22.95073
573.08        23.00228
573.51        23.50015
573.95        23.64161
574.38        23.55274
574.82        23.71017
575.25        23.79857
575.69        23.83821
576.12        23.74727
576.56        23.91514
576.99         24.2767
577.42        24.04049
577.86        24.09198
578.29        24.12208
578.73        24.19428
579.16        24.04862
579.60        23.58048
580.03        23.40023
580.47        23.64136
580.90        23.27402
581.33        23.53689
581.77        23.81834
582.20        23.57781
582.64        23.18571
583.07        23.06385
583.51         22.8984
583.94        22.95387
584.37         22.9101
584.81        22.75722
585.24         22.6552
585.68        22.61922
586.11        22.44041
586.54        22.30361
586.98        22.16216
587.41        22.06779
587.85        22.05906
588.28        21.99013
588.71        21.65228
589.15         21.9536
589.58        21.68595
590.01        21.84752
590.45        21.79998
590.88        21.77121
591.31        21.71854
591.75        21.67223
592.18        21.67878
592.61        21.68678
593.05        21.98625
593.48        21.88046
593.91        21.92332
594.35        21.94107
594.78         22.0597
595.21        22.26085
595.65        22.32036
596.08        22.26229
596.51        22.52507
596.94        22.62952
597.38        22.91437
597.81        23.27504
598.24        23.15409
598.68        23.60357
599.11        23.88186
599.54        24.48267
599.97         24.3607
600.41        24.60806
600.84        25.11863
601.27        25.28695
601.70        25.81536
602.14        26.23081
602.57        26.62226
603.00        26.91248
603.43        27.12558
603.87        27.50421
604.30        27.82438
604.73        28.19099
605.16        28.58835
605.60        29.00325
606.03        29.54401
606.46         30.0713
606.89        30.35059
607.32        30.50914
607.76        30.74277
608.19        31.09422
608.62        31.65679
609.05         32.0069
609.48        32.33779
609.92        32.60572
610.35        32.73129
610.78        33.48905
611.21        33.84878
611.64        34.03244
612.07        34.35774
612.50        34.65489
612.94        34.88905
613.37        35.02232
613.80        35.34876
614.23        35.51538
614.66        35.97203
615.09        36.04171
615.52        36.26993
615.96        36.49734
616.39        36.77043
616.82        37.03462
617.25        37.36614
617.68        37.70936
618.11        37.94401
618.54        38.06479
618.97        38.16062
619.40        38.28456
619.84        38.42748
620.27         38.6091
620.70        38.90715
621.13        39.29988
621.56        39.29886
621.99        39.50799
622.42        39.51157
622.85        39.43917
623.28         39.3271
623.71        39.27069
624.14        39.69225
624.57        39.66647
625.00           39.77
625.43        39.70248
625.86        39.62545
626.29        39.54477
626.72        39.17615
627.15        39.01812
627.58        38.71653
628.01        38.44543
628.44        38.36373
628.87        38.41214
629.30        38.09855
629.73        37.75978
630.16        37.46922
630.59        37.32122
631.02        37.11788
631.45        36.83247
631.88        36.50817
632.31        36.13778
632.74        35.71273
633.17        35.26804
633.60        34.85966
634.03        34.50098
634.46        34.18317
634.89        33.87099
635.32        33.50447
635.75        33.07285
636.18         32.5974
636.61        32.11973
637.04        31.70233
637.47        31.36027
637.89        31.06836
638.32         30.7754
638.75        30.44932
639.18        30.08655
639.61        29.58508
640.04        29.21501
640.47        28.86579
640.90        28.61961
641.33        28.44401
641.76        28.30364
642.18        28.18009
642.61        28.05872
643.04        27.88957
643.47        27.66352
643.90        27.75392
644.33        27.57094
644.76        27.54962
645.18        27.53071
645.61        27.65395
646.04        27.87218
646.47        27.95814
646.90        27.94886
647.33        28.08944
647.75        28.39592
648.18        28.73277
648.61        29.05384
649.04        29.34592
649.47        29.59782
649.89        29.83442
650.32        30.09736
650.75        30.41604
651.18        30.80517
651.61        31.38326
652.03        32.08867
652.46         32.5255
652.89        32.72108
653.32        33.10288
653.74        33.75738
654.17        34.19565
654.60        34.74397
655.03        35.42466
655.46        35.23437
655.88        36.54761
656.31        41.11395
656.74        40.50505
657.16        37.22692
657.59        36.90894
658.02        38.30762
658.45        38.71775
658.87        39.20926
659.30        38.93096
659.73        39.56856
660.15        40.34082
660.58        40.46982
661.01        40.71885
661.44        40.82577
661.86        41.04302
662.29        41.38984
662.72        41.71881
663.14        42.03032
663.57        42.36059
664.00        42.68496
664.42        42.93571
664.85        43.11246
665.27        43.22081
665.70         43.2954
666.13        43.39636
666.55         43.5484
666.98        43.72907
667.41        43.93827
667.83        44.17239
668.26        44.41072
668.69        44.65503
669.11        44.88391
669.54        45.08035
669.96         45.2313
670.39        45.29625
670.82        45.31151
671.24        45.36956
671.67        45.48521
672.09        45.61472
672.52        45.74333
672.94        45.82444
673.37        45.85746
673.80        45.86212
674.22         45.8746
674.65        45.92669
675.07        46.04207
675.50        46.19632
675.92        46.38367
676.35        46.58845
676.77         46.8022
677.20        47.02063
677.62        47.22703
678.05        47.38334
678.47        47.48403
678.90        47.54526
679.32        47.58751
679.75          47.663
680.17        47.77835
680.60        47.91862
681.02         48.0779
681.45        48.22437
681.87        48.35632
682.30        48.50747
682.72         48.6648
683.15        48.70965
683.57        48.67865
684.00         48.7372
684.42        48.89679
684.85        49.04185
685.27         49.1573
685.70        49.33916
686.12        49.54286
686.54        49.62196
686.97        49.57428
687.39        49.57824
687.82        49.63174
688.24        49.54179
688.66        49.38404
689.09        49.51567
689.51        49.90483
689.94         50.1494
690.36        50.22466
690.78          50.349
691.21        50.56205
691.63        50.78708
692.06        51.05111
692.48        51.48291
692.90         51.9807
693.33        52.25065
693.75        52.25753
694.17        52.08696
694.60        51.85477
695.02        51.76435
695.44        51.81958
695.87        51.85468
696.29        51.86419
696.71        51.82931
697.14        51.83332
697.56        52.17464
697.98        52.74734
698.41         53.0748
698.83        53.11344
699.25        53.12122
699.68         53.1438
700.10         53.1974
700.52        53.30279
700.94        53.41593
701.37        53.52968
701.79        53.74531
702.21        53.97403
702.64        54.09016
703.06        54.09106
703.48        54.03439
703.90        53.92264
704.33        54.07918
704.75        53.85209
705.17        53.88971
705.59        53.99861
706.01        54.15054
706.44        54.35918
706.86        54.62778
707.28        54.91986
707.70        55.35886
708.12        55.80382
708.55        55.70606
708.97        55.19398
709.39        55.07832
709.81        55.38375
710.23        55.47844
710.66        55.35411
711.08        55.43221
711.50        55.68058
711.92        55.84813
712.34        55.91153
712.76        55.94191
713.19        55.94183
713.61        55.95499
714.03        55.97886
714.45        55.99596
714.87        56.01949
715.29        56.07685
715.71        56.17075
716.13        56.30359
716.56        56.44799
716.98         56.5714
717.40        56.62829
717.82        56.72388
718.24        56.91189
718.66        56.74865
719.08        57.08929
719.50        57.23271
719.92        57.38142
720.34        57.43445
720.76        57.38404
721.19        57.25394
721.61        57.09924
722.03        57.01889
722.45        57.04465
722.87        57.16608
723.29        57.35041
723.71        57.50864
724.13        57.66199
724.55           57.77
724.97        57.88321
725.39        58.03913
725.81        58.23675
726.23        58.49769
726.65        58.73525
727.07        58.62789
727.49        58.45995
727.91        58.05013
728.33        57.65557
728.75        57.51811
729.17        57.69001
729.59        58.13513
730.01        58.68311
730.43        58.92969
730.85        58.84798
731.27        58.79492
731.69        58.80707
732.10        58.72546
732.52        58.58686
732.94        58.46558
733.36         58.4187
733.78        58.52295
734.20        58.78752
734.62        58.98574
735.04        59.62474
735.46        59.55141
735.88        59.07737
736.30        59.16037
736.72        59.77379
737.13         59.7036
737.55        59.58643
737.97        59.32852
738.39        59.25036
738.81        59.36808
739.23        59.67024
739.65        59.96117
740.06        60.10475
740.48        60.20126
740.90        60.20346
741.32        60.03076
741.74        59.75998
742.16        59.58912
742.57         59.5675
742.99        59.66588
743.41        59.84277
743.83        59.92979
744.25        59.94371
744.67        60.12997
745.08         60.4372
745.50        60.50439
745.92        60.32098
746.34         60.0573
746.75        59.79261
747.17          59.624
747.59        59.57579
748.01        59.63464
748.42        59.77867
748.84        59.91765
749.26        60.04202
749.68        60.18319
750.09         60.3413
750.51        60.42974
750.93        60.42136
751.35        60.69656
751.76         60.6003
752.18         60.7138
752.60        60.84178
753.01        61.01161
753.43         61.1696
753.85        61.21991
754.27        61.15314
754.68        61.10489
755.10        61.16661
755.52        60.91555
755.93        61.24571
756.35        61.38941
756.77        61.57586
757.18         61.6761
757.60        61.67949
758.02        61.76917
758.43        61.81196
758.85         61.5104
759.26        60.82281
759.68        60.66439
760.10        60.96138
760.51        61.60679
760.93        61.59204
761.34        61.58741
761.76        61.96087
762.18        61.61434
762.59        60.99553
763.01        61.10495
763.42        61.88965
763.84        62.17765
764.26        61.92952
764.67        61.55868
765.09        61.26635
765.50        61.55257
765.92        62.27664
766.33        61.89189
766.75        61.25918
767.16         61.0321
767.58        61.53003
768.00        61.83168
768.41        61.94812
768.83         62.5745
769.24        63.48326
769.66        63.71689
770.07        63.31178
770.49        63.00029
770.90        62.90034
771.32        62.84368
771.73        62.81917
772.15        62.74091
772.56         62.6238
772.97        62.60797
773.39        62.68437
773.80        62.78823
774.22        62.87701
774.63        63.01312
775.05        63.14259
775.46         63.2374
775.88        63.26404
776.29        63.25298
776.70        63.22447
777.12        63.24094
777.53         63.3241
777.95        63.41963
778.36         63.5134
778.77        63.54488
779.19        63.50967
779.60        63.49439
780.02        63.45781
780.43        63.29182
780.84         63.0887
781.26        62.87577
781.67        62.74703
782.09        63.20497
782.50        63.95463
782.91        63.69723
783.33        62.66035
783.74        62.41666
784.15        63.07697
784.57        63.71579
784.98        64.19691
785.39         64.6746
785.81        65.08273
786.22        65.16993
786.63        65.33393
787.04        65.31151
787.46        65.26018
787.87        65.12302
788.28        65.00243
788.70        64.98717
789.11        65.06332
789.52        65.34805
789.93        65.68674
790.35         65.5465
790.76        65.02187
791.17        64.76799
791.58        64.84094
792.00        64.79195
792.41        64.64304
792.82        64.70169
793.23        64.90789
793.65        65.00198
794.06        64.95887
794.47        64.81165
794.88        64.65993
795.29        64.67448
795.71        64.82001
796.12        65.11781
796.53        65.42242
796.94        65.47564
797.35        65.20938
797.76          64.742
798.18        64.27638
798.59        64.06817
799.00        64.19425
799.41        64.57355
799.82        65.09046
800.23        65.54256
800.64        65.84377
801.06        66.02058
801.47        66.10928
801.88        66.08973
802.29         65.9757
802.70         65.7533
803.11        65.49036
803.52        65.30653
803.93        65.25273
804.34        65.33243
804.75        65.48878
805.17          65.675
805.58        65.92548
805.99        65.95312
806.40        65.83127
806.81        66.40128
807.22        67.31677
807.63        66.84141
808.04        65.26202
808.45        64.62543
808.86        65.11143
809.27        65.59981
809.68        65.90838
810.09        66.22256
810.50         66.4603
810.91        66.60454
811.32        66.62705
811.73        66.45805
812.14        66.11584
812.55        65.63893
812.96        65.18913
813.37        65.03352
813.78        65.23702
814.19           65.73
814.60        66.32643
815.01        66.72823
815.42        66.85554
815.83        66.78006
816.24        66.59425
816.65        66.48386
817.05        66.51695
817.46        66.59785
817.87        66.69408
818.28        66.72764
818.69         66.6749
819.10        66.57438
819.51        66.44497
819.92        66.31185
820.33        66.19462
820.74        66.08511
821.14        65.98911
821.55        65.94082
821.96        65.93497
822.37        65.98877
822.78        66.08262
823.19        66.17172
823.60         66.2498
824.00        66.34017
824.41        66.45979
824.82        66.74297
825.23        67.18981
825.64        67.73013
826.04        68.26141
826.45        68.54449
826.86        68.54052
827.27        68.32226
827.68        67.93272
828.08        67.46985
828.49        66.96421
828.90        66.41061
829.31        65.94153
829.72        65.75412
830.12        65.91012
830.53        66.35126
830.94        66.85641
831.35        66.96691
831.75        66.59974
832.16        65.85593
832.57        65.12258
832.97        64.98729
833.38        65.54697
833.79        66.59126
834.20        67.77625
834.60         68.5119
835.01        68.58456
835.42        68.20847
835.82        67.56269
836.23        66.91753
836.64        66.40331
837.04        65.95757
837.45        65.64742
837.86        65.65489
838.26        65.99979
838.67        66.60277
839.08         67.2892
839.48        67.72095
839.89        67.78542
840.29         67.5726
840.70        67.18089
841.11        66.74726
841.51        66.36314
841.92        65.97739
842.33        65.70039
842.73        65.71922
843.14         66.0135
843.54        66.58976
843.95        67.25308
844.35         67.7205
844.76        67.86826
845.17        67.75268
845.57        67.50999
845.98        67.36032
846.38        67.38553
846.79        67.50861
847.19        67.63253
847.60        67.52686
848.00         67.1713
848.41        66.63257
848.81        66.11372
849.22        65.88744
849.62        66.02659
850.03        66.43327
850.43        66.90807
850.84        66.97468
851.24        66.58342
851.65        65.84286
852.05        65.10676
852.46        64.92659
852.86        65.39162
853.27        66.27734
853.67        67.23167
854.07         67.9622
854.48         68.3261
854.88        68.50169
855.29        68.36349
855.69        67.97366
856.10        67.31274
856.50        66.47141
856.90        65.65072
857.31        65.14548
857.71        65.01266
858.12        65.15229
858.52        65.50523
858.92        65.73735
859.33        65.72911
859.73        65.60786
860.13        65.38702
860.54        65.13115
860.94        64.88328
861.34        64.59719
861.75        64.36919
862.15        64.42078
862.55        64.76349
862.96        65.31804
863.36        65.90254
863.76          66.133
864.17        65.92039
864.57        65.39211
864.97        64.74413
865.38        64.30836
865.78         64.2114
866.18        64.34378
866.58        64.58972
866.99        64.73918
867.39        64.75108
867.79        64.69916
868.19        64.60966
868.60        64.48652
869.00        64.33673
869.40        64.13319
869.80         63.9768
870.21         64.0603
870.61        64.45004
871.01        65.02863
871.41        65.53908
871.81        65.59364
872.22        65.12238
872.62        64.25819
873.02        63.26979
873.42        62.60258
873.82        62.41031
874.22        62.60072
874.63        63.00785
875.03        63.35072
875.43         63.5497
875.83         63.6843
876.23        63.88327
876.63        64.35035
877.03        65.09551
877.44        65.97265
877.84        66.80163
878.24        67.25359
878.64        67.23849
879.04        66.87852
879.44        66.31107
879.84        65.73956
880.24        65.25786
880.64        64.83702
881.04        64.53572
881.44        64.43137
881.84        64.53623
882.24        64.85598
882.65        65.26404
883.05        65.61105
883.45        65.78053
883.85        65.77706
884.25        65.70456
884.65        65.74043
885.05        65.92265
885.45        66.21199
885.85        66.45467
886.25        66.39746
886.65         65.9963
887.05         65.3383
887.45        64.68987
887.85        64.45412
888.25        64.71267
888.65        65.35068
889.04        66.06204
889.44        66.32285
889.84        66.02357
890.24        65.31721
890.64        64.53319
891.04        64.14588
891.44        64.26595
891.84        64.78193
892.24        65.38315
892.64        65.54945
893.04        65.16289
893.44        64.37698
893.83        63.61828
894.23        63.53902
894.63        64.22623
895.03        65.47854
895.43        66.76358
895.83        67.12616
896.23         66.3634
896.63        64.87877
897.02        63.24659
897.42        62.36234
897.82        62.36164
898.22        63.00185
898.62        64.01942
899.01        64.98048
899.41          65.647
899.81        66.16312
900.21        66.59423
900.61        67.04433
901.00        67.53021
901.40        67.93161
901.80        68.17776
902.20        68.21005
902.59        68.03171
902.99        67.69418
903.39        67.28211
903.79        66.91025
904.18        66.61465
904.58        66.40368
904.98        66.25192
905.38        66.11988
905.77        65.99221
906.17        65.90908
906.57        65.84327
906.96        65.76244
907.36         65.6493
907.76        65.51356
908.15        65.44357
908.55        65.54061
908.95        65.82937
909.34        66.27542
909.74        66.71336
910.14        66.95418
910.53        66.93298
910.93        66.70071
911.33        66.36551
911.72        66.09799
912.12        65.97151
912.52        65.93921
912.91        65.91418
913.31        65.74783
913.70        65.43034
914.10        65.03901
914.49        64.71039
914.89        64.62795
915.29        64.82679
915.68        65.21767
916.08        65.69703
916.47        66.10565
916.87        66.36871
917.26         66.5357
917.66        66.57502
918.05        66.44121
918.45         66.1497
918.84        65.74751
919.24        65.37156
919.64        65.33703
920.03        65.72135
920.42        66.39967
920.82        67.16582
921.21        67.74178
921.61        68.00482
922.00        68.01502
922.40        67.80366
922.79        67.50902
923.19        67.19148
923.58        66.85956
923.98        66.46812
924.37        65.89193
924.77        65.16814
925.16        64.34354
925.55        63.67679
925.95        63.56737
926.34        64.10851
926.74        65.12264
927.13        66.33022
927.52        67.18903
927.92        67.52554
928.31        67.48427
928.70         67.2061
929.10        66.97447
929.49        66.90958
929.89        66.90887
930.28        66.94515
930.67        66.94485
931.07        66.86863
931.46        66.74969
931.85        66.63005
932.24        66.55627
932.64        66.54123
933.03        66.62867
933.42        66.66698
933.82        66.44461
934.21        65.95285
934.60        65.23663
934.99        64.65919
935.39        64.74928
935.78        65.61446
936.17        67.12866
936.56        68.71816
936.96        69.31693
937.35         68.6834
937.74        67.11898
938.13        65.36163
938.53        64.40113
938.92        64.39919
939.31        65.10712
939.70        66.06711
940.09        66.44658
940.49         66.0076
940.88        65.06392
941.27        64.03886
941.66        63.54121
942.05        63.72792
942.44        64.41353
942.84        65.31342
943.23        65.98284
943.62        66.22105
944.01        66.19363
944.40        66.11043
944.79        66.30738
945.18        66.84338
945.57        67.51042
945.97        68.16881
946.36        68.73066
946.75        69.09434
947.14         69.3344
947.53        69.28538
947.92        68.65452
948.31        67.47434
948.70        65.91403
949.09        64.43694
949.48        63.71447
949.87        63.89349
950.26        64.81045
950.65        66.11617
951.04        67.15279
951.43          67.657
951.82        67.74747
952.21        67.60223
952.60        67.53546
952.99         67.6106
953.38        67.67885
953.77        67.59471
954.16        67.13734
954.55        66.32134
954.94        65.37794
955.33        64.46036
955.72        63.75243
956.11        63.32796
956.50        63.07615
956.89        63.16885
957.28        63.89185
957.66        65.25919
958.05        67.07524
958.44        68.72038
958.83        69.02676
959.22        67.77066
959.61        65.40997
960.00        62.82389
960.39        61.26133
960.78        61.00683
961.16          61.734
961.55        63.01014
961.94        64.18541
962.33        64.98505
962.72        65.62833
963.11        66.06316
963.49        66.19658
963.88        66.00357
964.27        65.46566
964.66        64.85856
965.04        64.63257
965.43        64.84698
965.82        65.40203
966.21        66.03352
966.60        66.21162
966.98        65.78922
967.37         64.9304
967.76        63.89268
968.15        63.08039
968.53        62.64923
968.92        62.47714
969.31        62.50685
969.69        62.65789
970.08        62.83717
970.47        63.06985
970.86        63.28119
971.24        63.33901
971.63         63.1632
972.02        62.81561
972.40        62.33326
972.79        61.81886
973.17        61.36741
973.56        60.99013
973.95        60.77812
974.33        60.86928
974.72        61.21584
975.11        61.70925
975.49         62.3783
975.88        63.21727
976.26        64.19165
976.65        65.25126
977.04          65.899
977.42        65.34401
977.81        63.54784
978.19        60.77512
978.58        58.30843
978.96        57.83897
979.35         59.6618
979.74        63.41663
980.12        67.95313
980.51         70.3293
980.89        69.73306
981.28        66.82345
981.66        63.09763
982.05        61.11262
982.43        61.52518
982.82        63.54368
983.20        66.41953
983.59        68.68565
983.97        69.89057
984.35        70.49676
984.74        70.45784
985.12         69.8013
985.51        68.64066
985.89        66.84936
986.28        65.13409
986.66        64.52806
987.04        65.34142
987.43        67.34014
987.81        69.64109
988.20        70.48727
988.58        69.46067
988.96         66.8867
989.35        63.96627
989.73        62.61848
990.12        63.25204
990.50        65.39093
990.88        67.63344
991.27        67.69952
991.65        65.21683
992.03        61.02283
992.42        56.77606
992.80        54.73521
993.18        55.54207
993.56        58.45135
993.95         62.1921
994.33        64.80926
994.71        65.37927
995.10        64.48029
995.48        62.76217
995.86        61.32137
996.24        60.61791
996.63        60.31307
997.01        60.20288
997.39         60.0152
997.77         59.6826
998.15        59.37452
998.54        59.34953
998.92         59.9714
999.30        61.28399
999.68        63.08644
1000.06        64.87542
1000.45        65.79436
1000.83        65.70753
1001.21        64.76698
1001.59        63.35271
1001.97        62.19107
1002.35        61.57232
1002.73        61.29645
1003.12        61.38437
1003.50        61.77252
1003.88        62.38366
1004.26        63.27958
1004.64        64.08081
1005.02        64.17982
1005.40        63.52137
1005.78        62.25573
1006.16        60.94212
1006.54        60.61834
1006.92        61.53238
1007.30        63.30907
1007.69        65.28339
1008.07        66.59734
1008.45        66.85478
1008.83        66.34335
1009.21        65.26131
1009.59         63.9497
1009.97        62.62196
1010.35        61.20315
1010.73        59.94855
1011.11        59.30597
1011.49        59.44694
1011.86        60.55517
1012.24        62.14791
1012.62         63.6189
1013.00        64.70146
1013.38        65.39204
1013.76         66.0575
1014.14         67.4997
1014.52        69.79348
1014.90        72.50583
1015.28        74.64056
1015.66        74.54483
1016.04        72.14909
1016.41        68.55596
1016.79        64.85878
1017.17        61.75806
1017.55         59.1193
1017.93        56.37769
1018.31        53.84367
1018.69        52.98404
1019.06        54.33322
1019.44         57.0728
1019.82        59.53566
1020.20        60.35839
1020.58        59.60863
1020.95        57.45141
1021.33        54.66541
1021.71        53.26707
1022.09        54.40751
1022.46        57.48267
1022.84        61.28926
1023.22        64.34027
1023.60        66.15706
1023.97        67.19683
1024.35        67.34656
1024.73        66.42377
