SpectraSmart Spectrum 2.9.0.0
--------- Device Information -----------
Spectrum Name :  反射率_0
Saving Time :  2024/05/01 17:21:02
Spectro-Module Model Name : SE2030-DUVN
Spectro-Module Serial Number : OS361AC55029948
Wavelength Start : 200
Wavelength End : 1025
Wavelength Unit : Wavelength(nm)
Spectrum Unit : Reflectance(%)
-----------Spectrum Setting ------------
Integration Time : 20ms
Average : 10
Boxcar : 0
Background removal :  enabled
linearity correction :  enabled
SC :  disabled
Intensity correction :  disabled
DWT denoise :  enabled
savitzky-golay :  disabled
FFT :  disabled
Running average :  disabled
Kalman :  disabled
High pass :  disabled
---------------BEGIN--------------------
Wavelength(nm)             Reflectance(%)
200.29               0
200.75        273.2668
201.21        1085.185
201.67       -439.6923
202.13       -166.9117
202.58       -87.05196
203.04       -43.89524
203.50       -19.77768
203.96       -12.74311
204.42       -22.45836
204.88       -72.98827
205.34       -1477.035
205.80         236.622
206.26        166.8037
206.72        169.3685
207.18        315.7033
207.64        -168.953
208.10       -17.44259
208.55        12.52026
209.01        21.36707
209.47        21.23774
209.93        15.61449
210.39        5.130767
210.85       -10.38812
211.31       -36.77583
211.77        -119.937
212.23        517.5333
212.69        133.2137
213.14        120.5083
213.60        196.0954
214.06       -762.2635
214.52       -105.6192
214.98       -65.31407
215.44       -61.61231
215.90       -88.10433
216.36       -597.3303
216.81        194.9114
217.27        252.1228
217.73       -590.5145
218.19       -143.2081
218.65       -117.0083
219.11       -141.9164
219.57       -249.9399
220.02       -666.6133
220.48       -298.8157
220.94       -78.13584
221.40       -26.10044
221.86       -8.128798
222.32       0.4045996
222.77         6.71372
223.23        13.38959
223.69        20.81826
224.15        24.61831
224.61        22.94707
225.06        19.17302
225.52        16.67314
225.98        16.92012
226.44        19.82235
226.90        25.26996
227.36        32.94132
227.81        38.60268
228.27        39.30491
228.73        37.28619
229.19        34.95647
229.65        33.75695
230.10        33.67016
230.56        34.42029
231.02        35.70003
231.48        36.74035
231.93        37.04715
232.39        37.02946
232.85        37.25782
233.31        38.33448
233.77        40.10443
234.22        42.21485
234.68        44.07683
235.14        45.12655
235.60        45.31366
236.05        44.74699
236.51        43.61123
236.97        43.09319
237.43        43.97347
237.88        45.92868
238.34        47.59972
238.80        47.57793
239.26        45.17267
239.71        40.01764
240.17        30.47033
240.63        17.26536
241.08        5.978817
241.54       0.2749879
242.00      -0.1538434
242.46        2.285006
242.91        7.350634
243.37        16.64061
243.83        34.24318
244.28        55.59314
244.74        63.51587
245.20        60.47026
245.66        53.70037
246.11        45.73528
246.57         35.3417
247.03        18.92248
247.48       -7.713535
247.94       -38.13142
248.40       -56.58228
248.85       -60.29418
249.31       -47.62489
249.77       -25.56777
250.22       -3.778712
250.68        14.24109
251.14        26.05479
251.59        30.62158
252.05         28.7347
252.51         17.8448
252.96       -13.18784
253.42       -61.86859
253.88       -62.65605
254.33       -19.58741
254.79        10.27502
255.25        24.64626
255.70         32.0583
256.16        37.04738
256.62        41.03161
257.07        44.55426
257.53         47.7655
257.99        50.26411
258.44        51.97789
258.90        53.26093
259.35        53.97167
259.81        54.51515
260.27        54.65494
260.72        54.12229
261.18        53.28368
261.63        52.08829
262.09        51.05372
262.55        50.37771
263.00        49.93502
263.46        49.70292
263.91         49.3583
264.37        48.78424
264.83        47.93195
265.28        46.93089
265.74        45.93484
266.19         44.8978
266.65        43.94976
267.11        42.99861
267.56        42.21648
268.02        41.97163
268.47        42.23535
268.93        42.85844
269.38        43.44033
269.84        43.27642
270.30        42.25489
270.75        40.59965
271.21        38.76695
271.66        37.33028
272.12        36.50524
272.57        36.06047
273.03        35.85186
273.48        35.59383
273.94        35.21908
274.39        34.80302
274.85        34.37749
275.31         33.9079
275.76        33.38954
276.22        32.85431
276.67         32.3065
277.13        31.87605
277.58        31.51863
278.04        31.24672
278.49        30.97352
278.95        30.68267
279.40          30.315
279.86        29.92518
280.31        29.49232
280.77        29.08332
281.22        28.66168
281.68        28.27212
282.13        27.84564
282.59        27.37462
283.04        26.83511
283.50        26.28527
283.95        25.77849
284.41        25.45202
284.86        25.30952
285.32        25.31675
285.77        25.38364
286.22         25.4168
286.68        25.38994
287.13        25.30936
287.59        25.19535
288.04        25.04079
288.50        24.88412
288.95        24.68881
289.41        24.51596
289.86        24.38195
290.32        24.31343
290.77        24.29575
291.22        24.29654
291.68        24.25494
292.13         24.1613
292.59        24.06422
293.04        23.99654
293.50        24.06023
293.95        24.25484
294.40        24.55163
294.86        24.90956
295.31        25.27687
295.77        25.62249
296.22        25.95351
296.68          26.249
297.13        26.46474
297.58        26.61516
298.04        26.73399
298.49        26.86333
298.95         27.1079
299.40        27.46897
299.85        27.90672
300.31        28.39472
300.76        28.89186
301.21        29.37368
301.67        29.85311
302.12        30.24963
302.58        30.46767
303.03        30.48389
303.48        30.35581
303.94        30.22318
304.39        30.23357
304.84        30.43814
305.30        30.77931
305.75        31.16074
306.20        31.44862
306.66        31.60496
307.11         31.6493
307.57        31.62653
308.02        31.55348
308.47        31.45886
308.93        31.34305
309.38         31.1899
309.83        31.02731
310.29        30.87153
310.74        30.72116
311.19        30.59263
311.65        30.49294
312.10        30.41659
312.55        30.36236
313.00        30.32426
313.46        30.29135
313.91        30.25005
314.36        30.19568
314.82        30.11597
315.27        30.00802
315.72        29.86484
316.18        29.69053
316.63        29.48078
317.08        29.23442
317.53        28.95421
317.99        28.64965
318.44        28.32745
318.89        28.01479
319.35        27.72587
319.80        27.45861
320.25         27.2182
320.70        27.00282
321.16         26.8055
321.61        26.63715
322.06        26.48276
322.51        26.32084
322.97        26.14127
323.42         25.9535
323.87        25.77235
324.32        25.63564
324.78        25.54217
325.23        25.48427
325.68        25.42154
326.13        25.29671
326.59        25.08869
327.04        24.82789
327.49         24.5333
327.94        24.24788
328.39        23.99129
328.85        23.74899
329.30        23.53752
329.75        23.35748
330.20         23.2072
330.66        23.08239
331.11        22.97866
331.56        22.85856
332.01        22.71378
332.46        22.55375
332.92         22.3779
333.37        22.21643
333.82        22.07114
334.27         21.9391
334.72        21.83601
335.17        21.79212
335.63        21.79653
336.08        21.84089
336.53        21.89106
336.98        21.90179
337.43         21.8588
337.88        21.78611
338.34        21.65453
338.79        21.43346
339.24        21.13147
339.69        20.76205
340.14        20.44687
340.59        20.37629
341.05        20.56785
341.50        20.96458
341.95        21.38874
342.40        21.54882
342.85        21.37973
343.30         20.9824
343.75         20.5096
344.20        20.20209
344.66        20.13315
345.11        20.21733
345.56        20.40369
346.01        20.60324
346.46        20.76714
346.91        20.91974
347.36         21.0268
347.81        21.03214
348.26        20.93555
348.72        20.75914
349.17          20.534
349.62         20.3576
350.07        20.25403
350.52        20.19324
350.97        20.16498
351.42        20.14287
351.87        20.11834
352.32        20.12164
352.77        20.10278
353.22        19.98265
353.67        19.76116
354.13        19.45963
354.58         19.1955
355.03         19.1834
355.48        19.44772
355.93         19.9229
356.38        20.40689
356.83        20.55754
357.28        20.30623
357.73        19.77932
358.18        19.19793
358.63        18.89073
359.08        18.92966
359.53        19.19881
359.98         19.5745
360.43        19.84552
360.88        19.93029
361.33        19.90232
361.78        19.77512
362.23        19.56184
362.68        19.28813
363.13        18.94311
363.58        18.60204
364.03         18.4018
364.48        18.36757
364.93        18.46141
365.38         18.5918
365.83        18.60618
366.28        18.46568
366.73        18.21858
367.18        17.91624
367.63        17.64758
368.08        17.45119
368.53        17.30323
368.98        17.20005
369.43        17.13644
369.88        17.10055
370.33        17.09166
370.78        17.09551
371.23        17.08227
371.68        17.04036
372.13        16.97583
372.58        16.88064
373.03        16.74516
373.48        16.57515
373.93          16.377
374.38        16.19157
374.83        16.08743
375.28        16.07874
375.72        16.14264
376.17        16.23188
376.62        16.27021
377.07          16.236
377.52         16.1487
377.97        16.03184
378.42        15.92445
378.87        15.84017
379.32         15.7679
379.77        15.69907
380.22         15.6218
380.67        15.53355
381.11        15.44405
381.56        15.36256
382.01        15.30528
382.46        15.27817
382.91          15.279
383.36        15.28675
383.81        15.27289
384.26         15.2252
384.71        15.13614
385.15        15.03427
385.60        14.98192
386.05        14.98158
386.50        15.02797
386.95        15.04206
387.40        14.90306
387.85        14.61121
388.29        14.20798
388.74        13.85937
389.19        13.74943
389.64        13.89933
390.09        14.23125
390.54        14.60191
390.98        14.77879
391.43        14.70894
391.88        14.48049
392.33        14.19042
392.78        13.98129
393.23        13.89117
393.67        13.84731
394.12        13.84632
394.57         13.8983
395.02        13.96791
395.47        13.97102
395.91        13.91727
396.36        13.88931
396.81        13.89664
397.26        13.88565
397.71        13.84418
398.15        13.79165
398.60        13.74821
399.05         13.6557
399.50        13.55219
399.95         13.5895
400.39        13.72738
400.84        13.71069
401.29        13.54023
401.74        13.43797
402.18        13.41367
402.63        13.32951
403.08        13.20251
403.53        13.12195
403.97        13.09258
404.42        13.09126
404.87         13.0876
405.32        13.03217
405.76         12.9143
406.21        12.76034
406.66         12.6062
407.11        12.50851
407.55        12.48504
408.00        12.51915
408.45        12.58276
408.90        12.60829
409.34        12.58359
409.79        12.55253
410.24          12.528
410.68        12.49872
411.13        12.47169
411.58        12.45821
412.03        12.44465
412.47        12.40415
412.92        12.33299
413.37        12.24163
413.81        12.15886
414.26        12.13692
414.71        12.17726
415.15        12.27115
415.60        12.36214
416.05        12.37029
416.49        12.27774
416.94        12.11046
417.39        11.93095
417.83        11.83995
418.28        11.85871
418.73        11.94904
419.17        12.05801
419.62        12.09288
420.07        12.03529
420.51        11.92107
420.96        11.78528
421.41        11.65967
421.85        11.55896
422.30        11.47661
422.74        11.43376
423.19        11.47459
423.64        11.59529
424.08        11.78841
424.53        11.97935
424.98        12.05562
425.42        11.98955
425.87        11.81879
426.31        11.60853
426.76        11.47652
427.21        11.44862
427.65        11.48685
428.10        11.57374
428.54        11.67671
428.99        11.77548
429.44        11.89926
429.88        11.98743
430.33        11.94993
430.77        11.78477
431.22        11.53353
431.66        11.28352
432.11        11.19438
432.56        11.25378
433.00           11.39
433.45        11.48255
433.89        11.29425
434.34        10.84438
434.78         10.8562
435.23        11.36316
435.67        11.56565
436.12        11.45337
436.57        11.45386
437.01        11.57595
437.46        11.60887
437.90         11.5441
438.35        11.45501
438.79         11.3695
439.24        11.30267
439.68        11.28441
440.13        11.38702
440.57         11.5413
441.02        11.58251
441.46        11.49184
441.91        11.27512
442.35        11.02567
442.80        11.06034
443.24        11.30406
443.69        11.29526
444.13        11.04656
444.58        10.96648
445.02        11.05396
445.47         11.0795
445.91         11.0508
446.36        11.09363
446.80        11.20814
447.24        11.35271
447.69        11.48987
448.13        11.56655
448.58        11.56899
449.02        11.51137
449.47        11.42929
449.91        11.36928
450.36        11.34878
450.80        11.35383
451.25         11.3589
451.69        11.31495
452.13        11.21674
452.58        11.08772
453.02        10.96271
453.47        10.90207
453.91        10.91747
454.36        10.99223
454.80        11.08975
455.24        11.14846
455.69        11.15382
456.13        11.11421
456.58        11.06977
457.02        11.06624
457.46        11.11561
457.91        11.20054
458.35        11.27697
458.79        11.25992
459.24        11.14648
459.68        10.99608
460.13        10.88441
460.57         10.6991
461.01        10.76938
461.46        10.83213
461.90        10.94298
462.34        10.98846
462.79        11.00997
463.23        10.97749
463.68        10.93552
464.12        10.92827
464.56        10.96789
465.01        11.04886
465.45        11.12598
465.89        11.15287
466.34        11.12706
466.78         11.0593
467.22        10.98549
467.67        10.98528
468.11        11.02658
468.55        11.13052
468.99        11.24756
469.44        11.32397
469.88        11.34924
470.32         11.3355
470.77        11.30894
471.21        11.30716
471.65        11.34101
472.10        11.39794
472.54         11.4549
472.98        11.48481
473.42        11.48326
473.87        11.46862
474.31        11.44873
474.75        11.44733
475.20        11.47324
475.64        11.50924
476.08         11.5517
476.52        11.62451
476.97        11.72947
477.41        11.80693
477.85        11.81815
478.29        12.03654
478.74        11.94161
479.18        11.93649
479.62        11.90025
480.06         11.9601
480.50        12.12836
480.95        12.14225
481.39         12.3799
481.83        12.44203
482.27        12.44822
482.72        12.41916
483.16        12.37717
483.60        12.38734
484.04        12.45189
484.48        12.49164
484.93        12.57763
485.37        12.81186
485.81        13.01536
486.25        13.31938
486.69        12.56251
487.14        12.24068
487.58        12.72635
488.02        13.22909
488.46        12.95453
488.90        13.41764
489.34        13.15899
489.79        13.09604
490.23        13.41471
490.67         13.6487
491.11        13.89007
491.55        13.91142
491.99        13.77358
492.43         13.7821
492.88        13.95565
493.32        14.08393
493.76        14.15556
494.20        14.27607
494.64        14.44983
495.08         14.6296
495.52        14.79441
495.96         14.9692
496.41        15.13226
496.85        15.15347
497.29        15.08944
497.73        15.23251
498.17        15.54996
498.61        15.67605
499.05         15.6111
499.49        15.65255
499.93        15.80695
500.37        15.90204
500.82        15.94165
501.26        16.00901
501.70         16.1087
502.14        16.21854
502.58        16.31841
503.02        16.37745
503.46        16.39259
503.90         16.3786
504.34          16.369
504.78        16.41483
505.22        16.52727
505.66         16.6901
506.10        16.86676
506.54        16.99612
506.98         17.0602
507.42         17.0762
507.86        17.07043
508.30        17.08486
508.74        17.13245
509.18        17.20083
509.62        17.27656
510.06        17.33803
510.50        17.37897
510.94        17.40864
511.38        17.43662
511.82        17.47625
512.26        17.52917
512.70        17.58619
513.14        17.63906
513.58          17.677
514.02        17.69645
514.46        17.70269
514.90        17.69517
515.34        17.67215
515.78        17.63839
516.22        17.59876
516.66        17.56643
517.10         17.5613
517.54        17.58637
517.98        17.63318
518.42         17.6917
518.86         17.7441
519.30        17.78148
519.74        17.80672
520.18        17.81189
520.62         17.7867
521.06        17.73171
521.50        17.64883
521.93        17.55937
522.37        17.49459
522.81          17.465
523.25        17.46544
523.69        17.47356
524.13        17.45113
524.57        17.39268
525.01        17.31306
525.45        17.23856
525.89        17.21024
526.32        17.23507
526.76         17.2928
527.20        17.36178
527.64        17.40753
528.08        17.41815
528.52        17.40676
528.96        17.37269
529.40        17.31564
529.83        17.23893
530.27        17.14581
530.71        17.06029
531.15        17.02545
531.59        17.04732
532.03        17.11423
532.46        17.18429
532.90        17.19121
533.34        17.12358
533.78        16.99096
534.22           16.84
534.66        16.77025
535.09        16.78127
535.53        16.79231
535.97        16.78454
536.41        16.78997
536.85        16.80264
537.28        16.79902
537.72        16.79007
538.16         16.8102
538.60        16.86265
539.04         16.9322
539.47        17.00831
539.91        17.08754
540.35        17.16194
540.79        17.24244
541.22        17.32386
541.66        17.37085
542.10        17.42809
542.54         17.4623
542.97        17.50205
543.41         17.5829
543.85        17.70636
544.29        17.86438
544.72        18.02942
545.16        18.16619
545.60        18.26404
546.04        18.33068
546.47         18.3918
546.91        18.49353
547.35        18.64383
547.79        18.82205
548.22        18.98351
548.66        19.10255
549.10        19.17367
549.53        19.12304
549.97        19.16374
550.41        19.24158
550.84        19.41965
551.28        19.67337
551.72        19.95032
552.15        20.14492
552.59        20.24428
553.03        20.30703
553.46        20.35372
553.90        20.42831
554.34        20.54479
554.77        20.65358
555.21        20.73316
555.65        20.97725
556.08        20.98294
556.52        21.08442
556.96        21.15732
557.39        21.21485
557.83        21.26353
558.27        21.27078
558.70        21.25463
559.14        21.34844
559.57         21.3683
560.01        21.49813
560.45        21.62478
560.88        21.64253
561.32        21.59014
561.75        21.49899
562.19        21.45229
562.63        21.66906
563.06        22.06168
563.50        22.15413
563.93        21.96471
564.37        21.96067
564.80        22.14323
565.24        22.24811
565.68        22.27366
566.11        22.34962
566.55        22.48507
566.98        22.63109
567.42        22.78557
567.85        22.92586
568.29        23.04948
568.72        23.16756
569.16        23.29455
569.60        23.36362
570.03        23.35835
570.47        23.51313
570.90        23.52625
571.34        23.56976
571.77        23.72494
572.21        23.87827
572.64        24.07524
573.08        24.13452
573.51        24.53689
573.95        24.56339
574.38        24.28261
574.82        24.45715
575.25        24.55782
575.69        24.69125
576.12         24.6594
576.56        24.88574
576.99        24.97262
577.42        24.73852
577.86        24.84115
578.29        24.85724
578.73         24.8794
579.16         24.5794
579.60        24.53387
580.03        24.40017
580.47        24.48256
580.90        24.12993
581.33        24.63762
581.77        24.67395
582.20        24.32284
582.64        24.04346
583.07         24.0858
583.51        24.04959
583.94        24.08567
584.37        24.12563
584.81        24.11383
585.24        23.99618
585.68        23.85425
586.11        23.48263
586.54        23.44572
586.98        23.34767
587.41        23.30372
587.85        23.32228
588.28         23.2688
588.71        22.71024
589.15        23.27334
589.58        22.98287
590.01        23.22393
590.45         23.1351
590.88         23.0294
591.31        23.03545
591.75        23.15858
592.18        23.16075
592.61        22.94708
593.05        23.35715
593.48        23.01232
593.91        22.99188
594.35         23.1379
594.78        23.26598
595.21        23.40994
595.65         23.4649
596.08        23.44058
596.51        23.64685
596.94        23.72038
597.38        23.93482
597.81        24.23298
598.24        24.02067
598.68         24.3703
599.11        24.69993
599.54         25.0565
599.97        25.12384
600.41        25.55756
600.84        25.76669
601.27        26.09363
601.70        26.48359
602.14        26.78171
602.57        27.02034
603.00        27.15935
603.43         27.2832
603.87        27.62372
604.30         27.8864
604.73        28.16598
605.16         28.5253
605.60        28.93366
606.03        29.36466
606.46        29.71673
606.89        29.94221
607.32        30.15398
607.76        30.36452
608.19        30.59084
608.62         31.0998
609.05        31.47815
609.48         31.6513
609.92        31.57113
610.35        31.98298
610.78         32.5074
611.21        32.94261
611.64        33.01575
612.07        33.41306
612.50        33.67204
612.94        33.84726
613.37        33.94204
613.80        34.16171
614.23        34.23673
614.66        34.60307
615.09        34.62403
615.52        34.81228
615.96        35.02338
616.39        35.27365
616.82        35.56016
617.25        35.93882
617.68        36.33604
618.11        36.47755
618.54        36.40139
618.97        36.43615
619.40        36.63649
619.84        36.79321
620.27        36.92118
620.70        37.24936
621.13        37.70779
621.56        37.73869
621.99        37.67356
622.42        37.64717
622.85         37.8165
623.28        37.74991
623.71        37.81219
624.14        38.08651
624.57        38.27859
625.00        38.40498
625.43        38.34102
625.86        38.20422
626.29        38.02131
626.72        37.81745
627.15        37.74197
627.58        37.55626
628.01          37.318
628.44        37.46299
628.87        37.57175
629.30        37.42547
629.73        36.97175
630.16        36.69168
630.59        36.60169
631.02        36.43333
631.45        36.17614
631.88        35.93296
632.31        35.70298
632.74        35.45833
633.17        35.19898
633.60        34.92228
634.03        34.62591
634.46        34.31564
634.89        33.98765
635.32        33.63496
635.75         33.2622
636.18        32.87669
636.61        32.49405
637.04        32.13564
637.47        31.80821
637.89         31.5023
638.32        31.19421
638.75        30.89473
639.18        30.61023
639.61        30.22078
640.04        29.97215
640.47        29.70673
640.90         29.4961
641.33        29.31803
641.76        29.15928
642.18        29.03933
642.61        28.95296
643.04        28.83657
643.47        28.65536
643.90        28.75743
644.33        28.52277
644.76        28.41431
645.18        28.29631
645.61        28.35689
646.04        28.55832
646.47        28.65574
646.90        28.65347
647.33        28.74966
647.75        28.94615
648.18        29.11797
648.61        29.25998
649.04        29.41441
649.47        29.58322
649.89        29.79852
650.32        30.05253
650.75        30.24957
651.18        30.41218
651.61        30.77425
652.03        31.30795
652.46        31.60853
652.89        31.71346
653.32        32.07205
653.74        32.64048
654.17        32.94045
654.60        32.97727
655.03        33.16651
655.46        33.10826
655.88        34.03679
656.31        37.25118
656.74        36.41599
657.16        33.81643
657.59        33.91536
658.02        35.06834
658.45        35.69058
658.87        35.77301
659.30        35.64183
659.73        35.70072
660.15        36.70796
660.58        36.66783
661.01        36.98359
661.44        37.09485
661.86         37.3536
662.29        37.76137
662.72        38.04569
663.14        38.24344
663.57        38.56207
664.00        38.95715
664.42          39.183
664.85        39.23553
665.27        39.22679
665.70        39.22656
666.13        39.30014
666.55        39.48192
666.98        39.75106
667.41        40.07093
667.83        40.37484
668.26        40.62295
668.69        40.82864
669.11         41.0077
669.54        41.18848
669.96        41.36886
670.39        41.54511
670.82        41.70338
671.24        41.73817
671.67        41.70702
672.09        41.85414
672.52        42.15462
672.94        42.32148
673.37        42.34634
673.80        42.38786
674.22        42.47706
674.65        42.56847
675.07        42.68038
675.50        42.81459
675.92        42.96994
676.35        43.13863
676.77        43.31788
677.20        43.49731
677.62        43.67482
678.05        43.83831
678.47        43.98267
678.90         44.1153
679.32        44.22515
679.75        44.31134
680.17        44.37198
680.60        44.41957
681.02        44.48524
681.45        44.58153
681.87        44.71588
682.30        44.98118
682.72        45.15394
683.15        45.31575
683.57        45.39887
684.00        45.43182
684.42        45.44096
684.85        45.47845
685.27        45.54995
685.70        45.64032
686.12        45.73317
686.54        45.81173
686.97        45.86449
687.39        45.94596
687.82        46.02118
688.24        46.00195
688.66        45.82019
689.09         45.8861
689.51         46.1614
689.94        46.35743
690.36         46.4684
690.78        46.64746
691.21        46.91394
691.63        47.22803
692.06        47.57433
692.48         47.9435
692.90        48.27852
693.33        48.49788
693.75        48.58405
694.17        48.50739
694.60        48.35834
695.02        48.32192
695.44        48.38822
695.87        48.46749
696.29        48.52981
696.71        48.37587
697.14        48.15278
697.56        48.46937
697.98        49.20781
698.41         49.6136
698.83        49.63425
699.25        49.70067
699.68        49.84737
700.10        49.97416
700.52        50.09121
700.94        50.19349
701.37        50.28854
701.79        50.48276
702.21         50.7205
702.64        50.85932
703.06        50.89801
703.48        50.88901
703.90        50.82822
704.33        51.01391
704.75        50.83019
705.17        50.88741
705.59        51.00757
706.01        51.17274
706.44         51.3773
706.86        51.61871
707.28        51.86071
707.70        52.16379
708.12        52.47432
708.55        52.50475
708.97        52.27491
709.39        52.44409
709.81        52.38696
710.23        52.44197
710.66         52.4248
711.08        52.48851
711.50        52.62992
711.92        52.79803
712.34        52.99093
712.76         53.2188
713.19        53.42472
713.61        53.54913
714.03        53.56179
714.45        53.47924
714.87         53.3796
715.29        53.38818
715.71        53.53349
716.13        53.78661
716.56        54.05303
716.98        54.23925
717.40          54.287
717.82        54.22129
718.24        54.12949
718.66         54.1765
719.08        54.37852
719.50        54.63303
719.92        54.86572
720.34        54.99664
720.76        55.00585
721.19        54.94054
721.61        54.85803
722.03        54.82051
722.45        54.85759
722.87        54.96825
723.29        55.11717
723.71        55.23471
724.13        55.30018
724.55        55.32891
724.97        55.35992
725.39        55.45333
725.81         55.6171
726.23        55.82922
726.65        56.01949
727.07        56.07824
727.49        55.98999
727.91        55.79689
728.33        55.59365
728.75         55.5304
729.17        55.64082
729.59         55.8751
730.01        56.15981
730.43        56.36409
730.85        56.44785
731.27        56.46304
731.69        56.43157
732.10        56.38939
732.52        56.35687
732.94        56.30634
733.36        56.29594
733.78        56.40514
734.20        56.63619
734.62        57.03925
735.04        57.47913
735.46        57.57414
735.88        57.39061
736.30        57.34392
736.72        57.46267
737.13        57.67395
737.55        57.86762
737.97        57.63902
738.39        57.15613
738.81        57.31753
739.23        58.04623
739.65        58.31215
740.06        58.05817
740.48        58.05904
740.90        58.29798
741.32        58.38022
741.74         58.2785
742.16        58.17556
742.57        58.09428
742.99        57.95699
743.41        57.85204
743.83        57.95829
744.25        58.25923
744.67        58.59856
745.08        58.88519
745.50        59.01661
745.92        58.96574
746.34         58.7163
746.75        58.38554
747.17        58.21669
747.59        58.24574
748.01        58.43906
748.42        58.71451
748.84        58.83051
749.26        58.78709
749.68        58.80085
750.09        58.88551
750.51        58.94303
750.93        58.97097
751.35        59.00585
751.76        59.07071
752.18         59.1807
752.60        59.32296
753.01        59.54103
753.43        59.78725
753.85        59.86818
754.27        59.73791
754.68        60.06145
755.10        59.77498
755.52        59.84336
755.93        59.93809
756.35        60.04575
756.77        60.14909
757.18        60.18026
757.60        60.14826
758.02        60.24693
758.43        60.35158
758.85        60.04672
759.26        59.53424
759.68        59.40099
760.10        59.76615
760.51         60.5994
760.93        60.61153
761.34        60.64092
761.76        60.41599
762.18        60.05176
762.59        59.76607
763.01        60.00686
763.42        60.69178
763.84         60.9805
764.26        60.82052
764.67        60.55486
765.09        60.35255
765.50        60.44849
765.92        60.77509
766.33        60.68074
766.75         60.1685
767.16        60.21604
767.58        60.54167
768.00         60.8778
768.41        61.12701
768.83        61.56279
769.24        62.07023
769.66         62.3638
770.07        62.38516
770.49        62.03542
770.90        61.49643
771.32        61.40111
771.73        61.71861
772.15        61.75869
772.56        61.51002
772.97         61.4269
773.39        61.51138
773.80        61.58108
774.22        61.59864
774.63        61.65434
775.05        61.72371
775.46         61.8283
775.88        61.94434
776.29        62.08204
776.70        62.21575
777.12        62.33545
777.53        62.43817
777.95        62.48489
778.36        62.50241
778.77        62.47986
779.19        62.42723
779.60        62.47737
780.02        62.54709
780.43        62.31043
780.84        61.91151
781.26        61.74662
781.67        61.88446
782.09        62.42145
782.50         63.0756
782.91        62.89579
783.33        62.06873
783.74        61.87755
784.15         62.4136
784.57        62.87457
784.98        63.18742
785.39        63.57517
785.81        63.99481
786.22        64.18188
786.63        64.45461
787.04        64.44189
787.46        64.28745
787.87        63.97832
788.28        63.69001
788.70        63.66021
789.11        63.90414
789.52        64.37499
789.93        64.87759
790.35        65.07989
790.76        64.92525
791.17        64.48666
791.58        63.95087
792.00        63.66451
792.41        63.70985
792.82        63.82376
793.23        63.91052
793.65          64.144
794.06        64.36739
794.47        63.99305
794.88        63.27198
795.29        63.04688
795.71        63.31573
796.12        63.75112
796.53        64.18177
796.94        64.46491
797.35        64.49324
797.76         64.3204
798.18        64.07887
798.59        63.94117
799.00        63.97129
799.41        64.10892
799.82        64.31346
800.23        64.51866
800.64        64.69273
801.06        64.84735
801.47        64.98898
801.88        65.03323
802.29        64.97067
802.70        64.80459
803.11        64.61838
803.52        64.55747
803.93        64.66159
804.34        64.89478
804.75        65.15395
805.17        65.31139
805.58        65.36976
805.99        65.14328
806.40        64.75252
806.81        64.89101
807.22        65.37616
807.63        65.03291
808.04         64.0353
808.45         63.7013
808.86        64.12963
809.27         64.5899
809.68        64.93868
810.09        65.25665
810.50        65.47202
810.91        65.56437
811.32        65.52893
811.73        65.36819
812.14        65.11326
812.55        64.77501
812.96        64.48524
813.37        64.46376
813.78        64.75342
814.19        65.28936
814.60        65.90084
815.01        66.32037
815.42        66.47478
815.83        66.42191
816.24        66.24188
816.65        66.09985
817.05        66.06361
817.46         66.0603
817.87        66.06631
818.28        66.00925
818.69        65.87083
819.10        65.68401
819.51        65.50111
819.92        65.40556
820.33        65.42081
820.74        65.51605
821.14        65.61813
821.55        65.64375
821.96        65.56539
822.37        65.42928
822.78        65.29221
823.19         65.2534
823.60        65.35056
824.00        65.56231
824.41        65.83977
824.82          66.204
825.23        66.61697
825.64        67.04606
826.04        67.41502
826.45         67.5284
826.86        67.37319
827.27         67.0135
827.68        66.51174
828.08         65.9976
828.49        65.51123
828.90         65.0498
829.31        64.72187
829.72        64.68058
830.12        64.97092
830.53        65.53146
830.94        66.15588
831.35        66.41774
831.75        66.22445
832.16        65.64706
832.57        65.02036
832.97        64.85911
833.38        65.25368
833.79        66.03261
834.20        66.90425
834.60         67.3691
835.01        67.26012
835.42        66.77635
835.82        66.10734
836.23        65.53348
836.64        65.16622
837.04        64.92701
837.45        64.82471
837.86        64.93713
838.26        65.25809
838.67        65.74597
839.08        66.25117
839.48        66.48866
839.89        66.37952
840.29         65.9954
840.70        65.50909
841.11        65.17098
841.51        65.07385
841.92        65.13294
842.33        65.29489
842.73        65.47517
843.14        65.58875
843.54         65.7067
843.95        65.81744
844.35        65.96246
844.76        66.11691
845.17        66.25517
845.57        66.34744
845.98        66.34486
846.38        66.26342
846.79        66.11511
847.19        65.94893
847.60        65.78033
848.00        65.65067
848.41        65.52743
848.81        65.46976
849.22        65.54916
849.62        65.77988
850.03        66.11349
850.43        66.43158
850.84        66.39931
851.24        66.01286
851.65        65.34247
852.05        64.66057
852.46        64.39193
852.86        64.62174
853.27         65.1834
853.67        65.83287
854.07         66.4553
854.48         66.9407
854.88        67.20625
855.29        67.44029
855.69         67.2456
856.10         66.6541
856.50        65.79445
856.90        64.90717
857.31        64.34245
857.71        64.17431
858.12        64.26849
858.52        64.60271
858.92        64.92093
859.33        65.10091
859.73        65.24486
860.13        65.23834
860.54        64.94223
860.94        64.36932
861.34        63.54351
861.75        62.71362
862.15        62.36557
862.55        62.60156
862.96        63.27503
863.36        64.11813
863.76        64.59853
864.17        64.56866
864.57        64.19556
864.97        63.68456
865.38        63.38125
865.78        63.42008
866.18        63.67349
866.58        64.02089
866.99        64.25879
867.39        64.34453
867.79        64.34685
868.19        64.31382
868.60        64.28204
869.00        64.26208
869.40        64.22198
869.80        64.20811
870.21        64.31324
870.61        64.58251
871.01        64.93386
871.41        65.19826
871.81        65.11564
872.22        64.65161
872.62        63.91832
873.02        63.11554
873.42        62.56989
873.82        62.40338
874.22        62.54816
874.63        62.92181
875.03        63.38036
875.43        63.85092
875.83        64.34013
876.23        64.84483
876.63        65.36776
877.03        65.87862
877.44         66.3143
877.84        66.59516
878.24        66.56538
878.64        66.21317
879.04        65.61806
879.44        64.94032
879.84        64.40733
880.24        64.09177
880.64        63.96349
881.04        63.96128
881.44        63.96413
881.84        63.93927
882.24        63.92498
882.65        63.94598
883.05        64.13686
883.45        64.46065
883.85        64.83939
884.25        65.19814
884.65        65.45396
885.05          65.593
885.45        65.65363
885.85         65.6348
886.25        65.54001
886.65        65.38673
887.05        65.16853
887.45        64.98206
887.85        64.97235
888.25         65.1616
888.65        65.52477
889.04        65.89424
889.44        65.96748
889.84        65.69783
890.24        65.16036
890.64        64.59393
891.04        64.34837
891.44        64.49053
891.84        64.93862
892.24         65.4211
892.64         65.4757
893.04        65.01376
893.44        64.19656
893.83        63.39268
894.23        63.16451
894.63        63.59863
895.03        64.51914
895.43        65.56261
895.83        66.06416
896.23        65.84016
896.63        65.14062
897.02        64.25941
897.42        63.72478
897.82        63.60908
898.22        63.78546
898.62        64.14861
899.01         64.5514
899.41         64.8738
899.81        65.19163
900.21        65.53778
900.61        65.95184
901.00        66.41874
901.40        66.86121
901.80        67.18947
902.20        67.29048
902.59        67.16044
902.99        66.85874
903.39        66.47842
903.79        66.16702
904.18        65.96287
904.58        65.83778
904.98        65.80134
905.38        65.87045
905.77         66.0263
906.17        66.30634
906.57        66.54906
906.96        66.49882
907.36        66.11208
907.76        65.47114
908.15        64.89632
908.55        64.87091
908.95        65.49292
909.34        66.59207
909.74        67.75874
910.14        68.39816
910.53        68.33058
910.93        67.74762
911.33        66.88944
911.72        66.13348
912.12        65.64684
912.52        65.32549
912.91        65.12752
913.31        64.98747
913.70        64.88076
914.10        64.84826
914.49        64.91415
914.89        65.06803
915.29        65.29881
915.68        65.58703
916.08        65.84602
916.47        65.96403
916.87        65.92128
917.26        65.75399
917.66        65.58175
918.05        65.59312
918.45         65.8159
918.84        66.22209
919.24        66.68247
919.64          67.029
920.03        67.20902
920.42        67.25168
920.82        67.21154
921.21        67.20112
921.61        67.21951
922.00        67.23337
922.40        67.20412
922.79        67.13372
923.19        67.01132
923.58        66.87708
923.98        66.69823
924.37        66.36441
924.77        65.90919
925.16        65.35522
925.55        64.88361
925.95        64.77533
926.34        65.11031
926.74        65.76112
927.13        66.58768
927.52        67.26825
927.92        67.67851
928.31        67.89317
928.70        67.94572
929.10        67.93102
929.49         67.9093
929.89        67.84724
930.28        67.73692
930.67        67.53572
931.07        67.24122
931.46        66.87342
931.85        66.56932
932.24        66.53844
932.64        66.80175
933.03        67.33445
933.42        67.83505
933.82        67.85069
934.21        67.31944
934.60        66.37506
934.99        65.45707
935.39        65.21681
935.78        65.80932
936.17        67.05318
936.56        68.44952
936.96        69.07072
937.35        68.68265
937.74         67.5533
938.13        66.20795
938.53        65.32875
938.92        65.04514
939.31        65.20181
939.70        65.57165
940.09         65.7577
940.49        65.64169
940.88        65.37142
941.27        65.14818
941.66        65.27183
942.05         65.7935
942.44        66.58591
942.84         67.3805
943.23         67.7863
943.62        67.63593
944.01         67.0853
944.40         66.3686
944.79        65.85457
945.18        65.66538
945.57        65.68634
945.97         65.8539
946.36        66.16201
946.75         66.5277
947.14        66.96545
947.53        67.34783
947.92        67.43158
948.31        67.16949
948.70        66.64791
949.09        66.03184
949.48        65.57483
949.87        65.37074
950.26        65.38047
950.65        65.59589
951.04        65.99018
951.43        66.49332
951.82        67.03429
952.21        67.55124
952.60        67.97432
952.99        68.24575
953.38        68.35709
953.77        68.15801
954.16        67.41512
954.55        66.19066
954.94        64.69919
955.33        63.28293
955.72        62.43917
956.11        62.28142
956.50        62.61415
956.89        63.36169
957.28        64.38629
957.66        65.59303
958.05        66.90711
958.44         67.9036
958.83        67.78954
959.22        66.47774
959.61        64.29755
960.00        62.03169
960.39        60.79627
960.78        60.81952
961.16        61.82351
961.55        63.32167
961.94        64.56321
962.33        65.24458
962.72        65.57044
963.11        65.58743
963.49        65.41279
963.88        65.09785
964.27        64.60623
964.66        64.06945
965.04        63.71038
965.43        63.55518
965.82        63.56719
966.21        63.69371
966.60        63.78896
966.98        63.80784
967.37        63.79686
967.76        63.70633
968.15        63.44201
968.53         63.0181
968.92        62.43455
969.31        61.91027
969.69        61.80283
970.08        62.13547
970.47        62.82254
970.86        63.54869
971.24        63.74394
971.63        63.21421
972.02        62.19008
972.40        61.01362
972.79        60.22968
973.17          60.011
973.56        60.19319
973.95        60.61676
974.33        61.04915
974.72        61.34605
975.11        61.51927
975.49        61.71888
975.88         62.1853
976.26        62.99403
976.65        64.00241
977.04        64.71233
977.42        64.33195
977.81        62.78596
978.19        60.35809
978.58        58.19065
978.96        57.75199
979.35        59.30669
979.74        62.53323
980.12         66.4893
980.51        68.67068
980.89        68.41531
981.28        66.27785
981.66        63.47141
982.05        62.10021
982.43        62.68827
982.82        64.53535
983.20        67.09845
983.59         69.2751
983.97          70.703
984.35        71.71221
984.74         72.0216
985.12        71.29733
985.51        69.59003
985.89        66.93436
986.28        64.28157
986.66        63.03568
987.04        63.62383
987.43        65.71271
987.81        68.30081
988.20        69.42056
988.58        68.56647
988.96         66.1282
989.35        63.32657
989.73        62.10922
990.12        62.89962
990.50        65.19035
990.88        67.58769
991.27        67.84019
991.65        65.58304
992.03        61.65482
992.42        57.69856
992.80        55.95581
993.18        57.04781
993.56        60.18982
993.95        64.12334
994.33        66.91758
994.71        67.63428
995.10        66.86402
995.48        65.08234
995.86        63.12016
996.24        61.43327
996.63         59.7768
997.01        58.35055
997.39        57.45145
997.77        57.09488
998.15        57.33159
998.54        57.93393
998.92        58.36129
999.30        58.44815
999.68         58.2936
1000.06        58.08442
1000.45         58.1522
1000.83        58.72075
1001.21        59.61749
1001.59        60.66421
1001.97        61.59081
1002.35        62.25485
1002.73        62.64045
1003.12         62.8967
1003.50        63.21895
1003.88        63.65341
1004.26        64.16637
1004.64        64.39648
1005.02        63.78706
1005.40        62.32724
1005.78        60.23935
1006.16        58.20344
1006.54        57.43313
1006.92         58.2183
1007.30        60.11317
1007.69        62.33851
1008.07        63.81973
1008.45         64.1017
1008.83        63.58843
1009.21         62.4126
1009.59        60.81731
1009.97        59.05158
1010.35         57.0226
1010.73        55.39139
1011.11        55.33327
1011.49        57.15677
1011.86        60.86515
1012.24        65.23973
1012.62        68.24191
1013.00        69.03164
1013.38        67.80249
1013.76        65.65533
1014.14        64.83219
1014.52        66.03162
1014.90        68.64648
1015.28         71.2877
1015.66        71.48932
1016.04        68.97095
1016.41        65.13879
1016.79        61.52638
1017.17        59.42488
1017.55        58.84668
1017.93        59.25768
1018.31        60.40163
1018.69        61.32952
1019.06        61.41348
1019.44        61.17971
1019.82        60.60746
1020.20        59.49556
1020.58        57.83549
1020.95         55.3069
1021.33        52.68721
1021.71        51.98332
1022.09        54.16655
1022.46        58.64558
1022.84        63.55004
1023.22        66.41628
1023.60        66.62533
1023.97        64.83212
1024.35        61.72598
1024.73        58.70025
