SpectraSmart Spectrum 2.9.0.0
--------- Device Information -----------
Spectrum Name :  反射率_0
Saving Time :  2024/05/01 17:16:24
Spectro-Module Model Name : SE2030-DUVN
Spectro-Module Serial Number : OS361AC55029948
Wavelength Start : 200
Wavelength End : 1025
Wavelength Unit : Wavelength(nm)
Spectrum Unit : Reflectance(%)
-----------Spectrum Setting ------------
Integration Time : 20ms
Average : 10
Boxcar : 0
Background removal :  enabled
linearity correction :  enabled
SC :  disabled
Intensity correction :  disabled
DWT denoise :  enabled
savitzky-golay :  disabled
FFT :  disabled
Running average :  disabled
Kalman :  disabled
High pass :  disabled
---------------BEGIN--------------------
Wavelength(nm)             Reflectance(%)
200.29               0
200.75        295.3639
201.21        1202.258
201.67       -493.8211
202.13       -184.2376
202.58       -90.05473
203.04       -37.68406
203.50         -7.3478
203.96        3.716494
204.42       -2.612435
204.88       -46.64738
205.34       -1308.661
205.80        232.6542
206.26        170.3568
206.72        175.3931
207.18        328.2267
207.64       -184.6784
208.10       -27.94976
208.55        2.386386
209.01        11.70942
209.47        13.41456
209.93         10.7835
210.39        3.590879
210.85       -8.142099
211.31       -28.68011
211.77       -94.39526
212.23        407.8163
212.69        106.9673
213.14        102.7887
213.60        183.9809
214.06       -808.0432
214.52       -126.1171
214.98       -82.72398
215.44        -75.8485
215.90       -94.14127
216.36       -483.4828
216.81        126.3718
217.27        175.2935
217.73       -502.1413
218.19       -144.8162
218.65       -130.4303
219.11       -165.8222
219.57       -302.1318
220.02       -823.4693
220.48       -370.0231
220.94       -94.98961
221.40       -29.73437
221.86        -7.94804
222.32       0.2814941
222.77        3.756428
223.23        5.107644
223.69        5.006788
224.15        4.352959
224.61        4.121047
225.06         4.03536
225.52         4.71572
225.98        6.874582
226.44        10.76833
226.90        16.92572
227.36        24.72307
227.81        29.14273
228.27        27.73934
228.73        23.57868
229.19        19.67535
229.65        17.61767
230.10        17.12261
230.56        17.76606
231.02        19.18336
231.48        20.37031
231.93        20.76034
232.39        20.84822
232.85        21.11921
233.31         22.0901
233.77        23.64416
234.22        25.43422
234.68        27.06922
235.14         28.3702
235.60        29.39118
236.05        30.34762
236.51        31.29725
236.97        31.96573
237.43        31.91139
237.88        30.85036
238.34        29.03107
238.80        27.17007
239.26        25.17628
239.71         22.9516
240.17        19.25995
240.63        11.62641
241.08        1.496413
241.54       -7.032179
242.00       -10.87159
242.46       -8.936976
242.91      -0.5427396
243.37        16.78621
243.83        48.01954
244.28        78.69073
244.74        82.19401
245.20         69.4701
245.66         55.4378
246.11        44.71171
246.57        35.00484
247.03        22.56106
247.48        1.768021
247.94       -29.19729
248.40       -60.29096
248.85       -83.88922
249.31       -85.41515
249.77       -60.46634
250.22       -25.19104
250.68         8.33988
251.14        32.16888
251.59        42.49765
252.05        40.91469
252.51        24.45923
252.96       -23.05667
253.42       -95.46062
253.88       -92.10189
254.33       -27.67254
254.79        13.46038
255.25        29.61438
255.70        34.62767
256.16        36.39701
256.62        37.31683
257.07        38.57254
257.53        40.27016
257.99        41.63664
258.44        42.44939
258.90        42.87132
259.35        42.77702
259.81        42.58055
260.27        42.18742
260.72        41.50934
261.18        40.84153
261.63        40.04748
262.09        39.43177
262.55        39.06441
263.00         38.8235
263.46        38.69314
263.91           38.44
264.37        37.98135
264.83        37.28811
265.28        36.46885
265.74        35.62373
266.19        34.68629
266.65        33.77567
267.11        32.84108
267.56        32.08122
268.02        31.88976
268.47        32.25438
268.93        33.00618
269.38        33.76522
269.84         33.8534
270.30        33.14714
270.75        31.85542
271.21        30.35577
271.66        29.11702
272.12        28.34197
272.57         27.8479
273.03        27.57455
273.48        27.37924
273.94        27.21181
274.39        27.09997
274.85        27.00546
275.31        26.81402
275.76        26.49987
276.22        26.11117
276.67        25.66377
277.13        25.28173
277.58        24.93369
278.04        24.61252
278.49        24.27081
278.95        23.93675
279.40         23.5708
279.86        23.22469
280.31        22.82906
280.77        22.35371
281.22        21.77965
281.68        21.18203
282.13        20.61163
282.59        20.20464
283.04        19.95489
283.50        19.84857
283.95        19.81493
284.41        19.78542
284.86        19.72126
285.32        19.64702
285.77        19.58344
286.22        19.58392
286.68        19.65836
287.13        19.77133
287.59        19.87479
288.04        19.85519
288.50        19.72264
288.95        19.48649
289.41        19.27012
289.86        19.18819
290.32        19.27311
290.77        19.47409
291.22        19.69139
291.68        19.76738
292.13        19.67636
292.59        19.50421
293.04        19.33536
293.50         19.3472
293.95        19.56224
294.40        19.92269
294.86        20.36936
295.31        20.82364
295.77        21.23833
296.22        21.63214
296.68        21.96639
297.13        22.17271
297.58          22.264
298.04        22.27922
298.49        22.29327
298.95        22.46376
299.40        22.80352
299.85        23.25389
300.31        23.75551
300.76         24.2212
301.21        24.61451
301.67        24.96892
302.12        25.22448
302.58         25.3136
303.03        25.23168
303.48        25.03034
303.94        24.84862
304.39        24.84344
304.84        25.05685
305.30         25.4235
305.75        25.84061
306.20        26.15766
306.66        26.32842
307.11        26.38072
307.57        26.34453
308.02        26.22558
308.47        26.05307
308.93         25.8302
309.38        25.57929
309.83        25.38303
310.29        25.26472
310.74        25.20935
311.19         25.1818
311.65        25.10806
312.10        24.96947
312.55        24.79053
313.00        24.61976
313.46        24.53285
313.91        24.53645
314.36        24.59719
314.82         24.6579
315.27         24.6407
315.72        24.51906
316.18        24.32323
316.63        24.08103
317.08        23.83405
317.53        23.59874
317.99        23.36925
318.44        23.14395
318.89        22.93923
319.35         22.7607
319.80        22.60802
320.25        22.47713
320.70        22.35088
321.16        22.21861
321.61        22.08928
322.06         21.9576
322.51        21.82044
322.97        21.67471
323.42         21.5278
323.87        21.38576
324.32        21.26789
324.78        21.17366
325.23        21.10581
325.68         21.0463
326.13        20.97156
326.59        20.86735
327.04        20.74702
327.49        20.61135
327.94        20.47134
328.39        20.33184
328.85        20.18645
329.30        20.03995
329.75        19.88206
330.20        19.71297
330.66        19.53072
331.11        19.36032
331.56           19.22
332.01        19.11541
332.46        19.04595
332.92        18.97683
333.37        18.87308
333.82         18.7202
334.27        18.53379
334.72        18.36303
335.17        18.29548
335.63        18.34197
336.08        18.47897
336.53        18.64608
336.98        18.75694
337.43         18.7814
337.88        18.74437
338.34        18.64487
338.79        18.49662
339.24        18.31232
339.69        18.09031
340.14        17.88478
340.59         17.7815
341.05        17.78868
341.50        17.89292
341.95        18.02301
342.40        18.05692
342.85        17.97018
343.30        17.81049
343.75        17.63857
344.20         17.5497
344.66        17.57348
345.11         17.6634
345.56        17.81112
346.01        17.99924
346.46        18.20085
346.91         18.4106
347.36         18.5715
347.81        18.59978
348.26        18.48868
348.72        18.27572
349.17        18.01087
349.62        17.81423
350.07        17.71862
350.52        17.69173
350.97        17.70565
351.42        17.70583
351.87        17.67824
352.32        17.65856
352.77        17.62757
353.22        17.55427
353.67        17.44017
354.13        17.28413
354.58        17.15631
355.03         17.1967
355.48        17.41946
355.93        17.79136
356.38        18.15196
356.83        18.23095
357.28        17.98079
357.73        17.49531
358.18        16.99174
358.63        16.79399
359.08        16.96201
359.53        17.38777
359.98        17.88752
360.43        18.14679
360.88        18.07468
361.33         17.7825
361.78        17.39591
362.23        17.09659
362.68        16.94177
363.13        16.87021
363.58        16.85527
364.03        16.86239
364.48        16.86626
364.93        16.87659
365.38        16.87727
365.83        16.83475
366.28        16.74083
366.73        16.60376
367.18        16.41863
367.63        16.18608
368.08        15.92675
368.53        15.65728
368.98        15.42845
369.43        15.31119
369.88        15.31081
370.33        15.39696
370.78        15.52118
371.23        15.59444
371.68        15.57897
372.13        15.49691
372.58        15.34583
373.03         15.1244
373.48         14.8469
373.93        14.51844
374.38        14.19786
374.83        13.98645
375.28        13.91051
375.72         13.9457
376.17        14.03258
376.62        14.07253
377.07        14.03601
377.52        13.94612
377.97        13.83065
378.42        13.73616
378.87        13.67566
379.32        13.63195
379.77        13.58785
380.22        13.51943
380.67        13.42507
381.11        13.32345
381.56        13.23298
382.01        13.18516
382.46        13.18767
382.91        13.22485
383.36          13.281
383.81        13.33572
384.26        13.37303
384.71        13.38739
385.15        13.36565
385.60        13.30397
386.05        13.20255
386.50         13.0807
386.95        12.93938
387.40         12.7807
387.85        12.62045
388.29        12.45174
388.74         12.3506
389.19        12.37686
389.64        12.52592
390.09        12.76075
390.54        12.99274
390.98        13.07861
391.43        12.99074
391.88        12.78757
392.33        12.53752
392.78        12.34394
393.23        12.23576
393.67        12.16042
394.12        12.12723
394.57         12.1587
395.02        12.22686
395.47        12.25313
395.91        12.23353
396.36        12.22002
396.81        12.21829
397.26        12.18807
397.71        12.13338
398.15        12.09432
398.60        12.08913
399.05        12.05176
399.50        12.00269
399.95        12.05945
400.39        12.18234
400.84        12.15404
401.29        11.97013
401.74        11.81933
402.18        11.71455
402.63         11.5398
403.08        11.34394
403.53        11.25404
403.97        11.28008
404.42        11.38626
404.87        11.50171
405.32        11.51143
405.76         11.3892
406.21        11.17903
406.66        10.95067
407.11        10.81652
407.55        10.80856
408.00        10.89246
408.45         11.0156
408.90        11.07017
409.34        11.03161
409.79        10.95715
410.24        10.87834
410.68        10.81305
411.13         10.7738
411.58         10.7575
412.03        10.74682
412.47         10.7101
412.92        10.64166
413.37         10.5593
413.81        10.47978
414.26        10.43408
414.71        10.42408
415.15        10.44427
415.60        10.47306
416.05         10.4898
416.49         10.4846
416.94        10.46114
417.39        10.42961
417.83        10.40695
418.28        10.39791
418.73        10.39742
419.17        10.39234
419.62        10.35422
420.07         10.2861
420.51        10.19844
420.96        10.12628
421.41        10.10353
421.85        10.13091
422.30        10.19548
422.74        10.27411
423.19        10.34189
423.64         10.3853
424.08        10.41473
424.53        10.40709
424.98        10.34503
425.42        10.23448
425.87        10.09385
426.31        9.950933
426.76         9.85952
427.21        9.827661
427.65        9.838071
428.10        9.895917
428.54        10.00497
428.99         10.1475
429.44        10.32702
429.88        10.46587
430.33        10.45333
430.77        10.28379
431.22        10.00949
431.66        9.719124
432.11        9.571804
432.56        9.566876
433.00        9.638436
433.45        9.695758
433.89        9.555419
434.34        9.227483
434.78        9.316351
435.23        9.834758
435.67        10.05768
436.12        9.961634
436.57        9.926988
437.01        9.973663
437.46        9.943331
437.90        9.841925
438.35        9.731006
438.79        9.633546
439.24        9.560169
439.68        9.536016
440.13        9.623663
440.57        9.771675
441.02        9.848215
441.46        9.832866
441.91        9.720529
442.35        9.570053
442.80        9.631408
443.24         9.83638
443.69        9.790849
444.13        9.526679
444.58        9.428337
445.02        9.501865
445.47        9.542275
445.91        9.543193
446.36        9.592172
446.80        9.683185
447.24        9.785373
447.69         9.87634
448.13        9.925642
448.58        9.924686
449.02        9.882502
449.47        9.815634
449.91        9.742555
450.36        9.677023
450.80        9.616134
451.25        9.562206
451.69        9.510394
452.13        9.461811
452.58        9.422009
453.02         9.39348
453.47        9.386059
453.91        9.397769
454.36         9.42581
454.80        9.454796
455.24        9.457211
455.69        9.429488
456.13         9.37185
456.58        9.313445
457.02        9.285415
457.46        9.296812
457.91        9.338164
458.35        9.376397
458.79        9.344573
459.24        9.241472
459.68        9.112647
460.13        9.019669
460.57         8.86577
461.01        8.923813
461.46        8.976899
461.90        9.069215
462.34        9.102213
462.79         9.10934
463.23        9.063693
463.68        9.011922
464.12        9.006354
464.56        9.057981
465.01        9.156137
465.45        9.243212
465.89        9.250328
466.34        9.173254
466.78        9.030765
467.22        8.878391
467.67        8.827787
468.11        8.865476
468.55        8.993628
468.99        9.147742
469.44         9.24516
469.88        9.266327
470.32        9.233418
470.77        9.176782
471.21        9.140353
471.65        9.140628
472.10        9.161727
472.54        9.190393
472.98        9.214879
473.42        9.230845
473.87        9.249939
474.31        9.264775
474.75        9.272923
475.20        9.276352
475.64        9.266269
476.08        9.251166
476.52         9.26855
476.97         9.32545
477.41        9.372293
477.85        9.369881
478.29        9.520755
478.74        9.411231
479.18        9.364999
479.62        9.302266
480.06        9.346384
480.50        9.509085
480.95        9.573548
481.39        9.814727
481.83        9.882267
482.27        9.863129
482.72        9.785625
483.16        9.690794
483.60         9.66214
484.04        9.705429
484.48        9.783348
484.93        9.934433
485.37        10.12338
485.81        10.22056
486.25        10.61811
486.69        9.934528
487.14        9.745328
487.58         10.2854
488.02        10.30643
488.46        10.18202
488.90        10.31039
489.34        10.20569
489.79        10.21991
490.23        10.55909
490.67        10.77905
491.11        10.92752
491.55        10.85386
491.99        10.63621
492.43        10.57617
492.88        10.70627
493.32        10.84137
493.76        10.94699
494.20        11.06563
494.64        11.18927
495.08        11.29589
495.52        11.38103
495.96        11.48111
496.41        11.58609
496.85        11.58945
497.29        11.53306
497.73        11.63935
498.17        11.88196
498.61        11.98372
499.05        11.94079
499.49        11.97324
499.93        12.08451
500.37        12.14313
500.82        12.15919
501.26        12.20633
501.70        12.29113
502.14        12.39462
502.58        12.49164
503.02        12.54266
503.46        12.54338
503.90         12.5109
504.34        12.48461
504.78        12.52627
505.22        12.64792
505.66        12.82629
506.10        13.01897
506.54        13.15596
506.98        13.21509
507.42        13.21708
507.86        13.18423
508.30        13.15161
508.74        13.13523
509.18        13.12826
509.62        13.13297
510.06        13.15428
510.50        13.19128
510.94        13.24236
511.38        13.30595
511.82        13.37611
512.26        13.44578
512.70        13.51206
513.14        13.55591
513.58        13.55053
514.02        13.49411
514.46        13.39669
514.90        13.28915
515.34        13.22191
515.78        13.20952
516.22        13.24103
516.66        13.29236
517.10        13.32306
517.54        13.32159
517.98        13.29856
518.42        13.27127
518.86         13.2675
519.30        13.29317
519.74         13.3367
520.18        13.37712
520.62        13.38464
521.06        13.35233
521.50        13.28865
521.93        13.21731
522.37        13.17205
522.81        13.16346
523.25        13.18307
523.69        13.20516
524.13        13.18867
524.57        13.12777
525.01        13.03822
525.45          12.952
525.89        12.91867
526.32        12.94677
526.76        13.01407
527.20        13.09114
527.64        13.13018
528.08        13.11749
528.52        13.07156
528.96        13.00322
529.40        12.92908
529.83        12.85748
530.27        12.78656
530.71        12.73082
531.15        12.71755
531.59        12.74784
532.03        12.81243
532.46        12.87993
532.90         12.8992
533.34        12.86072
533.78         12.7715
534.22        12.65978
534.66        12.59105
535.09        12.56533
535.53        12.52617
535.97        12.47524
536.41        12.46086
536.85         12.4828
537.28        12.51643
537.72          12.551
538.16        12.58203
538.60        12.60516
539.04        12.61934
539.47        12.63262
539.91        12.66714
540.35        12.72331
540.79          12.801
541.22        12.88766
541.66        12.94277
542.10        12.99526
542.54        13.02527
542.97        13.05711
543.41        13.12241
543.85        13.22315
544.29        13.35021
544.72        13.48269
545.16        13.59359
545.60        13.67525
546.04        13.73515
546.47        13.79037
546.91        13.87197
547.35         13.9861
547.79        14.11886
548.22        14.24285
548.66        14.34818
549.10        14.43123
549.53        14.43067
549.97        14.50005
550.41        14.58562
550.84        14.73082
551.28        14.92169
551.72        15.11927
552.15        15.24551
552.59        15.29415
553.03        15.31041
553.46        15.31942
553.90        15.36876
554.34        15.47081
554.77        15.58427
555.21        15.68061
555.65        15.88612
556.08        15.89067
556.52        15.95296
556.96         15.9892
557.39        16.02494
557.83        16.06982
558.27        16.09612
558.70        16.10958
559.14        16.20103
559.57        16.22973
560.01        16.32691
560.45        16.41515
560.88        16.45704
561.32        16.48856
561.75        16.40938
562.19        16.46391
562.63          16.623
563.06        16.87506
563.50         16.8623
563.93        16.63785
564.37        16.61128
564.80        16.78938
565.24        16.95277
565.68         17.0658
566.11        17.17771
566.55        17.28366
566.98         17.3632
567.42        17.43878
567.85        17.53531
568.29        17.66434
568.72        17.80314
569.16        17.94939
569.60        18.07091
570.03        18.15451
570.47        18.21406
570.90         18.3471
571.34        18.32961
571.77        18.47666
572.21        18.56626
572.64        18.69381
573.08        18.76408
573.51        19.16948
573.95        19.19501
574.38        19.12443
574.82        19.31073
575.25        19.48396
575.69        19.54228
576.12        19.37459
576.56         19.6434
576.99        19.85356
577.42         19.5783
577.86        19.71919
578.29        19.68566
578.73        19.66112
579.16         19.4931
579.60         19.2569
580.03        19.13577
580.47        19.26497
580.90        18.99107
581.33        19.34476
581.77        19.47938
582.20        19.36654
582.64        19.09031
583.07           18.97
583.51        18.75083
583.94        18.64091
584.37          18.642
584.81        18.71035
585.24        18.63407
585.68        18.48071
586.11        18.26336
586.54         18.3774
586.98        18.34365
587.41        18.26812
587.85        18.19981
588.28        18.06334
588.71        17.86674
589.15        18.08797
589.58        17.72097
590.01        17.89635
590.45        17.84042
590.88        17.84297
591.31         17.8375
591.75        17.83863
592.18        17.76553
592.61        17.60738
593.05        17.84868
593.48        17.99557
593.91         17.8434
594.35        18.08531
594.78        18.15272
595.21        18.27966
595.65         18.3261
596.08        18.30011
596.51        18.47959
596.94        18.47668
597.38        18.61758
597.81        18.81801
598.24        18.84288
598.68        19.10573
599.11        19.34344
599.54        19.76829
599.97        19.72328
600.41         20.1241
600.84        20.44004
601.27        20.64389
601.70         21.0186
602.14        21.31897
602.57        21.55753
603.00        21.74191
603.43        21.86619
603.87        22.11832
604.30        22.47469
604.73        22.70846
605.16        22.97667
605.60        23.35665
606.03        23.82779
606.46        24.31088
606.89        24.56093
607.32        24.68268
607.76        24.85629
608.19        25.10221
608.62        25.52604
609.05        25.80514
609.48        25.97754
609.92        25.99228
610.35         26.4189
610.78        26.83966
611.21        27.21535
611.64        27.41951
612.07        27.73172
612.50        28.13878
612.94         28.3356
613.37         28.3224
613.80        28.60482
614.23        28.62156
614.66        28.87051
615.09        28.79096
615.52        29.11901
615.96        29.65397
616.39        30.03374
616.82        30.22957
617.25        30.44315
617.68        30.68524
618.11        30.87623
618.54        31.01079
618.97        31.08353
619.40        31.15682
619.84        31.29994
620.27        31.52636
620.70        31.93555
621.13        32.42427
621.56        32.38146
621.99        32.20721
622.42        32.25496
622.85        32.39371
623.28        32.63997
623.71        32.46585
624.14        32.56595
624.57        32.76551
625.00        32.84457
625.43        32.78314
625.86        32.68337
626.29        32.56222
626.72        32.40323
627.15        32.29016
627.58        32.08823
628.01        31.84727
628.44        31.80141
628.87        31.87455
629.30        31.62885
629.73        31.11012
630.16        30.88757
630.59        30.72571
631.02        30.59178
631.45        30.37806
631.88         30.1444
632.31        29.87837
632.74         29.5696
633.17        29.23486
633.60        28.89241
634.03        28.55042
634.46        28.20884
634.89        27.86465
635.32        27.51247
635.75        27.15489
636.18        26.79843
636.61        26.45213
637.04        26.12572
637.47        25.82057
637.89        25.52812
638.32        25.22617
638.75        24.92071
639.18        24.61796
639.61        24.22393
640.04        23.94267
640.47        23.65775
640.90        23.42995
641.33        23.24103
641.76        23.07843
642.18        22.95282
642.61        22.85888
643.04        22.74786
643.47        22.59397
643.90        22.67402
644.33        22.49855
644.76        22.42983
645.18          22.357
645.61        22.42451
646.04        22.60149
646.47          22.697
646.90        22.71591
647.33        22.81767
647.75        23.00628
648.18        23.18226
648.61        23.34494
649.04        23.53625
649.47        23.75674
649.89         24.0227
650.32        24.32124
650.75        24.57099
651.18        24.78077
651.61        25.13802
652.03        25.63817
652.46        25.93827
652.89        26.08271
653.32        26.50497
653.74        27.21357
654.17        27.38358
654.60        27.73993
655.03        27.77637
655.46        28.12862
655.88         28.9259
656.31        33.06645
656.74        33.21951
657.16        31.09269
657.59        30.60253
658.02        30.95864
658.45        30.86169
658.87        31.26548
659.30        31.16479
659.73        31.43583
660.15        32.13879
660.58        32.06079
661.01        32.34134
661.44        32.58619
661.86        32.88877
662.29        33.23116
662.72        33.51495
663.14        33.75708
663.57        34.02734
664.00        34.31143
664.42        34.51307
664.85        34.63933
665.27        34.73216
665.70        34.83567
666.13        35.00081
666.55        35.24689
666.98        35.55158
667.41        35.88984
667.83        36.21547
668.26         36.4981
668.69        36.74938
669.11        36.96496
669.54         37.1572
669.96        37.32623
670.39        37.43142
670.82        37.50673
671.24        37.63482
671.67         37.8252
672.09        38.03934
672.52        38.25438
672.94         38.4131
673.37        38.51075
673.80         38.5672
674.22        38.61679
674.65        38.69344
675.07        38.82095
675.50        38.97778
675.92        39.16134
676.35        39.36177
676.77        39.57326
677.20        39.79152
677.62         40.0027
678.05        40.17257
678.47        40.29404
678.90        40.38123
679.32          40.446
679.75        40.51931
680.17        40.60526
680.60        40.71098
681.02          40.841
681.45        40.94365
681.87        41.03646
682.30        41.23871
682.72        41.51493
683.15        41.60861
683.57        41.55732
684.00        41.65687
684.42        41.90475
684.85         42.0611
685.27        42.10479
685.70        42.22014
686.12        42.38305
686.54        42.37524
686.97        42.24812
687.39        42.36171
687.82        42.64835
688.24        42.67033
688.66        42.47064
689.09        42.43837
689.51        42.62998
689.94        42.93031
690.36        43.27889
690.78        43.49831
691.21        43.60595
691.63        43.83765
692.06        44.18901
692.48        44.49376
692.90        44.70351
693.33        44.82812
693.75        44.86679
694.17        44.77982
694.60        44.65448
695.02        44.66792
695.44        44.80656
695.87        44.96844
696.29        45.12656
696.71        45.11449
697.14        45.04153
697.56        45.43498
697.98        46.16121
698.41        46.46439
698.83        46.33673
699.25        46.33879
699.68        46.50791
700.10        46.61125
700.52        46.65911
700.94        46.74725
701.37        46.88039
701.79        47.09845
702.21        47.34187
702.64        47.49317
703.06        47.54859
703.48        47.55426
703.90        47.50682
704.33        47.68113
704.75        47.50438
705.17        47.56125
705.59        47.68997
706.01        47.85323
706.44        48.04396
706.86        48.31068
707.28        48.60695
707.70         48.8517
708.12        49.02164
708.55        49.08793
708.97        49.08582
709.39        49.15384
709.81        49.29895
710.23        49.40092
710.66        49.45785
711.08         49.5706
711.50        49.71577
711.92        49.81572
712.34        49.86452
712.76        49.88938
713.19        49.89838
713.61        49.93883
714.03         50.0072
714.45        50.09115
714.87         50.1925
715.29        50.31586
715.71        50.45653
716.13        50.61723
716.56        50.77235
716.98        50.89336
717.40        50.94247
717.82        51.01756
718.24        51.16458
718.66        50.99656
719.08        51.26221
719.50          51.353
719.92        51.47189
720.34        51.57251
720.76        51.65062
721.19        51.71085
721.61        51.74962
722.03        51.77418
722.45         51.7939
722.87         51.8167
723.29        51.86487
723.71        51.96377
724.13        52.09515
724.55          52.296
724.97        52.57702
725.39        52.73195
725.81        52.69529
726.23        53.33282
726.65        53.19171
727.07        53.12832
727.49         53.0681
727.91        52.81096
728.33        52.55379
728.75        52.46801
729.17        52.60527
729.59        52.88999
730.01        53.24649
730.43        53.54184
730.85         53.7232
731.27        53.84033
731.69         53.8811
732.10        53.82952
732.52        53.70272
732.94        53.49486
733.36        53.31907
733.78        53.33437
734.20        53.56013
734.62        54.05946
735.04         54.6561
735.46        54.77074
735.88        54.48328
736.30         54.5495
736.72        54.93409
737.13        55.01799
737.55        54.77147
737.97        54.49236
738.39        54.32124
738.81        54.50147
739.23        54.97781
739.65        55.27607
740.06        55.28894
740.48        55.36144
740.90        55.45732
741.32        55.35585
741.74        55.11045
742.16        54.95686
742.57        54.94305
742.99          55.021
743.41        55.17627
743.83        55.30968
744.25        55.43314
744.67        55.71912
745.08        56.10108
745.50        56.24992
745.92        56.13959
746.34        55.90857
746.75        55.64074
747.17        55.43862
747.59        55.33131
748.01        55.35848
748.42        55.48916
748.84         55.5101
749.26        55.47717
749.68        55.66587
750.09        56.02031
750.51        56.25752
750.93        56.32971
751.35        56.29757
751.76        56.19736
752.18        56.16633
752.60        56.24349
753.01        56.23137
753.43        56.16027
753.85        56.47788
754.27        57.03843
754.68        57.07632
755.10        56.67496
755.52        56.61586
755.93         56.9162
756.35        57.10817
756.77        57.18061
757.18        57.22532
757.60        57.23103
758.02        57.45274
758.43        57.73472
758.85        57.32296
759.26        56.50759
759.68        56.56609
760.10        57.43444
760.51         58.1014
760.93        58.37862
761.34        57.92091
761.76        57.99954
762.18        57.63157
762.59        57.35064
763.01        57.40816
763.42        57.75909
763.84        57.91332
764.26        57.83805
764.67        57.58187
765.09         57.3327
765.50        57.66352
765.92        58.23251
766.33        58.27726
766.75        57.69492
767.16        57.30025
767.58         57.2733
768.00        57.45417
768.41         57.8663
768.83        58.67159
769.24        59.58797
769.66          59.845
770.07        59.48689
770.49         59.2029
770.90        59.12465
771.32        59.11216
771.73        59.12824
772.15        59.02425
772.56        58.81136
772.97        58.66576
773.39        58.60064
773.80        58.60891
774.22        58.59135
774.63        58.67165
775.05          58.775
775.46        58.86306
775.88        58.90146
776.29        58.92685
776.70        58.95425
777.12        59.03103
777.53        59.16788
777.95        59.30703
778.36        59.44463
778.77        59.50906
779.19        59.48791
779.60        59.56366
780.02         59.6611
780.43        59.37073
780.84        58.88726
781.26        58.82197
781.67        59.18097
782.09        59.75267
782.50        60.26163
782.91        59.90094
783.33        59.11063
783.74        58.89211
784.15        59.39925
784.57        59.97279
784.98        60.35732
785.39        60.80569
785.81        61.20293
786.22        61.43949
786.63        61.78761
787.04        61.60728
787.46        61.14947
787.87        60.92244
788.28        61.04727
788.70        61.18578
789.11        61.31732
789.52        61.86175
789.93        62.55101
790.35        62.45066
790.76        61.64894
791.17         61.0489
791.58        60.84311
792.00        60.68109
792.41        60.60274
792.82        60.87829
793.23        61.33171
793.65        61.45576
794.06        61.22318
794.47        60.94453
794.88        60.79202
795.29        60.76343
795.71        60.82978
796.12        61.34348
796.53        62.05772
796.94        61.86748
797.35         60.8848
797.76        60.59226
798.18        61.06869
798.59        61.23431
799.00         61.0971
799.41        61.32154
799.82        61.83614
800.23        62.15741
800.64        62.21829
801.06         62.1363
801.47        61.99522
801.88        61.85993
802.29        61.76855
802.70        61.67252
803.11        61.59348
803.52        61.58314
803.93        61.66006
804.34        61.82864
804.75        62.01991
805.17        62.18855
805.58        62.35892
805.99        62.22834
806.40        61.92776
806.81        62.36066
807.22        63.24308
807.63        62.97374
808.04        61.74211
808.45        61.26931
808.86        61.68369
809.27        62.01694
809.68        62.14759
810.09         62.3206
810.50         62.4906
810.91         62.6049
811.32         62.6382
811.73        62.55064
812.14        62.35236
812.55        62.05882
812.96         61.8087
813.37        61.83091
813.78        62.16703
814.19         62.7483
814.60        63.37136
815.01        63.72141
815.42        63.72272
815.83        63.44836
816.24        63.05236
816.65        62.83715
817.05        62.91093
817.46        63.16302
817.87        63.46898
818.28        63.60905
818.69        63.52734
819.10        63.28762
819.51        63.00696
819.92        62.89069
820.33        62.99591
820.74        63.24834
821.14        63.50027
821.55        63.55975
821.96         63.3779
822.37        63.03905
822.78        62.67293
823.19        62.50504
823.60        62.61572
824.00        62.94963
824.41        63.39486
824.82         63.8609
825.23        64.27672
825.64        64.64354
826.04        64.93154
826.45        65.02673
826.86         64.9369
827.27        64.69059
827.68        64.31575
828.08        63.89106
828.49        63.43626
828.90        62.96442
829.31        62.59029
829.72        62.47308
830.12        62.66836
830.53         63.1235
830.94        63.64626
831.35        63.83891
831.75        63.62152
832.16        63.05815
832.57        62.49584
832.97         62.4649
833.38        63.04909
833.79        64.07037
834.20        65.17191
834.60        65.74323
835.01        65.59193
835.42        64.94265
835.82         64.0768
836.23         63.4227
836.64        63.12568
837.04        63.06821
837.45         63.1725
837.86        63.36404
838.26        63.59753
838.67        63.88411
839.08        64.16151
839.48        64.28497
839.89        64.21674
840.29        63.98363
840.70        63.69385
841.11        63.50003
841.51        63.46382
841.92        63.52713
842.33        63.67575
842.73        63.88558
843.14        64.08921
843.54        64.33823
843.95        64.57354
844.35        64.76031
844.76        64.85502
845.17          64.849
845.57        64.78496
845.98        64.72714
846.38        64.71017
846.79        64.71379
847.19        64.68583
847.60        64.47036
848.00        64.07669
848.41         63.5441
848.81        63.05505
849.22        62.85861
849.62        63.01715
850.03        63.44041
850.43        63.94395
850.84        64.07731
851.24        63.79127
851.65        63.19094
852.05        62.58154
852.46        62.44007
852.86        62.84689
853.27        63.60238
853.67        64.43855
854.07        65.17052
854.48        65.67958
854.88        66.12306
855.29        66.30131
855.69        66.09676
856.10        65.42668
856.50        64.42582
856.90        63.40896
857.31        62.84005
857.71        62.80689
858.12        63.15276
858.52        63.72095
858.92        64.00311
859.33         63.8264
859.73        63.39204
860.13        62.79373
860.54        62.20618
860.94         61.7187
861.34        61.26247
861.75        60.95127
862.15         61.0313
862.55        61.50561
862.96        62.27884
863.36        63.12227
863.76        63.57012
864.17        63.50694
864.57        63.07987
864.97        62.47395
865.38        62.01815
865.78        61.84652
866.18        61.83395
866.58         61.9519
866.99        62.14635
867.39        62.39507
867.79        62.72699
868.19        62.99556
868.60        62.94489
869.00        62.54232
869.40        61.84117
869.80        61.12607
870.21        60.93312
870.61        61.43368
871.01        62.39948
871.41        63.41582
871.81        63.85684
872.22        63.57916
872.62        62.78693
873.02        61.78241
873.42        61.06617
873.82        60.81783
874.22        60.90921
874.63        61.19944
875.03         61.4622
875.43        61.62357
875.83        61.76016
876.23        61.95223
876.63        62.31184
877.03        62.83918
877.44         63.4324
877.84        63.97225
878.24         64.2338
878.64        64.16183
879.04        63.83896
879.44        63.38542
879.84        62.98225
880.24        62.69133
880.64        62.47147
881.04        62.32566
881.44        62.24163
881.84        62.21733
882.24        62.29453
882.65        62.39221
883.05        62.45162
883.45        62.41559
883.85        62.27813
884.25        62.18985
884.65        62.38655
885.05        62.89537
885.45        63.65559
885.85        64.39411
886.25        64.64502
886.65        64.29881
887.05          63.486
887.45         62.5897
887.85         62.2104
888.25        62.48695
888.65        63.25692
889.04        64.12961
889.44        64.44218
889.84        64.05478
890.24        63.17257
890.64        62.21813
891.04          61.797
891.44        62.03758
891.84        62.77719
892.24        63.60347
892.64         63.8249
893.04        63.29071
893.44        62.23362
893.83         61.1776
894.23        60.91191
894.63        61.56212
895.03        62.87194
895.43         64.3056
895.83        64.89557
896.23         64.3925
896.63        63.18528
897.02        61.75165
897.42        60.84871
897.82        60.60966
898.22        60.84185
898.62        61.39042
899.01        62.02411
899.41        62.57393
899.81        63.11817
900.21        63.68182
900.61        64.28746
901.00        64.89985
901.40        65.42723
901.80        65.71503
902.20         65.5707
902.59        64.99738
902.99        64.09393
903.39        63.11263
903.79        62.45113
904.18        62.21198
904.58        62.31437
904.98         62.5933
905.38        62.78422
905.77        62.80762
906.17        62.77558
906.57        62.70451
906.96        62.63403
907.36        62.57752
907.76        62.50188
908.15        62.51785
908.55        62.77904
908.95        63.30208
909.34        64.03218
909.74        64.72431
910.14        65.05204
910.53        64.92265
910.93         64.4371
911.33        63.77481
911.72        63.22047
912.12        62.89286
912.52          62.722
912.91        62.62645
913.31        62.46294
913.70        62.21028
914.10        61.94535
914.49        61.76461
914.89        61.78185
915.29         62.0167
915.68        62.39632
916.08        62.83918
916.47        63.23013
916.87        63.51006
917.26        63.70713
917.66        63.79975
918.05        63.76426
918.45        63.60822
918.84        63.36691
919.24        63.12321
919.64        63.09158
920.03        63.33138
920.42        63.76338
920.82        64.24581
921.21         64.5918
921.61        64.71507
922.00        64.66217
922.40         64.4726
922.79        64.28624
923.19        64.14072
923.58        64.01408
923.98        63.83296
924.37        63.44603
924.77        62.87298
925.16        62.16604
925.55        61.52332
925.95        61.24914
926.34        61.43988
926.74        61.97059
927.13        62.70949
927.52        63.34547
927.92        63.75925
928.31        64.03017
928.70        64.18066
929.10        64.28552
929.49        64.38976
929.89        64.44415
930.28        64.45237
930.67        64.40195
931.07        64.28135
931.46        64.09026
931.85         63.8939
932.24        63.78747
932.64        63.78935
933.03        63.94007
933.42         64.0419
933.82        63.80264
934.21        63.19806
934.60        62.29535
934.99        61.50588
935.39        61.43183
935.78         62.2025
936.17        63.68468
936.56        65.26989
936.96        65.82764
937.35        65.10328
937.74        63.42233
938.13        61.59684
938.53        60.71819
938.92        60.96251
939.31        62.05479
939.70        63.42429
940.09        64.02573
940.49        63.56004
940.88        62.39752
941.27        61.11844
941.66         60.5738
942.05        60.96794
942.44        62.03674
942.84        63.34009
943.23        64.14263
943.62        64.14043
944.01        63.58152
944.40        62.81971
944.79         62.4066
945.18        62.49129
945.57        62.85847
945.97        63.29383
946.36        63.57772
946.75        63.59578
947.14         63.4659
947.53        63.21486
947.92        62.86916
948.31         62.4781
948.70        62.03448
949.09        61.65367
949.48        61.50966
949.87        61.63613
950.26        62.01833
950.65        62.50919
951.04        62.83555
951.43        62.90726
951.82        62.75392
952.21        62.55505
952.60         62.6106
952.99        62.95192
953.38        63.46669
953.77        63.88773
954.16        63.74616
954.55        62.98681
954.94        61.87984
955.33        60.72529
955.72         59.9655
956.11        59.72825
956.50        59.81385
956.89        60.27376
957.28        61.19862
957.66        62.54541
958.05        64.19595
958.44        65.59062
958.83        65.67014
959.22        64.26982
959.61        61.81722
960.00        59.21023
960.39        57.72378
960.78        57.63511
961.16        58.61471
961.55        60.15311
961.94        61.47203
962.33        62.23417
962.72        62.62743
963.11        62.68962
963.49        62.51139
963.88        62.14136
964.27        61.58595
964.66        60.90126
965.04        60.19022
965.43        59.49266
965.82        58.81038
966.21        58.35815
966.60        58.48244
966.98        59.24276
967.37        60.51612
967.76        61.84476
968.15        62.46037
968.53        62.17675
968.92        61.17494
969.31        59.92961
969.69        59.21236
970.08        59.19409
970.47        59.67949
970.86        60.32916
971.24        60.52885
971.63        60.06377
972.02        59.21612
972.40        58.29044
972.79        57.74294
973.17        57.71244
973.56        58.01051
973.95        58.50165
974.33        59.00822
974.72         59.4031
975.11        59.70455
975.49        59.99043
975.88        60.37458
976.26        60.91504
976.65        61.51148
977.04        61.86675
977.42        61.50107
977.81         60.3647
978.19        58.61142
978.58        57.10819
978.96        56.92067
979.35        58.22133
979.74        60.79634
980.12        63.87154
980.51         65.3273
980.89          64.685
981.28        62.42417
981.66         59.6874
982.05        58.44629
982.43        59.15843
982.82        61.18127
983.20        63.93198
983.59        66.22543
983.97        67.67558
984.35          68.608
984.74        68.78614
985.12        67.97563
985.51        66.25278
985.89        63.62371
986.28        61.02091
986.66        59.81038
987.04        60.40903
987.43        62.51273
987.81        65.10602
988.20        66.19784
988.58        65.28367
988.96        62.75557
989.35        59.89491
989.73        58.74977
990.12         59.7553
990.50         62.3677
990.88        65.09452
991.27        65.51723
991.65        63.23375
992.03        59.14187
992.42        54.97686
992.80        53.12619
993.18         54.2543
993.56        57.53636
993.95        61.69302
994.33        64.73852
994.71        65.71399
995.10        65.24937
995.48         63.7909
995.86        62.10823
996.24        60.66175
996.63        59.22043
997.01        58.06853
997.39        57.65919
997.77        58.01746
998.15        59.09875
998.54        60.57827
998.92        61.73195
999.30        62.27058
999.68        62.31499
1000.06        61.92461
1000.45        61.24315
1000.83        60.51083
1001.21        59.64315
1001.59         58.8336
1001.97         58.4348
1002.35        58.54241
1002.73         59.0808
1003.12        59.94975
1003.50        60.86023
1003.88        61.68202
1004.26        62.45601
1004.64        62.98104
1005.02        62.97117
1005.40        62.44488
1005.78        61.49434
1006.16        60.51008
1006.54        60.21865
1006.92        60.77899
1007.30        61.90128
1007.69        63.15963
1008.07        64.06744
1008.45         64.3305
1008.83        64.17256
1009.21        63.50097
1009.59        62.16257
1009.97        60.27635
1010.35        57.91844
1010.73        55.78197
1011.11        55.07775
1011.49        56.19371
1011.86        59.12313
1012.24        62.91965
1012.62        66.03601
1013.00        67.83319
1013.38        68.50429
1013.76        68.74154
1014.14        70.02824
1014.52        72.68655
1014.90         75.9968
1015.28        78.85931
1015.66         79.4248
1016.04        77.45135
1016.41        74.12771
1016.79        70.42663
1017.17        66.79221
1017.55        63.02843
1017.93        58.46062
1018.31        53.61628
1018.69        51.24057
1019.06        52.66434
1019.44        56.56792
1019.82         60.4008
1020.20         62.0685
1020.58        61.64142
1020.95        59.52161
1021.33        56.65826
1021.71        55.48244
1022.09        57.26284
1022.46        61.06913
1022.84        65.46631
1023.22        68.73953
1023.60        70.35864
1023.97        70.97784
1024.35        70.31784
1024.73        67.97493
