SpectraSmart Spectrum 2.9.0.0
--------- Device Information -----------
Spectrum Name :  反射率_0
Saving Time :  2024/05/01 17:21:54
Spectro-Module Model Name : SE2030-DUVN
Spectro-Module Serial Number : OS361AC55029948
Wavelength Start : 200
Wavelength End : 1025
Wavelength Unit : Wavelength(nm)
Spectrum Unit : Reflectance(%)
-----------Spectrum Setting ------------
Integration Time : 20ms
Average : 10
Boxcar : 0
Background removal :  enabled
linearity correction :  enabled
SC :  disabled
Intensity correction :  disabled
DWT denoise :  enabled
savitzky-golay :  disabled
FFT :  disabled
Running average :  disabled
Kalman :  disabled
High pass :  disabled
---------------BEGIN--------------------
Wavelength(nm)             Reflectance(%)
200.29               0
200.75        226.8878
201.21        915.2947
201.67       -359.9468
202.13       -125.8252
202.58       -54.39598
203.04        -14.2586
203.50        9.548056
203.96        19.47119
204.42        17.88571
204.88        -5.50844
205.34       -723.0728
205.80        159.4085
206.26        130.6219
206.72        151.2653
207.18        330.3707
207.64       -221.9448
208.10        -38.4945
208.55        5.058743
209.01        23.59798
209.47        30.13329
209.93        29.23306
210.39        22.26738
210.85        11.66242
211.31       -1.156924
211.77       -31.25562
212.23        178.5507
212.69        54.96599
213.14        63.94128
213.60        139.3481
214.06       -718.4316
214.52       -126.4554
214.98       -89.83765
215.44       -86.61713
215.90       -111.8058
216.36       -559.5358
216.81        102.7306
217.27        59.63716
217.73       -57.13444
218.19       -14.31263
218.65        -25.0678
219.11       -56.54607
219.57       -160.7815
220.02       -607.0585
220.48       -338.4174
220.94       -101.9733
221.40        -38.5213
221.86       -14.76597
222.32       -3.841302
222.77        3.270614
223.23        10.28038
223.69        18.04357
224.15        22.77359
224.61         22.2496
225.06        19.09356
225.52        16.67175
225.98        16.58632
226.44        18.73287
226.90        22.87415
227.36        28.65419
227.81        32.63653
228.27        32.61882
228.73        30.56006
229.19        28.27476
229.65        26.64394
230.10        25.55892
230.56         24.8574
231.02        24.41155
231.48        24.29596
231.93         24.5391
232.39        25.01997
232.85        26.08827
233.31        28.18957
233.77        30.99915
234.22        34.16471
234.68        36.76707
235.14        37.83741
235.60        37.22357
236.05          34.859
236.51        30.99191
236.97        27.94309
237.43        27.78706
237.88        30.48231
238.34        33.86931
238.80        34.83076
239.26        32.15461
239.71        25.52357
240.17        13.58253
240.63      -0.8923256
241.08       -10.36173
241.54       -12.32509
242.00       -9.126521
242.46       -4.145518
242.91        2.757591
243.37        13.98181
243.83        33.76491
244.28        56.06367
244.74        62.71264
245.20        57.48574
245.66        49.20044
246.11        40.83363
246.57        30.92741
247.03        16.21762
247.48       -7.974363
247.94       -38.43664
248.40       -61.62312
248.85       -72.94547
249.31       -65.43491
249.77       -41.31154
250.22       -13.07236
250.68        12.06432
251.14        29.55611
251.59        37.62337
252.05        37.83575
252.51        28.61065
252.96      -0.2043574
253.42        -45.0629
253.88       -44.37093
254.33       -4.890551
254.79        21.19117
255.25         32.1598
255.70        36.43624
256.16        38.87738
256.62        40.98281
257.07        43.42345
257.53        46.16769
257.99        48.53025
258.44        50.22375
258.90        51.43779
259.35        52.02057
259.81        52.38614
260.27        52.42407
260.72        52.02127
261.18        51.49225
261.63        50.69275
262.09         49.9293
262.55        49.18908
263.00        48.39629
263.46        47.64985
263.91        46.83532
264.37        46.08232
264.83        45.33854
265.28        44.60492
265.74        43.87558
266.19        42.89812
266.65        41.77758
267.11        40.53271
267.56        39.40557
268.02        38.86551
268.47        38.92788
268.93        39.39019
269.38        39.92303
269.84        39.93525
270.30        39.30078
270.75        38.20387
271.21        36.88655
271.66        35.59966
272.12        34.51949
272.57        33.52886
273.03        32.73423
273.48        32.24767
273.94        32.06902
274.39        32.11744
274.85        32.22261
275.31        32.07176
275.76        31.59836
276.22        30.94229
276.67         30.1811
277.13        29.53027
277.58        28.98412
278.04         28.5188
278.49         28.0839
278.95        27.71868
279.40         27.3733
279.86        27.09363
280.31        26.79702
280.77        26.44688
281.22        25.99858
281.68        25.51929
282.13        25.01827
282.59        24.59167
283.04        24.22897
283.50        23.94593
283.95        23.70717
284.41        23.50897
284.86        23.33376
285.32        23.19715
285.77        23.11029
286.22        23.11851
286.68        23.21959
287.13        23.37267
287.59        23.51536
288.04        23.50653
288.50        23.35218
288.95        23.07021
289.41        22.78768
289.86        22.61645
290.32        22.60307
290.77        22.69935
291.22        22.84166
291.68        22.92558
292.13        22.92726
292.59        22.91145
293.04        22.91871
293.50        23.05786
293.95        23.33425
294.40        23.71698
294.86        24.16443
295.31        24.62709
295.77        25.07342
296.22         25.5068
296.68        25.91501
297.13        26.26829
297.58        26.57834
298.04         26.8715
298.49        27.16009
298.95         27.5015
299.40        27.89063
299.85        28.30681
300.31        28.76054
300.76        29.26669
301.21         29.8141
301.67        30.39764
302.12        30.91755
302.58        31.24414
303.03        31.34295
303.48        31.28733
303.94        31.21608
304.39        31.27441
304.84         31.5174
305.30        31.88068
305.75        32.29238
306.20        32.65924
306.66        32.94321
307.11        33.14863
307.57        33.26765
308.02        33.23538
308.47        33.07246
308.93        32.80958
309.38        32.49516
309.83         32.2593
310.29        32.14072
310.74         32.1041
311.19        32.11366
311.65        32.09365
312.10        32.01641
312.55         31.9093
313.00        31.79636
313.46        31.71302
313.91        31.65951
314.36        31.61189
314.82        31.54747
315.27        31.44955
315.72        31.30441
316.18        31.12483
316.63        30.90146
317.08        30.62369
317.53         30.2952
317.99        29.92801
318.44        29.54396
318.89        29.19606
319.35        28.90553
319.80        28.66459
320.25        28.46296
320.70        28.27335
321.16        28.08028
321.61        27.89859
322.06        27.72451
322.51        27.55653
322.97        27.38699
323.42        27.21696
323.87        27.04266
324.32        26.87291
324.78        26.70211
325.23         26.5369
325.68        26.35825
326.13        26.14157
326.59        25.87644
327.04        25.58492
327.49        25.27884
327.94        24.98876
328.39        24.72582
328.85        24.47527
329.30        24.24783
329.75        24.03317
330.20        23.82736
330.66        23.62991
331.11         23.4389
331.56         23.2216
332.01        22.97788
332.46        22.72223
332.92         22.4726
333.37        22.28754
333.82        22.17345
334.27        22.11763
334.72        22.11615
335.17         22.1611
335.63        22.22631
336.08        22.31278
336.53        22.38157
336.98        22.38635
337.43        22.31388
337.88        22.17651
338.34        21.97754
338.79        21.74282
339.24        21.49015
339.69        21.22684
340.14        21.00025
340.59        20.87924
341.05        20.86475
341.50        20.93832
341.95        21.04192
342.40        21.07705
342.85        21.01864
343.30         20.9064
343.75        20.75817
344.20        20.60423
344.66        20.46623
345.11        20.31933
345.56        20.22539
346.01        20.28198
346.46        20.48977
346.91        20.81113
347.36        21.11307
347.81        21.19368
348.26        21.01858
348.72        20.65901
349.17        20.22927
349.62        19.95309
350.07        19.88723
350.52        19.96383
350.97        20.09027
351.42        20.11088
351.87        19.98802
352.32        19.79285
352.77        19.56882
353.22        19.37857
353.67        19.24368
354.13        19.13117
354.58        19.05936
355.03        19.09062
355.48        19.22374
355.93        19.45844
356.38        19.67532
356.83        19.67028
357.28        19.41726
357.73        18.98511
358.18        18.57187
358.63        18.47632
359.08        18.74426
359.53        19.27073
359.98        19.85773
360.43        20.16555
360.88        20.09632
361.33        19.76513
361.78        19.31053
362.23        18.93751
362.68        18.71091
363.13        18.56495
363.58        18.47801
364.03         18.4212
364.48         18.3733
364.93         18.3525
365.38        18.33039
365.83        18.25036
366.28        18.10254
366.73        17.89949
367.18        17.66893
367.63        17.46535
368.08        17.31326
368.53        17.20471
368.98        17.13654
369.43        17.10154
369.88        17.08726
370.33        17.08344
370.78        17.08341
371.23        17.07501
371.68        17.04814
372.13        17.00723
372.58        16.91788
373.03        16.72799
373.48         16.4412
373.93        16.08197
374.38        15.73935
374.83        15.56086
375.28        15.57973
375.72        15.74715
376.17         15.9683
376.62        16.09447
377.07        16.08182
377.52        15.96715
377.97        15.79899
378.42        15.65559
378.87        15.56351
379.32        15.50301
379.77        15.44524
380.22        15.34901
380.67        15.20908
381.11        15.04565
381.56        14.90609
382.01        14.86671
382.46        14.93871
382.91        15.09246
383.36        15.24863
383.81         15.2904
384.26         15.1889
384.71         14.9707
385.15        14.71019
385.60        14.54204
386.05        14.49443
386.50        14.54144
386.95        14.59719
387.40        14.52931
387.85        14.32481
388.29         14.0239
388.74        13.77182
389.19        13.72305
389.64        13.89275
390.09        14.20799
390.54        14.53771
390.98        14.67291
391.43        14.57082
391.88        14.31737
392.33        14.00711
392.78        13.77797
393.23        13.66662
393.67        13.60203
394.12        13.58708
394.57        13.63886
395.02        13.72295
395.47        13.75649
395.91        13.73155
396.36        13.70164
396.81         13.6744
397.26        13.60714
397.71          13.518
398.15        13.47265
398.60        13.49247
399.05        13.49459
399.50        13.48506
399.95        13.57339
400.39        13.70995
400.84        13.65558
401.29        13.41526
401.74        13.21811
402.18        13.08622
402.63        12.88776
403.08        12.67178
403.53        12.57079
403.97        12.59382
404.42        12.70347
404.87        12.83239
405.32        12.86978
405.76        12.78731
406.21        12.62683
406.66        12.44206
407.11         12.3212
407.55        12.29219
408.00        12.32544
408.45        12.39159
408.90         12.4229
409.34        12.40445
409.79        12.38365
410.24        12.36326
410.68        12.31379
411.13        12.24102
411.58        12.16183
412.03        12.08016
412.47        12.00215
412.92        11.93343
413.37         11.8734
413.81        11.83489
414.26         11.8455
414.71        11.89975
415.15        11.99678
415.60        12.08283
416.05        12.08297
416.49        11.98183
416.94        11.80085
417.39         11.6101
417.83        11.52294
418.28        11.56305
418.73        11.69299
419.17        11.84238
419.62        11.88956
420.07        11.81196
420.51        11.65226
420.96        11.47509
421.41        11.35854
421.85        11.32128
422.30        11.33722
422.74        11.38771
423.19        11.45748
423.64        11.53148
424.08        11.62227
424.53        11.68849
424.98        11.67748
425.42        11.58362
425.87        11.42866
426.31        11.25952
426.76        11.16411
427.21         11.1568
427.65        11.20856
428.10        11.30356
428.54        11.41022
428.99        11.50941
429.44        11.62813
429.88         11.7067
430.33        11.65826
430.77        11.48303
431.22        11.22319
431.66        10.97125
432.11        10.89443
432.56        10.98338
433.00        11.16569
433.45        11.31185
433.89        11.16499
434.34        10.73535
434.78        10.74415
435.23        11.23185
435.67        11.42085
436.12         11.3037
436.57        11.29444
437.01         11.3998
437.46        11.40892
437.90        11.31483
438.35        11.20004
438.79        11.08239
439.24        10.96005
439.68        10.86479
440.13        10.87019
440.57        10.94758
441.02        11.00211
441.46         11.0202
441.91        10.97804
442.35        10.89931
442.80        11.01099
443.24        11.22484
443.69        11.10527
444.13        10.72739
444.58        10.58134
445.02        10.68495
445.47        10.79213
445.91        10.86124
446.36         10.9383
446.80        11.00751
447.24        11.05514
447.69        11.09305
448.13        11.14306
448.58        11.20616
449.02        11.26769
449.47        11.31521
449.91        11.32264
450.36        11.28988
450.80        11.22819
451.25        11.14767
451.69        11.05436
452.13        10.95856
452.58        10.86487
453.02        10.78772
453.47         10.7571
453.91        10.77437
454.36        10.83246
454.80        10.90419
455.24        10.94108
455.69        10.93253
456.13        10.88258
456.58        10.82277
457.02        10.78725
457.46        10.78793
457.91        10.81423
458.35        10.83759
458.79        10.79694
459.24        10.69344
459.68        10.57645
460.13        10.50537
460.57         10.3505
461.01        10.42529
461.46        10.48136
461.90        10.58023
462.34         10.6251
462.79        10.65873
463.23        10.64463
463.68        10.62231
464.12        10.62917
464.56        10.67453
465.01        10.75716
465.45        10.82832
465.89        10.83473
466.34         10.7752
466.78        10.66248
467.22        10.54698
467.67        10.53358
468.11        10.59689
468.55        10.74718
468.99        10.91517
469.44         11.0149
469.88        11.02725
470.32        10.97403
470.77        10.89423
471.21        10.84702
471.65        10.85301
472.10        10.89582
472.54        10.95045
472.98        10.98647
473.42        10.99702
473.87        11.00008
474.31        11.00532
474.75        11.03768
475.20        11.10344
475.64        11.18307
476.08        11.26069
476.52        11.34202
476.97        11.42648
477.41        11.46133
477.85        11.42783
478.29        11.61953
478.74        11.54086
479.18        11.57389
479.62        11.58339
480.06        11.66296
480.50         11.8183
480.95        11.80298
481.39        12.00275
481.83        12.05612
482.27        12.08259
482.72        12.09244
483.16        12.09296
483.60        12.11329
484.04        12.14341
484.48        12.16763
484.93        12.26582
485.37        12.44145
485.81        12.55273
486.25        13.06382
486.69         12.2313
487.14        12.06269
487.58        12.89639
488.02         12.9743
488.46        12.82469
488.90        13.12642
489.34        12.78263
489.79        12.82346
490.23        13.33203
490.67        13.58329
491.11        13.65896
491.55        13.58635
491.99        13.44691
492.43         13.4177
492.88         13.5266
493.32        13.63848
493.76        13.74168
494.20         13.9047
494.64        14.12519
495.08        14.36364
495.52        14.58821
495.96        14.80009
496.41        14.97148
496.85        14.99149
497.29        14.92114
497.73        15.02466
498.17        15.29134
498.61        15.44195
499.05        15.46008
499.49        15.53817
499.93        15.67519
500.37        15.75518
500.82        15.79206
501.26        15.85991
501.70        15.96697
502.14        16.09294
502.58        16.21292
503.02        16.28953
503.46        16.31767
503.90        16.31241
504.34        16.31161
504.78        16.37394
505.22        16.51075
505.66        16.70194
506.10        16.90141
506.54        17.03316
506.98        17.07674
507.42         17.0555
507.86        17.00717
508.30        16.99083
508.74        17.02495
509.18        17.09351
509.62        17.17726
510.06        17.24495
510.50        17.28578
510.94        17.30946
511.38        17.32994
511.82        17.36693
512.26        17.42367
512.70        17.49179
513.14         17.5512
513.58        17.57251
514.02        17.55215
514.46        17.50224
514.90        17.44964
515.34        17.43724
515.78        17.47444
516.22        17.54574
516.66        17.62811
517.10        17.68526
517.54        17.70585
517.98        17.70101
518.42        17.67788
518.86        17.64817
519.30        17.61897
519.74        17.58701
520.18        17.55704
520.62        17.53806
521.06        17.52997
521.50        17.52898
521.93        17.53159
522.37        17.52534
522.81        17.50924
523.25        17.49003
523.69        17.46072
524.13        17.41024
524.57          17.342
525.01        17.26031
525.45        17.19276
525.89        17.18339
526.32        17.23576
526.76        17.32971
527.20        17.42783
527.64        17.46797
528.08        17.43562
528.52        17.35579
528.96         17.2488
529.40        17.14723
529.83        17.06356
530.27        16.99025
530.71        16.94339
531.15        16.95338
531.59        17.01746
532.03        17.12394
532.46        17.22203
532.90        17.23145
533.34        17.13915
533.78        16.96046
534.22        16.75068
534.66        16.62251
535.09        16.58331
535.53        16.55435
535.97        16.52406
536.41        16.53275
536.85        16.57421
537.28        16.62002
537.72          16.672
538.16        16.74923
538.60        16.84669
539.04        16.94903
539.47        17.04046
539.91        17.11198
540.35        17.15717
540.79        17.19045
541.22        17.21807
541.66        17.22326
542.10        17.25741
542.54        17.28606
542.97        17.33297
543.41        17.42423
543.85        17.55724
544.29        17.72454
544.72        17.90135
545.16        18.05499
545.60        18.17377
546.04        18.26804
546.47        18.35258
546.91         18.4454
547.35        18.55918
547.79        18.70631
548.22        18.85259
548.66         18.9654
549.10        19.04219
549.53         19.0185
549.97        19.09683
550.41        19.20043
550.84        19.38698
551.28        19.63883
551.72        19.90842
552.15        20.09865
552.59        20.19885
553.03        20.26251
553.46        20.31101
553.90        20.38991
554.34        20.51369
554.77        20.63629
555.21        20.72856
555.65        20.97138
556.08        20.96124
556.52        21.03482
556.96        21.08811
557.39        21.16459
557.83        21.27457
558.27        21.37676
558.70        21.45621
559.14         21.5948
559.57        21.59459
560.01        21.65486
560.45        21.70151
560.88        21.69079
561.32        21.67291
561.75        21.65987
562.19        21.69063
562.63        21.91883
563.06         22.2428
563.50        22.20638
563.93        21.88357
564.37        21.81888
564.80        22.02754
565.24        22.22175
565.68        22.35411
566.11        22.48299
566.55        22.60233
566.98        22.68939
567.42        22.77571
567.85         22.8938
568.29        23.06076
568.72        23.24117
569.16        23.42268
569.60        23.58205
570.03        23.70479
570.47        23.72729
570.90        23.84462
571.34        23.89223
571.77        23.96015
572.21        24.08534
572.64         24.3045
573.08        24.29386
573.51        24.53272
573.95        24.88926
574.38        24.71077
574.82        24.85158
575.25        25.05257
575.69        25.09576
576.12        24.98143
576.56        25.08684
576.99        25.14007
577.42        25.12894
577.86        25.14126
578.29        25.07073
578.73        25.26657
579.16        24.86062
579.60        24.70483
580.03        24.55631
580.47        24.77257
580.90        24.38646
581.33        24.73935
581.77        24.87783
582.20        24.72298
582.64        24.41322
583.07        24.34514
583.51        24.14995
583.94        24.08018
584.37        24.13661
584.81        24.25245
585.24        24.17098
585.68         23.9606
586.11        23.64986
586.54        23.63176
586.98        23.57839
587.41        23.54669
587.85        23.65507
588.28        23.36813
588.71        23.02316
589.15        23.53479
589.58        23.08463
590.01        23.42318
590.45        23.30693
590.88        23.20744
591.31        23.20873
591.75        23.32264
592.18        23.25614
592.61        22.95372
593.05        23.30701
593.48        23.27336
593.91        23.07779
594.35        23.37835
594.78        23.46475
595.21        23.56515
595.65        23.77214
596.08        23.62617
596.51        23.83961
596.94        23.94999
597.38        24.17711
597.81        24.44448
598.24        24.50829
598.68        24.78586
599.11         25.2496
599.54        25.35688
599.97         25.5464
600.41        25.85287
600.84        26.15924
601.27        26.39645
601.70        26.78808
602.14        27.10381
602.57        27.43386
603.00        27.72967
603.43        27.92465
603.87        28.22532
604.30        28.70541
604.73        28.87649
605.16        29.22964
605.60        29.57906
606.03        29.98292
606.46        30.34701
606.89        30.59085
607.32        30.82033
607.76        31.06166
608.19        31.34784
608.62        31.84135
609.05         32.1249
609.48        32.44513
609.92        32.74268
610.35        32.72789
610.78         33.3591
611.21        33.64566
611.64        33.87274
612.07        34.23454
612.50        34.61292
612.94        34.85245
613.37         34.9276
613.80        35.14082
614.23        35.24158
614.66        35.59713
615.09        35.60156
615.52         35.8984
615.96        36.29449
616.39        36.67798
616.82        36.99581
617.25        37.22686
617.68        37.37806
618.11        37.47265
618.54        37.55368
618.97        37.70102
619.40        37.93462
619.84        38.11356
620.27         38.2268
620.70        38.51735
621.13         38.9598
621.56        38.79246
621.99        38.81853
622.42        39.01571
622.85        39.00854
623.28        39.34303
623.71        39.16698
624.14        39.36027
624.57        39.50611
625.00        39.57726
625.43        39.50306
625.86        39.42697
626.29        39.36848
626.72        39.07216
627.15        39.00623
627.58         38.7269
628.01        38.43342
628.44        38.41249
628.87        38.58084
629.30        38.44957
629.73        38.03853
630.16        37.78262
630.59        37.68362
631.02        37.50122
631.45        37.22444
631.88        36.91125
632.31        36.55509
632.74        36.32916
633.17        35.91355
633.60        35.61745
634.03        35.34176
634.46        35.08585
634.89        34.82059
635.32        34.50235
635.75        34.12591
636.18         33.7087
636.61        33.26653
637.04        32.82166
637.47        32.38858
637.89         31.9578
638.32        31.53806
638.75          31.195
639.18        30.94403
639.61        30.64815
640.04        30.51006
640.47        30.29365
640.90        30.05343
641.33        29.78938
641.76        29.52429
642.18        29.33992
642.61        29.25044
643.04        29.17115
643.47         29.0484
643.90        29.20704
644.33        29.00583
644.76        28.92365
645.18        28.82274
645.61        28.89304
646.04        29.09772
646.47        29.18653
646.90        29.16779
647.33        29.25227
647.75        29.44674
648.18         29.6235
648.61         29.7808
649.04        29.97107
649.47        30.19548
649.89         30.4677
650.32        30.77273
650.75        31.03603
651.18        31.26508
651.61        31.62488
652.03        32.10849
652.46         32.4195
652.89        32.56925
653.32        32.91814
653.74        33.52617
654.17        33.72107
654.60        33.98433
655.03        34.62006
655.46        34.53368
655.88        35.26018
656.31        38.73375
656.74        38.48315
657.16        35.57578
657.59        35.32927
658.02        36.53432
658.45        37.13202
658.87        37.53557
659.30        37.62013
659.73        37.88692
660.15        38.41356
660.58        38.51878
661.01         38.8045
661.44        39.06131
661.86        39.32716
662.29        39.62022
662.72        39.91629
663.14        40.23149
663.57        40.57789
664.00        40.91047
664.42        41.11773
664.85        41.20116
665.27        41.20822
665.70        41.21189
666.13        41.30716
666.55        41.52798
666.98        41.84598
667.41        42.21342
667.83        42.54299
668.26        42.79247
668.69        42.98603
669.11        43.14889
669.54        43.33314
669.96        43.54394
670.39        43.74142
670.82        43.92001
671.24        44.05077
671.67        44.15794
672.09        44.34082
672.52        44.58377
672.94        44.73473
673.37        44.79128
673.80        44.83059
674.22        44.89037
674.65        44.97461
675.07        45.10595
675.50        45.27373
675.92        45.45991
676.35        45.63131
676.77        45.78208
677.20        45.90432
677.62        46.01852
678.05        46.17225
678.47        46.35685
678.90          46.511
679.32        46.62307
679.75        46.74195
680.17        46.86275
680.60        46.95972
681.02        47.05017
681.45        47.14386
681.87        47.24908
682.30        47.39559
682.72        47.58714
683.15        47.58144
683.57        47.73191
684.00        47.76494
684.42        47.80996
684.85        47.90538
685.27        48.04787
685.70        48.21993
686.12        48.38287
686.54        48.48647
686.97        48.51397
687.39        48.55061
687.82        48.58885
688.24        48.49946
688.66        48.35658
689.09        48.46793
689.51        48.82329
689.94        49.08031
690.36        49.21735
690.78        49.44538
691.21        49.76424
691.63        49.99452
692.06        50.16986
692.48        50.53265
692.90        50.99471
693.33          51.204
693.75        51.13585
694.17        50.92341
694.60        50.69191
695.02        50.62406
695.44        50.71671
695.87        50.83388
696.29        50.94727
696.71         50.9193
697.14        50.84595
697.56        51.22865
697.98         51.9352
698.41        52.19164
698.83         52.0212
699.25        52.09745
699.68        52.42517
700.10        52.60507
700.52        52.62783
700.94        52.67953
701.37        52.77892
701.79        52.95656
702.21        53.15703
702.64        53.25555
703.06         53.2634
703.48        53.25418
703.90        53.22492
704.33        53.47523
704.75         53.3438
705.17        53.44761
705.59        53.59214
706.01        53.76471
706.44        53.95688
706.86        54.17397
707.28        54.39445
707.70        54.64223
708.12        54.87373
708.55        54.93073
708.97        54.84347
709.39        54.83433
709.81        54.91889
710.23        54.95086
710.66        54.93588
711.08        54.98887
711.50        55.09744
711.92        55.19809
712.34         55.2851
712.76        55.37884
713.19        55.46423
713.61        55.55402
714.03        55.63078
714.45        55.68843
714.87        55.74597
715.29         55.8369
715.71        55.96687
716.13        56.13021
716.56        56.27702
716.98        56.39287
717.40        56.44304
717.82        56.43944
718.24        56.42971
718.66        56.49232
719.08         56.6405
719.50        56.84563
719.92           57.05
720.34        57.16031
720.76        57.15398
721.19        57.06445
721.61        56.94218
722.03        56.85934
722.45        56.84764
722.87        56.89631
723.29        56.99075
723.71         57.1061
724.13        57.22674
724.55        57.34602
724.97        57.48167
725.39        57.66072
725.81        57.87729
726.23         58.1202
726.65        58.30965
727.07        58.32196
727.49        58.14868
727.91        57.83916
728.33        57.52888
728.75        57.43801
729.17        57.62035
729.59        57.97947
730.01        58.38836
730.43        58.71269
730.85        58.90559
731.27        58.68243
731.69        58.70998
732.10         58.5725
732.52        58.49181
732.94        58.41547
733.36        58.39975
733.78          58.519
734.20        58.76444
734.62        59.16148
735.04        59.58572
735.46        59.72404
735.88        59.59065
736.30        59.49822
736.72        59.49263
737.13        59.45386
737.55        59.38683
737.97        59.37765
738.39        59.45117
738.81        59.66692
739.23        59.97897
739.65        60.19101
740.06         60.2322
740.48         60.2753
740.90        60.29856
741.32        60.21388
741.74        60.05582
742.16         59.9634
742.57         59.9704
742.99        60.01057
743.41        60.10813
743.83        60.32138
744.25        60.61955
744.67        60.92263
745.08        61.15213
745.50        61.17527
745.92        60.98487
746.34        60.60588
746.75        60.15677
747.17        59.87202
747.59        59.79481
748.01        59.87213
748.42        60.06318
748.84        60.26015
749.26        60.42989
749.68        60.59962
750.09        60.75157
750.51        60.87254
750.93        60.95792
751.35        61.00042
751.76        61.03287
752.18        61.11263
752.60        61.25125
753.01        61.44441
753.43        61.63684
753.85        61.76421
754.27        61.81584
754.68        61.84555
755.10        61.87064
755.52        61.87109
755.93        61.85658
756.35        61.88317
756.77        61.97173
757.18        62.02166
757.60        62.03618
758.02        62.28904
758.43        62.54129
758.85        62.35602
759.26        61.21094
759.68        61.18576
760.10        62.03751
760.51         62.7398
760.93        63.13426
761.34        62.27789
761.76        62.70601
762.18        62.08769
762.59        61.45806
763.01        61.67461
763.42         62.6474
763.84        63.05528
764.26        62.77812
764.67        62.52646
765.09         62.4227
765.50        62.36501
765.92        62.38063
766.33        62.23608
766.75        61.89617
767.16        62.17167
767.58        62.24208
768.00        62.55698
768.41         62.8567
768.83        63.26937
769.24        63.68624
769.66        63.84634
770.07        63.76133
770.49        63.52636
770.90        63.27738
771.32        63.33816
771.73        63.65181
772.15        63.74629
772.56         63.6056
772.97        63.52607
773.39        63.53674
773.80        63.59184
774.22        63.66829
774.63        63.81379
775.05        63.96223
775.46        64.07199
775.88        64.10041
776.29        64.08593
776.70        64.04092
777.12        64.01054
777.53        64.02254
777.95        64.03745
778.36         64.0607
778.77        64.06688
779.19        64.05543
779.60        64.08305
780.02        64.11814
780.43         64.0591
780.84        63.96072
781.26         63.9017
781.67        63.93068
782.09        64.21829
782.50        64.62212
782.91         64.5571
783.33        64.12518
783.74        64.06738
784.15        64.43398
784.57        64.75832
784.98        65.01191
785.39        65.32105
785.81        65.66055
786.22        65.79495
786.63        66.05042
787.04        66.03896
787.46        65.90144
787.87        65.62421
788.28        65.37755
788.70        65.37095
789.11        65.61185
789.52        66.11678
789.93        66.68669
790.35        66.83538
790.76        66.56933
791.17        66.29774
791.58        66.13171
792.00        65.95678
792.41        65.83251
792.82        65.85201
793.23        65.94479
793.65        66.01498
794.06        65.99662
794.47        65.69509
794.88        65.29575
795.29        65.21394
795.71        65.43076
796.12        65.83092
796.53        66.25957
796.94        66.50291
797.35         66.4638
797.76        66.21706
798.18        65.91684
798.59        65.77167
799.00        65.84856
799.41        66.06728
799.82        66.36863
800.23        66.65465
800.64        66.87623
801.06        67.05218
801.47        67.16829
801.88        67.10702
802.29        66.86493
802.70          66.463
803.11         66.0551
803.52        65.89531
803.93        66.05587
804.34        66.48228
804.75        67.00583
805.17        67.40076
805.58        67.62981
805.99        67.44303
806.40        67.02093
806.81        67.33567
807.22        68.13778
807.63         67.8229
808.04        66.56174
808.45        66.02537
808.86        66.33879
809.27        66.57558
809.68        66.62968
810.09        66.75597
810.50        66.91447
810.91        67.03826
811.32        67.11344
811.73        67.11983
812.14        67.06261
812.55         66.9541
812.96        66.86255
813.37        66.90085
813.78        67.09011
814.19        67.39151
814.60        67.72205
815.01        67.95263
815.42         68.0472
815.83        68.03805
816.24        67.94872
816.65        67.83002
817.05        67.71729
817.46        67.58113
817.87        67.46127
818.28        67.37395
818.69        67.32014
819.10        67.29977
819.51        67.31828
819.92        67.37318
820.33        67.45485
820.74         67.5591
821.14        67.63938
821.55        67.65771
821.96        67.59798
822.37         67.4794
822.78        67.36428
823.19        67.36324
823.60        67.51174
824.00        67.80228
824.41        68.12838
824.82        68.41399
825.23        68.61059
825.64        68.71081
826.04        68.76642
826.45        68.79742
826.86        68.83756
827.27         68.8857
827.68        68.83952
828.08        68.55266
828.49         67.9894
828.90        67.22807
829.31        66.51652
829.72        66.23347
830.12        66.49778
830.53        67.19027
830.94        68.02583
831.35        68.43619
831.75        68.27692
832.16        67.65891
832.57        66.99047
832.97        66.89258
833.38        67.47646
833.79        68.53458
834.20        69.66954
834.60        70.21176
835.01        69.95432
835.42         69.1488
835.82        68.13475
836.23        67.42301
836.64        67.17471
837.04        67.25056
837.45        67.49873
837.86        67.72572
838.26        67.85654
838.67        67.93204
839.08        67.97816
839.48        67.99412
839.89        67.97698
840.29        67.91199
840.70        67.81426
841.11        67.68982
841.51        67.56694
841.92        67.43094
842.33        67.35857
842.73        67.47486
843.14        67.74564
843.54        68.17395
843.95        68.60783
844.35        68.86143
844.76        68.85079
845.17        68.62942
845.57        68.31526
845.98        68.08588
846.38        68.01343
846.79        68.03735
847.19        68.10017
847.60        68.02733
848.00        67.80998
848.41        67.49911
848.81         67.2222
849.22        67.14659
849.62        67.32242
850.03        67.65904
850.43        68.06373
850.84        68.24626
851.24        68.19205
851.65        67.95365
852.05        67.68532
852.46        67.60246
852.86        67.74015
853.27        68.01321
853.67        68.32453
854.07        68.71632
854.48        69.10733
854.88        69.59329
855.29        69.89371
855.69        69.74487
856.10        69.00332
856.50        67.87141
856.90        66.71192
857.31        66.04841
857.71        65.98663
858.12        66.33592
858.52        66.95019
858.92        67.33934
859.33        67.31863
859.73        67.07841
860.13        66.65855
860.54        66.15443
860.94        65.63818
861.34         65.0573
861.75        64.57269
862.15        64.51833
862.55        64.93377
862.96        65.72052
863.36        66.61422
863.76        67.08755
864.17        67.00566
864.57        66.51566
864.97        65.87514
865.38        65.52878
865.78        65.62447
866.18        66.00777
866.58        66.47292
866.99        66.65652
867.39        66.48827
867.79        66.11687
868.19        65.67634
868.60        65.31195
869.00        65.07803
869.40        64.92162
869.80        64.92404
870.21        65.23298
870.61        65.87638
871.01        66.72237
871.41        67.50175
871.81        67.81775
872.22        67.58588
872.62          66.926
873.02        66.04392
873.42        65.29561
873.82        64.83344
874.22        64.60634
874.63        64.57102
875.03          64.639
875.43        64.77338
875.83        65.00014
876.23        65.34637
876.63        65.84047
877.03        66.45218
877.44        67.10932
877.84        67.68377
878.24        67.93462
878.64        67.81004
879.04         67.3829
879.44        66.83305
879.84        66.43769
880.24        66.27089
880.64        66.27177
881.04        66.34687
881.44        66.32403
881.84        66.16942
882.24        65.96854
882.65        65.76801
883.05        65.74303
883.45        65.89453
883.85        66.13869
884.25        66.47582
884.65        66.93058
885.05        67.47993
885.45        68.11558
885.85        68.66594
886.25        68.83928
886.65        68.57141
887.05        67.93677
887.45        67.20451
887.85        66.79903
888.25        66.83299
888.65        67.22228
889.04        67.71024
889.44        67.84431
889.84         67.5338
890.24        66.90161
890.64        66.27213
891.04        66.10896
891.44        66.49897
891.84        67.32942
892.24        68.19106
892.64        68.39837
893.04        67.81257
893.44        66.64648
893.83        65.48898
894.23        65.23719
894.63        66.03073
895.03         67.6027
895.43        69.30067
895.83        69.93854
896.23        69.22952
896.63        67.64643
897.02        65.84267
897.42         64.8264
897.82        64.76424
898.22        65.38097
898.62        66.38204
899.01        67.29311
899.41        67.86202
899.81        68.24635
900.21        68.56509
900.61        69.00235
901.00        69.58721
901.40        70.17701
901.80        70.59446
902.20         70.6147
902.59        70.21879
902.99         69.5149
903.39        68.73235
903.79        68.22498
904.18        68.07362
904.58        68.19137
904.98        68.41925
905.38        68.51276
905.77         68.4035
906.17        68.21336
906.57        67.95711
906.96        67.66785
907.36        67.37725
907.76        67.07954
908.15        66.93799
908.55        67.18009
908.95        67.83373
909.34         68.8093
909.74        69.81326
910.14        70.44035
910.53        70.55701
910.93        70.27296
911.33        69.73992
911.72        69.20851
912.12         68.8036
912.52        68.46452
912.91        68.17545
913.31        67.90955
913.70        67.66653
914.10        67.47697
914.49        67.38434
914.89        67.40881
915.29        67.54839
915.68         67.7908
916.08        68.03143
916.47        68.12239
916.87        68.03458
917.26        67.80965
917.66        67.59628
918.05         67.6257
918.45        67.93407
918.84        68.48743
919.24        69.10314
919.64        69.52615
920.03        69.67993
920.42        69.60495
920.82        69.44509
921.21        69.44921
921.61        69.63598
922.00         69.9369
922.40        70.17542
922.79        70.11482
923.19        69.69838
923.58         69.0633
923.98        68.36271
924.37        67.73536
924.77        67.26419
925.16        66.89783
925.55         66.6991
925.95        66.73621
926.34        67.02173
926.74          67.496
927.13        68.10571
927.52        68.66302
927.92        69.08435
928.31        69.39479
928.70        69.57722
929.10        69.65536
929.49        69.65728
929.89        69.55994
930.28        69.38522
930.67         69.1319
931.07        68.81152
931.46        68.44907
931.85        68.12048
932.24        67.93762
932.64        67.92723
933.03        68.10904
933.42        68.33113
933.82        68.37257
934.21        68.18717
934.60         67.7989
934.99        67.47102
935.39        67.57825
935.78        68.21306
936.17        69.30802
936.56        70.40813
936.96        70.69281
937.35        70.01896
937.74        68.60761
938.13        67.16003
938.53        66.61734
938.92        67.09865
939.31        68.37402
939.70        69.84389
940.09        70.40023
940.49         69.7515
940.88        68.30186
941.27        66.68943
941.66        65.85867
942.05         66.0368
942.44        66.92152
942.84        68.12251
943.23        68.99513
943.62        69.22868
944.01         69.0595
944.40        68.63524
944.79        68.17991
945.18        67.80519
945.57        67.40306
945.97        67.06303
946.36        67.05273
946.75        67.36324
947.14        67.96024
947.53        68.60268
947.92        68.82831
948.31        68.52293
948.70        67.83868
949.09        67.05277
949.48        66.58458
949.87        66.56532
950.26        66.90459
950.65        67.47346
951.04        68.04033
951.43        68.48675
951.82        68.81372
952.21        69.11552
952.60        69.55717
952.99        70.13161
953.38        70.75497
953.77        71.13454
954.16        70.78284
954.55        69.67179
954.94        68.08453
955.33        66.46528
955.72        65.47298
956.11        65.26942
956.50        65.60806
956.89         66.3597
957.28        67.30375
957.66        68.32558
958.05        69.38663
958.44        70.11443
958.83        69.80324
959.22        68.39674
959.61        66.19155
960.00         63.9287
960.39        62.66359
960.78        62.60139
961.16        63.48162
961.55        64.81952
961.94        65.86699
962.33        66.33514
962.72        66.43927
963.11        66.25591
963.49        65.96119
963.88         65.6274
964.27         65.1954
964.66        64.79019
965.04        64.62971
965.43        64.72124
965.82        65.01681
966.21        65.39187
966.60         65.5674
966.98        65.46545
967.37        65.17862
967.76        64.74552
968.15        64.22141
968.53        63.68341
968.92        63.10695
969.31        62.70991
969.69        62.83983
970.08         63.5049
970.47        64.62411
970.86        65.82272
971.24        66.40936
971.63        66.12182
972.02        65.18137
972.40        63.96754
972.79         63.1102
973.17        62.80972
973.56        62.89817
973.95        63.18307
974.33        63.37283
974.72        63.32386
975.11        63.08709
975.49        62.91782
975.88        63.24168
976.26        64.20498
976.65        65.61849
977.04        66.86848
977.42        66.97056
977.81        65.77783
978.19        63.59412
978.58        61.60873
978.96        61.38384
979.35        63.19538
979.74        66.66586
980.12        70.79121
980.51        72.94048
980.89        72.41822
981.28        69.84196
981.66        66.46715
982.05        64.42948
982.43        64.30959
982.82        65.44478
983.20        67.42912
983.59        69.37783
983.97        70.96553
984.35        72.42392
984.74        73.32725
985.12        73.11019
985.51        71.71841
985.89        69.22315
986.28        66.53037
986.66         64.9874
987.04        65.05704
987.43        66.45573
987.81        68.35739
988.20        69.09564
988.58        68.27901
988.96        66.24712
989.35         64.1328
989.73        63.72365
990.12        65.32813
990.50         68.3922
990.88        71.45402
991.27        72.16358
991.65        70.11738
992.03        66.19875
992.42        61.98133
992.80        59.60254
993.18        59.74288
993.56        61.69992
993.95        64.59583
994.33        67.16666
994.71        68.63914
995.10        69.39349
995.48        69.45185
995.86        68.84489
996.24         67.7552
996.63        66.15733
997.01        64.40715
997.39        63.07017
997.77        62.29162
998.15         62.0192
998.54        62.19161
998.92        62.61025
999.30        63.16982
999.68        63.91309
1000.06        64.69707
1000.45        65.23628
1000.83        65.55792
1001.21         65.5941
1001.59        65.43168
1001.97        65.30682
1002.35        65.28889
1002.73        65.29778
1003.12        65.35862
1003.50          65.427
1003.88        65.54249
1004.26        65.82928
1004.64        66.10854
1005.02        66.09381
1005.40         65.7593
1005.78        65.08746
1006.16        64.59329
1006.54        65.18081
1006.92        66.96084
1007.30         69.6282
1007.69        72.04939
1008.07        72.63037
1008.45        70.94535
1008.83        67.52316
1009.21        63.59656
1009.59        61.24042
1009.97        61.09076
1010.35        62.63934
1010.73        65.06793
1011.11        66.85571
1011.49         67.5163
1011.86        67.70679
1012.24        67.63877
1012.62         68.1916
1013.00        69.65865
1013.38        71.47449
1013.76        73.65137
1014.14        76.38115
1014.52        79.44121
1014.90        82.81969
1015.28        85.06567
1015.66        83.71991
1016.04        78.98324
1016.41        72.46314
1016.79        66.50978
1017.17        63.10821
1017.55         62.2554
1017.93         63.4059
1018.31        66.04593
1018.69        68.03501
1019.06        68.01074
1019.44        66.84914
1019.82        65.35228
1020.20        64.05446
1020.58        62.99709
1020.95        61.84666
1021.33        60.72058
1021.71        59.95583
1022.09        59.81271
1022.46        60.15426
1022.84        61.23688
1023.22        63.58968
1023.60        67.12633
1023.97        71.83752
1024.35        75.81783
1024.73        75.81142
