SpectraSmart Spectrum 2.9.0.0
--------- Device Information -----------
Spectrum Name :  反射率_0
Saving Time :  2024/05/01 16:57:38
Spectro-Module Model Name : SE2030-DUVN
Spectro-Module Serial Number : OS361AC55029948
Wavelength Start : 200
Wavelength End : 1025
Wavelength Unit : Wavelength(nm)
Spectrum Unit : Reflectance(%)
-----------Spectrum Setting ------------
Integration Time : 20ms
Average : 10
Boxcar : 0
Background removal :  enabled
linearity correction :  enabled
SC :  disabled
Intensity correction :  disabled
DWT denoise :  enabled
savitzky-golay :  disabled
FFT :  disabled
Running average :  disabled
Kalman :  disabled
High pass :  disabled
---------------BEGIN--------------------
Wavelength(nm)             Reflectance(%)
200.29               0
200.75        410.0071
201.21         1490.48
201.67       -568.5238
202.13       -207.8089
202.58       -105.6676
203.04       -52.12651
203.50       -23.67717
203.96       -18.06825
204.42       -36.78802
204.88       -121.1032
205.34       -2401.951
205.80        374.8271
206.26        254.5171
206.72        239.1512
207.18        382.2814
207.64       -160.2059
208.10       -12.27436
208.55        5.436112
209.01        4.281189
209.47       0.7091769
209.93        -3.30693
210.39       -10.27084
210.85       -23.29089
211.31       -54.20113
211.77       -169.3524
212.23        744.0469
212.69        196.9293
213.14        181.8111
213.60         298.104
214.06       -1163.794
214.52       -161.7473
214.98       -100.1264
215.44       -94.41172
215.90       -135.1197
216.36       -906.8651
216.81        283.8875
217.27        344.8093
217.73       -760.1488
218.19       -182.3735
218.65       -159.9405
219.11       -219.7716
219.57       -450.6325
220.02       -1394.042
220.48       -706.6917
220.94       -207.2917
221.40       -81.43461
221.86        -38.0115
222.32       -22.16276
222.77       -16.96153
223.23       -17.03592
223.69       -20.26254
224.15        -21.3999
224.61       -18.53786
225.06       -15.10702
225.52       -12.42827
225.98       -10.17502
226.44       -7.910439
226.90       -5.073007
227.36       -1.941853
227.81      -0.7728362
228.27       -2.290472
228.73        -4.80907
229.19         -7.2297
229.65       -9.326267
230.10       -11.26561
230.56       -12.95924
231.02       -13.79574
231.48       -12.24635
231.93       -8.366521
232.39       -3.792412
232.85       0.7432809
233.31        4.987189
233.77        8.761112
234.22        12.09679
234.68        14.36637
235.14        15.03348
235.60         14.0088
236.05        10.98053
236.51        6.055715
236.97        1.114981
237.43       -1.656144
237.88       -1.605792
238.34      -0.2974232
238.80       -1.103207
239.26         -5.5611
239.71       -14.38229
240.17       -27.91587
240.63        -40.6367
241.08       -43.56199
241.54       -36.45862
242.00       -25.79409
242.46       -16.51081
242.91        -7.65889
243.37        3.107018
243.83        20.32812
244.28        42.10692
244.74        52.02057
245.20        50.56605
245.66        44.40681
246.11         35.8042
246.57        23.51169
247.03        4.045415
247.48       -27.64326
247.94       -64.46638
248.40       -87.63409
248.85       -93.80558
249.31       -79.13162
249.77       -49.83355
250.22       -19.23203
250.68        6.727078
251.14         23.9988
251.59        30.85918
252.05        28.38572
252.51        12.77521
252.96       -32.09073
253.42       -104.8261
253.88       -111.2032
254.33       -51.92678
254.79       -11.13048
255.25        5.987741
255.70        12.64239
256.16        15.93973
256.62        19.12955
257.07        23.92001
257.53        29.40956
257.99        34.30476
258.44        37.71603
258.90         39.2042
259.35        38.97186
259.81        37.87795
260.27        36.43472
260.72        35.34977
261.18        34.93483
261.63        34.71061
262.09        34.55516
262.55        34.12319
263.00        33.34645
263.46        32.45752
263.91        31.48341
264.37        30.60039
264.83        29.81205
265.28        29.08861
265.74        28.41813
266.19        27.63195
266.65        26.80188
267.11        25.93289
267.56        25.19703
268.02        24.93395
268.47         25.1356
268.93         25.6271
269.38        26.13137
269.84        26.14009
270.30        25.55882
270.75        24.55569
271.21        23.34582
271.66        22.15858
272.12        21.15436
272.57        20.23089
273.03        19.51265
273.48        19.15415
273.94        19.14079
274.39        19.39324
274.85        19.66933
275.31        19.58728
275.76        19.09669
276.22        18.36443
276.67        17.56695
277.13        17.01009
277.58        16.71948
278.04        16.60947
278.49        16.58293
278.95        16.57788
279.40        16.51477
279.86        16.43709
280.31        16.28553
280.77        16.02095
281.22         15.6317
281.68         15.1832
282.13        14.70157
282.59        14.27233
283.04        13.91219
283.50        13.63511
283.95        13.46803
284.41        13.47568
284.86        13.64089
285.32        13.92507
285.77        14.25749
286.22        14.55303
286.68        14.79113
287.13        14.97507
287.59        15.09925
288.04        15.12281
288.50        15.07333
288.95        14.93987
289.41        14.81961
289.86        14.80436
290.32        14.92611
290.77        15.16523
291.22        15.44742
291.68        15.64984
292.13        15.75655
292.59        15.83497
293.04         15.9639
293.50        16.30738
293.95        16.87941
294.40         17.6272
294.86        18.46008
295.31        19.25082
295.77        19.94477
296.22        20.56808
296.68        21.14131
297.13        21.69507
297.58        22.25546
298.04        22.82751
298.49        23.40451
298.95        24.01044
299.40        24.62785
299.85        25.24497
300.31        25.87922
300.76         26.5588
301.21        27.28074
301.67        28.04355
302.12        28.74186
302.58        29.23341
303.03        29.48224
303.48        29.56085
303.94        29.63542
304.39        29.89594
304.84        30.40013
305.30        31.07129
305.75        31.78376
306.20        32.35593
306.66        32.73547
307.11        32.95744
307.57         33.0817
308.02        33.14808
308.47        33.19436
308.93        33.20967
309.38        33.18421
309.83        33.15738
310.29        33.14457
310.74        33.14534
311.19        33.14879
311.65        33.11706
312.10        33.03923
312.55        32.92739
313.00        32.82336
313.46        32.79241
313.91        32.83508
314.36        32.92327
314.82        32.98755
315.27        32.93165
315.72        32.72653
316.18         32.4089
316.63        32.02897
317.08        31.66843
317.53        31.35172
317.99        31.06622
318.44        30.78157
318.89        30.46307
319.35        30.10955
319.80        29.74024
320.25        29.39875
320.70        29.14223
321.16        28.97393
321.61        28.88033
322.06        28.80127
322.51        28.64582
322.97        28.38197
323.42         28.0375
323.87         27.6627
324.32        27.35571
324.78        27.13829
325.23        26.99534
325.68         26.8588
326.13        26.62431
326.59        26.26245
327.04        25.82038
327.49         25.3638
327.94        25.01223
328.39        24.79783
328.85        24.67504
329.30        24.59331
329.75        24.43877
330.20        24.17708
330.66        23.83965
331.11        23.47218
331.56        23.12384
332.01        22.82003
332.46        22.54405
332.92        22.29647
333.37        22.10721
333.82          21.968
334.27        21.88339
334.72        21.82687
335.17        21.74839
335.63        21.62437
336.08        21.47226
336.53        21.32019
336.98        21.22832
337.43        21.20765
337.88        21.24315
338.34        21.27062
338.79        21.19782
339.24        21.00005
339.69        20.70437
340.14        20.40314
340.59        20.24287
341.05        20.24296
341.50         20.3593
341.95        20.48203
342.40        20.43428
342.85         20.1815
343.30        19.80051
343.75        19.38536
344.20         19.0759
344.66         18.9213
345.11        18.86937
345.56        18.91224
346.01        19.03294
346.46        19.19847
346.91        19.39575
347.36        19.56104
347.81        19.59912
348.26        19.49264
348.72        19.27747
349.17        18.97581
349.62        18.66781
350.07        18.38626
350.52        18.11548
350.97         17.8834
351.42        17.72733
351.87        17.65415
352.32        17.67045
352.77        17.70713
353.22        17.65278
353.67        17.48595
354.13        17.23103
354.58        16.97568
355.03         16.8868
355.48        16.98962
355.93        17.23971
356.38        17.48929
356.83        17.49146
357.28        17.20732
357.73        16.73609
358.18        16.26899
358.63        16.08721
359.08        16.24076
359.53        16.62193
359.98        17.08843
360.43        17.39766
360.88         17.4621
361.33         17.3609
361.78        17.13415
362.23        16.83895
362.68        16.51512
363.13        16.14604
363.58        15.79869
364.03        15.59346
364.48        15.54914
364.93         15.6308
365.38        15.75394
365.83        15.77517
366.28        15.65521
366.73        15.43926
367.18        15.15743
367.63         14.8654
368.08        14.60118
368.53        14.35672
368.98        14.16574
369.43        14.07961
369.88        14.09579
370.33        14.19185
370.78        14.32304
371.23        14.40284
371.68        14.39604
372.13        14.32511
372.58        14.18445
373.03        13.96935
373.48        13.69554
373.93         13.3694
374.38        13.06345
374.83        12.90008
375.28        12.90534
375.72        13.04358
376.17         13.2279
376.62        13.32063
377.07        13.28277
377.52        13.14711
377.97        12.96331
378.42        12.81289
378.87        12.72047
379.32        12.66378
379.77        12.60969
380.22        12.50849
380.67        12.35553
381.11        12.17958
381.56        12.02681
382.01        11.97166
382.46        12.02832
382.91        12.16421
383.36        12.32469
383.81        12.43108
384.26        12.45419
384.71        12.40504
385.15        12.30384
385.60        12.20008
386.05        12.10696
386.50        12.02599
386.95        11.93248
387.40        11.78916
387.85        11.60486
388.29        11.39219
388.74        11.24556
389.19        11.25075
389.64        11.41011
390.09        11.67696
390.54        11.95581
390.98        12.09361
391.43        12.05388
391.88        11.89372
392.33        11.67894
392.78        11.50941
393.23         11.4138
393.67        11.34293
394.12        11.30299
394.57        11.31084
395.02         11.3431
395.47        11.33242
395.91        11.28823
396.36        11.27684
396.81        11.30632
397.26        11.33029
397.71        11.34083
398.15        11.35726
398.60           11.39
399.05        11.38179
399.50        11.34982
399.95        11.40323
400.39        11.50683
400.84        11.45558
401.29        11.25962
401.74        11.12087
402.18        11.05719
402.63        10.95388
403.08        10.83668
403.53          10.795
403.97        10.83035
404.42        10.91431
404.87        10.99757
405.32        10.99991
405.76        10.90261
406.21         10.7403
406.66        10.55689
407.11        10.42371
407.55        10.36594
408.00        10.36366
408.45        10.39918
408.90        10.42573
409.34        10.43189
409.79        10.44933
410.24        10.47386
410.68        10.47251
411.13        10.44528
411.58        10.40698
412.03        10.35338
412.47        10.27663
412.92        10.18333
413.37        10.08225
413.81        9.998719
414.26        9.977562
414.71        10.01961
415.15        10.11687
415.60        10.22439
416.05        10.27883
416.49        10.25988
416.94        10.18273
417.39        10.08384
417.83        10.02383
418.28        10.01912
418.73        10.05165
419.17        10.09067
419.62        10.07912
420.07        10.01185
420.51        9.910018
420.96         9.81779
421.41         9.78217
421.85        9.808037
422.30        9.876789
422.74        9.962339
423.19        10.03622
423.64        10.08391
424.08        10.11818
424.53        10.11734
424.98        10.06444
425.42        9.966252
425.87        9.841478
426.31         9.71682
426.76        9.646146
427.21        9.635783
427.65        9.664036
428.10        9.739465
428.54        9.870334
428.99        10.03901
429.44        10.25234
429.88        10.41631
430.33        10.39675
430.77        10.18931
431.22         9.85274
431.66        9.513692
432.11        9.393348
432.56        9.505421
433.00        9.769742
433.45        10.03243
433.89        9.986332
434.34        9.612937
434.78        9.581841
435.23        9.956578
435.67        10.09178
436.12        9.996501
436.57        10.02198
437.01        10.15037
437.46        10.15542
437.90        10.02395
438.35        9.847327
438.79        9.674358
439.24        9.550908
439.68        9.512919
440.13        9.607172
440.57        9.778552
441.02        9.891058
441.46         9.91699
441.91        9.851167
442.35        9.739024
442.80        9.815784
443.24        10.01062
443.69        9.926769
444.13        9.616475
444.58        9.498367
445.02        9.584327
445.47        9.660095
445.91        9.703988
446.36        9.779765
446.80        9.876278
447.24        9.972075
447.69        10.05508
448.13        10.11095
448.58        10.13431
449.02         10.1243
449.47        10.09398
449.91        10.05771
450.36        10.02473
450.80         9.99339
451.25        9.955204
451.69        9.887433
452.13        9.792221
452.58          9.6847
453.02        9.587978
453.47        9.544557
453.91        9.560106
454.36        9.620547
454.80        9.699014
455.24        9.748512
455.69         9.75621
456.13        9.726536
456.58        9.681849
457.02        9.643342
457.46        9.621147
457.91        9.608587
458.35        9.589287
458.79        9.523647
459.24        9.417447
459.68        9.310938
460.13        9.250422
460.57        9.110341
461.01        9.165038
461.46        9.198899
461.90        9.272625
462.34        9.310514
462.79         9.35125
463.23        9.357308
463.68        9.356424
464.12        9.370439
464.56        9.404632
465.01        9.462129
465.45         9.50302
465.89        9.482456
466.34        9.402032
466.78        9.273181
467.22        9.145382
467.67        9.120028
468.11        9.177297
468.55        9.323052
468.99        9.492061
469.44        9.601254
469.88        9.630422
470.32        9.598909
470.77        9.537038
471.21        9.490511
471.65        9.476956
472.10        9.482821
472.54        9.494295
472.98        9.497606
473.42         9.49088
473.87        9.489635
474.31        9.493713
474.75         9.51111
475.20        9.544925
475.64        9.580943
476.08        9.620701
476.52         9.69211
476.97         9.79765
477.41        9.885841
477.85         9.91351
478.29        10.09432
478.74        9.990468
479.18        9.944798
479.62        9.874624
480.06         9.91604
480.50         10.0822
480.95        10.14102
481.39        10.38815
481.83         10.4577
482.27        10.44738
482.72        10.39372
483.16        10.32439
483.60        10.31962
484.04        10.38972
484.48        10.42956
484.93        10.52405
485.37        10.85449
485.81        11.21707
486.25        11.60132
486.69        10.81452
487.14        10.54453
487.58        11.07322
488.02        11.41365
488.46          11.271
488.90        11.63082
489.34        11.29026
489.79        11.37345
490.23        11.94019
490.67        12.18365
491.11        12.20425
491.55        12.17031
491.99        12.15169
492.43        12.18751
492.88        12.29406
493.32        12.41521
493.76        12.53384
494.20        12.67345
494.64        12.83338
495.08        12.99017
495.52        13.13481
495.96        13.30538
496.41        13.48669
496.85        13.55434
497.29        13.54751
497.73        13.71575
498.17        14.02723
498.61        14.15498
499.05        14.10895
499.49        14.17453
499.93        14.36148
500.37        14.50849
500.82         14.6053
501.26        14.70564
501.70        14.80928
502.14        14.90321
502.58        14.98383
503.02          15.046
503.46         15.0928
503.90        15.13069
504.34        15.17817
504.78        15.26233
505.22         15.3868
505.66        15.54124
506.10        15.70079
506.54        15.82343
506.98        15.89653
507.42         15.9322
507.86        15.94464
508.30        15.95734
508.74        15.98066
509.18        16.00953
509.62        16.04738
510.06        16.09949
510.50        16.16521
510.94        16.24389
511.38        16.32622
511.82        16.39587
512.26        16.44571
512.70        16.47451
513.14        16.48645
513.58        16.49076
514.02        16.49068
514.46        16.48679
514.90        16.47154
515.34        16.43233
515.78        16.37193
516.22        16.29994
516.66        16.24012
517.10        16.22698
517.54        16.26623
517.98        16.34546
518.42        16.43964
518.86        16.50696
519.30        16.53321
519.74        16.52727
520.18        16.50037
520.62        16.47283
521.06         16.4502
521.50        16.42312
521.93        16.38974
522.37         16.3442
522.81        16.28827
523.25        16.22979
523.69        16.16663
524.13        16.09193
524.57        16.00911
525.01        15.92308
525.45        15.84936
525.89         15.8125
526.32        15.81375
526.76        15.83814
527.20        15.86834
527.64        15.87581
528.08         15.8514
528.52        15.80703
528.96        15.73946
529.40        15.64444
529.83        15.52636
530.27        15.39132
530.71        15.26995
531.15        15.21521
531.59        15.23292
532.03        15.30412
532.46        15.38103
532.90        15.38717
533.34        15.30777
533.78         15.1596
534.22        14.98243
534.66        14.86197
535.09        14.80171
535.53        14.73175
535.97        14.65804
536.41        14.64331
536.85        14.68641
537.28          14.756
537.72        14.82844
538.16        14.88039
538.60        14.90223
539.04        14.89632
539.47        14.88389
539.91        14.90961
540.35        14.97885
540.79        15.08784
541.22        15.21051
541.66        15.28101
542.10        15.33093
542.54        15.34414
542.97        15.36612
543.41        15.45878
543.85        15.62859
544.29        15.85494
544.72        16.09448
545.16        16.28798
545.60        16.41956
546.04        16.50674
546.47        16.58213
546.91        16.70221
547.35        16.87929
547.79        17.08821
548.22        17.28983
548.66        17.46501
549.10        17.60721
549.53        17.64607
549.97        17.76704
550.41        17.90048
550.84        18.10048
551.28        18.35158
551.72        18.61373
552.15        18.80376
552.59        18.91552
553.03        18.99874
553.46        19.07642
553.90        19.19528
554.34        19.36732
554.77        19.54518
555.21        19.69314
555.65         19.9704
556.08        19.98841
556.52        20.07139
556.96        20.12229
557.39        20.18569
557.83         20.2767
558.27        20.36009
558.70        20.42906
559.14        20.57278
559.57        20.60376
560.01        20.70548
560.45        20.80618
560.88         20.8575
561.32        20.90067
561.75        20.95787
562.19        21.04828
562.63        21.26549
563.06        21.52292
563.50        21.45495
563.93        21.14428
564.37        21.07712
564.80         21.2733
565.24        21.48504
565.68        21.66356
566.11        21.84299
566.55        22.01163
566.98        22.15087
567.42         22.2844
567.85        22.43225
568.29        22.60848
568.72        22.78726
569.16        22.97285
569.60        23.11482
570.03        23.19488
570.47        23.25027
570.90        23.49692
571.34        23.33043
571.77        23.61331
572.21         23.7567
572.64        24.00823
573.08        24.01982
573.51        24.27951
573.95        24.59452
574.38         24.4323
574.82        24.60811
575.25        24.68482
575.69        24.72294
576.12        24.70029
576.56        24.70937
576.99        24.98254
577.42        24.98679
577.86         25.0187
578.29        24.82211
578.73        24.87947
579.16        24.67228
579.60        24.17379
580.03        24.15639
580.47        24.37914
580.90        23.98809
581.33        24.17538
581.77        24.40477
582.20        24.17141
582.64        23.74045
583.07        23.63249
583.51        23.39177
583.94        23.34503
584.37        23.35083
584.81        23.35769
585.24        23.30052
585.68        23.20884
586.11        22.83407
586.54        22.74362
586.98        22.66243
587.41        22.69138
587.85        22.86341
588.28        22.50035
588.71        22.19879
589.15        22.55619
589.58        22.18959
590.01        22.31821
590.45        22.24355
590.88        22.27193
591.31         22.2905
591.75        22.30558
592.18        22.28454
592.61        22.18017
593.05        22.51481
593.48        22.33696
593.91        22.43036
594.35        22.50378
594.78        22.64067
595.21        22.81338
595.65         22.8695
596.08        22.83553
596.51        23.11143
596.94        23.21849
597.38        23.50737
597.81        23.86383
598.24        23.80883
598.68        24.41624
599.11        24.55392
599.54        24.98832
599.97        24.97242
600.41        25.67685
600.84        25.93734
601.27        26.28881
601.70        26.72394
602.14        27.12266
602.57        27.46916
603.00        27.71132
603.43        27.93714
603.87        28.37009
604.30         28.7013
604.73        29.01754
605.16        29.40637
605.60        29.86327
606.03        30.30448
606.46         30.6217
606.89        31.16433
607.32        31.34564
607.76         31.6736
608.19        31.97413
608.62        32.41891
609.05        32.59871
609.48        33.06989
609.92        33.23417
610.35        33.50096
610.78        34.28929
611.21        34.63299
611.64        34.56993
612.07        34.80779
612.50        35.10305
612.94        35.27954
613.37        35.29374
613.80        35.59551
614.23        35.76806
614.66        36.24998
615.09        36.33232
615.52        36.55304
615.96        36.76512
616.39        37.05928
616.82        37.40466
617.25        37.69619
617.68        37.90219
618.11        37.93142
618.54        37.82791
618.97        37.88509
619.40        38.18256
619.84        38.07477
620.27        38.30741
620.70        38.63429
621.13        39.24502
621.56        38.94922
621.99        38.80605
622.42        39.23185
622.85        38.93955
623.28        39.20366
623.71        38.86421
624.14        39.19561
624.57        39.15242
625.00        39.21429
625.43        39.13713
625.86        39.00737
626.29        38.84075
626.72        38.67299
627.15        38.48361
627.58        38.27736
628.01        38.05463
628.44        37.87159
628.87        37.70258
629.30        37.45679
629.73        37.15839
630.16        36.90151
630.59        36.68358
631.02        36.45439
631.45        36.19424
631.88        35.89047
632.31         35.5378
632.74        35.14191
633.17        34.73085
633.60        34.34808
634.03        34.00465
634.46         33.6908
634.89        33.38223
635.32        33.03983
635.75        32.65597
636.18        32.24482
636.61        31.83149
637.04          31.453
637.47        31.11963
637.89        30.81502
638.32        30.50595
638.75        30.18904
639.18        29.86861
639.61        29.43465
640.04        29.14157
640.47        28.85739
640.90        28.65747
641.33        28.51576
641.76        28.40588
642.18        28.32343
642.61        28.25785
643.04        28.15409
643.47        27.99249
643.90        28.13739
644.33        27.98624
644.76        27.97997
645.18        27.97169
645.61        28.12612
646.04        28.40171
646.47        28.56551
646.90        28.62251
647.33         28.7775
647.75        29.03977
648.18        29.26675
648.61         29.4736
649.04        29.77471
649.47        30.15557
649.89        30.55307
650.32        30.95057
650.75        31.29993
651.18        31.62967
651.61        32.16576
652.03        32.88248
652.46        33.36694
652.89        33.64203
653.32        34.07435
653.74        34.76327
654.17        35.08413
654.60        35.87478
655.03        36.00324
655.46        36.30767
655.88        36.73615
656.31          41.924
656.74        41.35604
657.16        38.08311
657.59         37.8531
658.02        39.15508
658.45         39.1181
658.87         39.9969
659.30        39.45003
659.73        40.11119
660.15        40.43451
660.58        40.56145
661.01         40.7623
661.44        40.94735
661.86        41.15807
662.29        41.40998
662.72        41.78226
663.14        42.22785
663.57        42.50815
664.00        42.61517
664.42        42.72928
664.85        42.86605
665.27        42.89872
665.70        42.87892
666.13        42.94867
666.55        43.13376
666.98        43.39138
667.41        43.67262
667.83        43.89065
668.26         44.0086
668.69        44.05726
669.11        44.07602
669.54        44.14139
669.96         44.2645
670.39        44.38705
670.82        44.49989
671.24          44.593
671.67        44.67141
672.09        44.77651
672.52        44.89452
672.94        44.92767
673.37        44.87793
673.80        44.78979
674.22        44.71546
674.65          44.702
675.07        44.77945
675.50        44.92509
675.92        45.10457
676.35        45.25841
676.77         45.3711
677.20        45.43637
677.62        45.47959
678.05        45.56868
678.47         45.6941
678.90        45.76681
679.32        45.78351
679.75         45.8292
680.17        45.90437
680.60        45.96666
681.02        46.02412
681.45        46.10009
681.87        46.20236
682.30        46.31249
682.72        46.42528
683.15        46.50856
683.57        46.56121
684.00        46.58972
684.42        46.60278
684.85        46.62273
685.27        46.64592
685.70        46.67217
686.12        46.69181
686.54        46.70184
686.97        46.69894
687.39        46.72742
687.82        46.76059
688.24        46.76433
688.66        46.60361
689.09        46.73475
689.51        47.07821
689.94         47.2964
690.36        47.36768
690.78        47.48314
691.21        47.66621
691.63        47.82351
692.06        47.97708
692.48        48.25268
692.90        48.57562
693.33        48.71384
693.75        48.64776
694.17        48.44333
694.60        48.20228
695.02        48.10456
695.44        48.14625
695.87        48.17702
696.29        48.18094
696.71         48.1185
697.14        48.06654
697.56        48.31511
697.98        48.77594
698.41        49.01744
698.83         49.0004
699.25        48.95651
699.68        48.92397
700.10        48.91428
700.52        48.94776
700.94        48.98936
701.37         49.0401
701.79        49.19647
702.21        49.39737
702.64        49.50359
703.06        49.51823
703.48        49.49817
703.90        49.43654
704.33        49.61787
704.75        49.42343
705.17        49.41791
705.59        49.42564
706.01        49.43895
706.44        49.48118
706.86        49.61201
707.28        49.82297
707.70        50.10599
708.12        50.37619
708.55        50.45893
708.97        50.34649
709.39        50.16585
709.81        49.99984
710.23        49.92205
710.66        49.96948
711.08        50.15169
711.50         50.3835
711.92        50.51729
712.34        50.51946
712.76        50.44083
713.19         50.3171
713.61        50.24331
714.03        50.23465
714.45         50.2613
714.87        50.32209
715.29        50.41917
715.71        50.54422
716.13        50.70071
716.56        50.83905
716.98        50.93583
717.40        50.95593
717.82        50.90804
718.24        50.83727
718.66         50.8205
719.08        50.87626
719.50        50.98523
719.92        51.10178
720.34        51.15062
720.76        51.11258
721.19        51.01272
721.61         50.9116
722.03        50.86351
722.45        50.88532
722.87        51.02813
723.29        51.25372
723.71        51.15833
724.13        51.25767
724.55        51.13674
724.97         51.0384
725.39        51.08117
725.81        51.28928
726.23        51.61406
726.65        51.92516
727.07        52.02857
727.49          51.887
727.91        51.57175
728.33        51.22557
728.75        51.07488
729.17        51.17349
729.59        51.44434
730.01        51.78662
730.43         52.0237
730.85        52.09809
731.27        52.07979
731.69        51.99193
732.10        51.86503
732.52        51.72123
732.94        51.53973
733.36        51.39722
733.78        51.37209
734.20        51.46502
734.62        51.82479
735.04         52.3072
735.46        52.23517
735.88        51.77223
736.30        51.98905
736.72        52.75147
737.13        52.97285
737.55        52.56931
737.97        52.07018
738.39        51.69989
738.81        51.74136
739.23        52.17089
739.65        52.50541
740.06        52.59432
740.48        52.70761
740.90        52.79372
741.32        52.65879
741.74        52.35752
742.16        52.14344
742.57        52.07653
742.99         52.0463
743.41        52.07398
743.83        52.24294
744.25        52.51134
744.67        52.75616
745.08        52.92213
745.50        52.96235
745.92        52.87168
746.34        52.62828
746.75        52.30936
747.17        52.09844
747.59        52.02598
748.01        52.05419
748.42        52.17035
748.84        52.30947
749.26        52.45696
749.68        52.65206
750.09        52.84602
750.51        52.94534
750.93        52.93604
751.35        52.85321
751.76         52.7458
752.18        52.68642
752.60        52.69937
753.01        52.77888
753.43        52.89057
753.85         52.9866
754.27        53.05193
754.68        53.17312
755.10        53.30321
755.52        53.33091
755.93        53.28037
756.35        53.38497
756.77         53.6301
757.18        53.70887
757.60        53.60283
758.02        53.67336
758.43        53.82741
758.85        53.46187
759.26        52.76973
759.68        52.79534
760.10        53.47998
760.51        53.73807
760.93        53.47199
761.34        53.43586
761.76        53.61787
762.18        53.31947
762.59        52.74762
763.01        52.85965
763.42        53.59973
763.84        53.90094
764.26        53.69368
764.67        53.45581
765.09        53.33783
765.50        53.37693
765.92        53.55412
766.33        53.60651
766.75        53.44829
767.16         53.3386
767.58        53.32308
768.00        53.28354
768.41        53.34357
768.83        53.96209
769.24        54.89188
769.66        55.19341
770.07        54.84878
770.49         54.4609
770.90        54.19645
771.32        54.13903
771.73        54.23876
772.15        54.16655
772.56        53.93425
772.97        53.76734
773.39        53.69035
773.80        54.00986
774.22        54.05278
774.63        54.39716
775.05        54.72986
775.46        54.91323
775.88        54.88322
776.29        54.70616
776.70        54.48048
777.12         54.3786
777.53         54.4565
777.95        54.63037
778.36        54.83461
778.77        54.92829
779.19        54.88194
779.60        54.79997
780.02        54.65301
780.43        54.43587
780.84        54.27595
781.26         54.0461
781.67        53.72963
782.09        54.67124
782.50        54.75531
782.91        54.64794
783.33        54.30175
783.74        54.24533
784.15        54.64448
784.57        54.98868
784.98        55.25942
785.39        55.57368
785.81        55.89901
786.22        56.03233
786.63        56.26645
787.04        56.26221
787.46        56.16148
787.87        56.03215
788.28        55.94166
788.70        55.89456
789.11        55.88562
789.52        55.95744
789.93        56.05532
790.35        56.05821
790.76         55.9655
791.17        55.80806
791.58        55.62491
792.00        55.49263
792.41        55.44681
792.82        55.37375
793.23        55.28865
793.65        55.45601
794.06         55.7724
794.47         55.6809
794.88        55.29364
795.29        55.21044
795.71        55.40493
796.12        55.63111
796.53        55.78249
796.94        55.82824
797.35        55.72512
797.76        55.49675
798.18        55.25738
798.59        55.15217
799.00        55.22521
799.41        55.43084
799.82        55.70331
800.23        55.92589
800.64        56.05579
801.06        56.11354
801.47        56.13231
801.88        56.09846
802.29        56.01932
802.70         55.8765
803.11        55.73301
803.52        55.68808
803.93        55.77254
804.34         56.0069
804.75        56.27718
805.17        56.37936
805.58         56.3563
805.99        56.12751
806.40        55.82943
806.81        56.19753
807.22        56.95232
807.63        56.60577
808.04        55.35916
808.45        54.88979
808.86        55.32603
809.27         55.7187
809.68        55.92598
810.09        56.15466
810.50        56.34533
810.91         56.4394
811.32        56.44052
811.73        56.36255
812.14        56.22603
812.55        56.03766
812.96        55.87148
813.37        55.84867
813.78         55.9952
814.19        56.27996
814.60        56.61372
815.01        56.85127
815.42        56.95407
815.83        56.95811
816.24        56.89602
816.65        56.83609
817.05        56.81039
817.46        56.77221
817.87        56.74269
818.28        56.72423
818.69        56.71064
819.10        56.70525
819.51        56.69247
819.92        56.63842
820.33        56.53691
820.74        56.40216
821.14        56.24475
821.55        56.09946
821.96        55.97174
822.37          55.876
822.78        55.82534
823.19        55.83903
823.60        55.92378
824.00         56.0784
824.41        56.28347
824.82        56.59169
825.23        56.97936
825.64        57.40477
826.04        57.77123
826.45        57.86577
826.86        57.66816
827.27        57.24926
827.68        56.70932
828.08         56.2365
828.49        55.87858
828.90        55.60537
829.31        55.45976
829.72        55.48991
830.12        55.71567
830.53        56.11979
830.94        56.54754
831.35        56.67717
831.75        56.45108
832.16        55.90136
832.57        55.35596
832.97        55.31925
833.38        55.86702
833.79        56.84451
834.20        57.87409
834.60        58.30576
835.01        57.95679
835.42        57.06306
835.82        55.98723
836.23        55.28115
836.64        55.11017
837.04        55.32418
837.45        55.73906
837.86        56.08777
838.26         56.2743
838.67        56.36502
839.08        56.41217
839.48        56.46717
839.89         56.5395
840.29        56.58092
840.70        56.59573
841.11        56.58072
841.51        56.54858
841.92        56.48826
842.33        56.43302
842.73         56.4331
843.14        56.45508
843.54        56.52846
843.95        56.58848
844.35        56.58084
844.76        56.47498
845.17        56.29273
845.57         56.1036
845.98        56.00195
846.38        56.02081
846.79        56.11648
847.19        56.22391
847.60        56.17652
848.00        55.95839
848.41           55.61
848.81        55.24903
849.22        55.03013
849.62        55.00764
850.03        55.11425
850.43        55.28746
850.84         55.3135
851.24        55.19042
851.65        54.96528
852.05        54.76913
852.46        54.78593
852.86          55.028
853.27        55.40327
853.67        55.80157
854.07        56.21526
854.48        56.57734
854.88        56.98003
855.29        57.20609
855.69        57.05851
856.10        56.43813
856.50        55.50414
856.90        54.58252
857.31        54.14343
857.71        54.28053
858.12        54.83028
858.52        55.60806
858.92        56.08373
859.33        56.05881
859.73        55.71329
860.13        55.16264
860.54        54.62148
860.94         54.1812
861.34        53.76647
861.75        53.43005
862.15        53.30489
862.55        53.40002
862.96        53.68904
863.36        54.06969
863.76        54.27433
864.17        54.24054
864.57        54.04956
864.97        53.81324
865.38        53.73944
865.78        53.89634
866.18        54.17982
866.58        54.51041
866.99        54.75204
867.39        54.86626
867.79        54.90241
868.19         54.8113
868.60        54.48746
869.00        53.93945
869.40        53.20198
869.80        52.51059
870.21        52.30066
870.61        52.70988
871.01        53.54764
871.41        54.46207
871.81        54.91942
872.22         54.7838
872.62        54.21233
873.02        53.41764
873.42        52.75963
873.82        52.38904
874.22        52.23589
874.63        52.23811
875.03        52.29552
875.43        52.37603
875.83        52.51648
876.23        52.78738
876.63        53.28379
877.03        53.98449
877.44        54.79465
877.84        55.53312
878.24        55.87385
878.64        55.74547
879.04        55.26212
879.44        54.62166
879.84        54.12932
880.24        53.87719
880.64        53.78703
881.04          53.819
881.44        53.89013
881.84        53.97185
882.24        54.12653
882.65        54.27534
883.05        54.34875
883.45        54.29399
883.85          54.094
884.25        53.91553
884.65        54.02362
885.05        54.44894
885.45        55.13062
885.85        55.77895
886.25        55.89279
886.65        55.37394
887.05        54.39157
887.45         53.3621
887.85        52.93612
888.25         53.2571
888.65        54.11579
889.04        55.14188
889.44        55.70207
889.84         55.6287
890.24        55.11411
890.64        54.42512
891.04        53.93922
891.44        53.77285
891.84        53.83905
892.24        53.97992
892.64        53.94658
893.04         53.6884
893.44        53.28707
893.83        52.99408
894.23        53.18621
894.63        53.89143
895.03        54.97807
895.43        56.04173
895.83        56.36139
896.23         55.7837
896.63        54.60183
897.02        53.26178
897.42        52.47529
897.82        52.34787
898.22        52.69948
898.62        53.32982
899.01        53.90437
899.41        54.25097
899.81        54.49972
900.21        54.71423
900.61        54.99369
901.00        55.35239
901.40        55.67885
901.80        55.92837
902.20        56.07185
902.59        56.10091
902.99        56.04824
903.39        55.89044
903.79        55.57791
904.18        55.12278
904.58        54.57806
904.98        54.07959
905.38        53.83493
905.77        53.88113
906.17        54.19324
906.57        54.58347
906.96        54.74781
907.36         54.6045
907.76        54.24246
908.15        53.91038
908.55        53.97609
908.95        54.52034
909.34        55.40564
909.74        56.31203
910.14         56.7994
910.53        56.73437
910.93        56.25995
911.33        55.58625
911.72        55.03833
912.12        54.75048
912.52        54.63427
912.91        54.59468
913.31        54.47668
913.70        54.25357
914.10         54.0086
914.49         53.8481
914.89        53.90125
915.29        54.18284
915.68        54.59942
916.08        55.05882
916.47        55.42043
916.87        55.62918
917.26         55.7503
917.66        55.73959
918.05        55.54077
918.45        55.16621
918.84        54.63781
919.24        54.17753
919.64        54.22088
920.03        54.85488
920.42         55.9357
920.82        57.03625
921.21        57.55625
921.61        57.32935
922.00         56.4824
922.40        55.39232
922.79          54.806
923.19        54.91575
923.58        55.50642
923.98         56.0754
924.37        55.86874
924.77         54.7967
925.16        53.11457
925.55        51.37881
925.95        50.53665
926.34        50.86788
926.74        52.02629
927.13        53.57821
927.52        54.74286
927.92        55.24749
928.31        55.32479
928.70        55.09108
929.10        54.76779
929.49        54.48282
929.89        54.14552
930.28        53.83347
930.67        53.67604
931.07        53.69285
931.46        53.86677
931.85        54.15922
932.24        54.46782
932.64        54.73151
933.03        55.00509
933.42         55.1504
933.82        54.98244
934.21         54.5078
934.60        53.77008
934.99        53.08724
935.39        52.92689
935.78        53.39816
936.17         54.4067
936.56        55.54878
936.96        56.05586
937.35        55.74994
937.74        54.83812
938.13        53.80792
938.53        53.31941
938.92        53.47499
939.31        54.09306
939.70        54.86087
940.09        55.21764
940.49        54.98417
940.88        54.35666
941.27         53.5956
941.66        53.07647
942.05        52.89338
942.44        52.92933
942.84        53.01035
943.23        52.88283
943.62        52.46588
944.01        51.89818
944.40        51.36713
944.79        51.13738
945.18        51.26804
945.57        51.64471
945.97        52.12797
946.36        52.60735
946.75        52.98454
947.14        53.29106
947.53         53.4885
947.92        53.51258
948.31        53.35967
948.70        53.04415
949.09        52.66956
949.48        52.39482
949.87         52.2746
950.26        52.31161
950.65        52.44876
951.04        52.56819
951.43        52.63456
951.82        52.65654
952.21        52.73049
952.60        53.02041
952.99        53.51844
953.38        54.13349
953.77        54.65684
954.16         54.7195
954.55        54.27419
954.94        53.54055
955.33        52.70411
955.72        52.04735
956.11        51.67228
956.50        51.42782
956.89        51.50607
957.28          52.224
957.66        53.59124
958.05        55.44471
958.44         57.0806
958.83        57.17973
959.22        55.51599
959.61        52.62319
960.00        49.55325
960.39        47.79146
960.78        47.65961
961.16        48.75554
961.55        50.50064
961.94        51.98723
962.33        52.84705
962.72        53.34029
963.11        53.51709
963.49        53.48545
963.88        53.28907
964.27         52.8415
964.66        52.29324
965.04        51.91631
965.43        51.74536
965.82        51.76156
966.21        51.85791
966.60        51.78719
966.98        51.49585
967.37        51.08003
967.76        50.64449
968.15        50.35022
968.53         50.2489
968.92        50.24838
969.31        50.34786
969.69        50.56548
970.08        50.84623
970.47        51.19223
970.86        51.43382
971.24        51.28424
971.63        50.66658
972.02         49.7016
972.40        48.66592
972.79        47.99393
973.17        47.81926
973.56         48.0248
973.95        48.41055
974.33        48.64967
974.72        48.60752
975.11         48.3183
975.49        48.04913
975.88        48.33112
976.26        49.30633
976.65        50.74984
977.04        52.03722
977.42        52.17198
977.81         50.9896
978.19        48.83454
978.58        46.78926
978.96        46.25282
979.35        47.49972
979.74        50.18114
980.12        53.51833
980.51        55.41596
980.89        55.30595
981.28        53.68545
981.66        51.43305
982.05        50.11234
982.43        50.12524
982.82        50.95718
983.20        52.38327
983.59          53.888
983.97        55.26942
984.35        56.64948
984.74        57.54828
985.12        57.31595
985.51        55.87961
985.89        53.39926
986.28        50.75539
986.66        49.22325
987.04        49.25226
987.43        50.52503
987.81        52.34452
988.20        53.31321
988.58        53.04711
988.96        51.81351
989.35        50.39178
989.73        49.99865
990.12        50.86845
990.50        52.65911
990.88        54.38097
991.27         54.4698
991.65        52.71538
992.03        49.71553
992.42        46.69614
992.80        45.28046
993.18        45.94728
993.56        48.12135
993.95        50.91902
994.33        53.03405
994.71        53.77114
995.10        53.56146
995.48        52.58823
995.86        51.20465
996.24         49.7111
996.63        48.00283
997.01        46.48439
997.39        45.73674
997.77         45.8387
998.15        46.73253
998.54        48.01643
998.92        48.82602
999.30        48.88737
999.68         48.3626
1000.06        47.61834
1000.45        47.31937
1000.83        47.75683
1001.21        48.65948
1001.59        49.66862
1001.97        50.17612
1002.35        50.02242
1002.73        49.46872
1003.12        48.83249
1003.50        48.55479
1003.88        48.79387
1004.26         49.3328
1004.64        50.07568
1005.02        50.90126
1005.40        51.74471
1005.78        52.69458
1006.16        53.51542
1006.54        53.76469
1006.92        53.32226
1007.30        52.20573
1007.69        50.87762
1008.07        50.35613
1008.45         50.7737
1008.83        51.95559
1009.21        53.15196
1009.59        53.06933
1009.97         51.4366
1010.35         48.6423
1010.73        45.71475
1011.11        44.44428
1011.49        45.42199
1011.86         48.3993
1012.24        52.21252
1012.62        54.93165
1013.00        55.77865
1013.38        55.11422
1013.76        53.92991
1014.14        54.14497
1014.52        56.30889
1014.90        59.71081
1015.28        63.09082
1015.66        64.24692
1016.04        62.75569
1016.41        59.79294
1016.79        56.55554
1017.17        53.97979
1017.55        52.03148
1017.93        50.19754
1018.31        48.41578
1018.69        47.14155
1019.06        46.81039
1019.44          47.344
1019.82        48.08089
1020.20        48.34508
1020.58        48.09472
1020.95        47.30608
1021.33        46.36551
1021.71        45.89309
1022.09        46.28598
1022.46        47.38284
1022.84        48.74209
1023.22        49.96004
1023.60        50.89156
1023.97        51.63474
1024.35         52.1882
1024.73         52.4997
