SpectraSmart Spectrum 2.9.0.0
--------- Device Information -----------
Spectrum Name :  反射率_0
Saving Time :  2024/05/01 17:12:33
Spectro-Module Model Name : SE2030-DUVN
Spectro-Module Serial Number : OS361AC55029948
Wavelength Start : 200
Wavelength End : 1025
Wavelength Unit : Wavelength(nm)
Spectrum Unit : Reflectance(%)
-----------Spectrum Setting ------------
Integration Time : 20ms
Average : 10
Boxcar : 0
Background removal :  enabled
linearity correction :  enabled
SC :  disabled
Intensity correction :  disabled
DWT denoise :  enabled
savitzky-golay :  disabled
FFT :  disabled
Running average :  disabled
Kalman :  disabled
High pass :  disabled
---------------BEGIN--------------------
Wavelength(nm)             Reflectance(%)
200.29               0
200.75       -22.13836
201.21        130.4857
201.67        -98.5144
202.13       -25.49558
202.58        13.68117
203.04        43.44958
203.50        64.60437
203.96        76.40414
204.42        82.44474
204.88        87.45491
205.34        195.3067
205.80        42.26292
206.26         18.8384
206.72       -48.02971
207.18       -399.3965
207.64        604.3539
208.10        248.4569
208.55        160.0321
209.01        118.1929
209.47        100.9089
209.93        98.46474
210.39        102.7992
210.85        114.8889
211.31        144.4467
211.77        251.9181
212.23       -624.6397
212.69        -93.1035
213.14       -54.08242
213.60       -70.16276
214.06        287.1057
214.52        51.90709
214.98        44.77586
215.44         59.0607
215.90        119.2103
216.36        1088.645
216.81       -415.9856
217.27       -535.9767
217.73        1124.575
218.19        237.5542
218.65        178.5455
219.11        215.2506
219.57        402.7512
220.02        1217.625
220.48        675.4288
220.94        242.5686
221.40        131.3502
221.86        95.79546
222.32        90.23109
222.77         101.108
223.23        126.8152
223.69        162.7249
224.15        178.0482
224.61        161.8075
225.06          135.25
225.52        117.5504
225.98        115.2201
226.44        126.4755
226.90        150.2177
227.36        181.7117
227.81        196.8774
228.27        186.2357
228.73        165.3663
229.19        148.5844
229.65        143.8443
230.10        149.8752
230.56        163.8751
231.02        182.0723
231.48        192.2085
231.93        188.3199
232.39        177.9511
232.85        166.1414
233.31        157.0187
233.77        151.3006
234.22        147.1597
234.68        145.4879
235.14        147.4859
235.60        153.5794
236.05        165.6458
236.51        183.1666
236.97         199.666
237.43        207.1377
237.88        203.1167
238.34        192.2065
238.80        185.7118
239.26        187.0495
239.71        197.0616
240.17         212.113
240.63         215.162
241.08        193.0238
241.54        156.3891
242.00         126.301
242.46        115.1735
242.91        123.2655
243.37        152.5809
243.83         205.168
244.28        236.0556
244.74        208.8432
245.20        164.2212
245.66        130.4851
246.11        112.5051
246.57        104.0967
247.03        99.18993
247.48        93.25564
247.94        77.17173
248.40        50.25597
248.85        22.69805
249.31        8.800649
249.77         15.1172
250.22        32.46247
250.68        51.68768
251.14        67.34958
251.59        77.83937
252.05        85.99449
252.51        96.79916
252.96        120.2019
253.42        170.3298
253.88        203.3538
254.33         183.142
254.79        161.2805
255.25        150.3229
255.70        144.3876
256.16        141.7152
256.62        138.8854
257.07        133.8181
257.53        128.9385
257.99        124.7883
258.44        122.1704
258.90        122.8608
259.35        125.6336
259.81        129.9997
260.27        134.3844
260.72        136.7835
261.18         137.421
261.63        136.4185
262.09        135.1153
262.55        134.0109
263.00        132.9619
263.46        132.1372
263.91        130.8757
264.37        129.2421
264.83        127.1512
265.28        124.8113
265.74        122.7252
266.19        120.9069
266.65        119.6112
267.11        118.5771
267.56        117.8689
268.02        117.7804
268.47        118.1639
268.93        118.8857
269.38        119.4097
269.84        118.8658
270.30        117.1232
270.75          114.45
271.21        111.4963
271.66        109.0502
272.12        107.4169
272.57         106.234
273.03        105.3469
273.48        104.3318
273.94         103.163
274.39        101.9139
274.85        100.6335
275.31        99.12441
275.76        97.36719
276.22        95.54939
276.67        93.77231
277.13        92.52981
277.58        91.68298
278.04        91.16516
278.49        90.61079
278.95         89.7431
279.40        88.39278
279.86        86.84007
280.31        85.09998
280.77        83.47795
281.22        81.90836
281.68         80.4641
282.13         79.0558
282.59        77.81632
283.04        76.64638
283.50        75.64033
283.95        74.66257
284.41        73.66075
284.86        72.58962
285.32        71.54215
285.77        70.58307
286.22        69.93739
286.68        69.59452
287.13        69.41933
287.59        69.23058
288.04         68.6829
288.50        67.77776
288.95          66.578
289.41        65.35282
289.86        64.28766
290.32        63.50623
290.77        62.89753
291.22        62.39019
291.68        61.84811
292.13        61.21885
292.59        60.59021
293.04          60.023
293.50        59.68692
293.95        59.57304
294.40        59.62247
294.86        59.71439
295.31        59.67245
295.77        59.45495
296.22        59.09777
296.68        58.69135
297.13        58.31768
297.58        58.03606
298.04        57.85442
298.49        57.72333
298.95        57.62787
299.40        57.53621
299.85        57.45311
300.31        57.46992
300.76        57.67858
301.21         58.0779
301.67        58.61916
302.12        59.07027
302.58        59.13161
303.03        58.73137
303.48        58.01941
303.94        57.29945
304.39        56.89223
304.84        56.90205
305.30        57.20512
305.75        57.59932
306.20        57.81182
306.66        57.78211
307.11        57.57276
307.57        57.30362
308.02        57.05548
308.47        56.88396
308.93        56.75095
309.38         56.6096
309.83        56.46836
310.29        56.33323
310.74        56.20784
311.19        56.08164
311.65        55.91284
312.10        55.68729
312.55        55.41764
313.00        55.16939
313.46        55.04854
313.91        55.05593
314.36        55.14558
314.82        55.21164
315.27            55.1
315.72        54.77065
316.18        54.30022
316.63        53.74808
317.08        53.22745
317.53        52.77718
317.99        52.36694
318.44        52.01389
318.89         51.7515
319.35        51.58264
319.80        51.51343
320.25        51.47913
320.70        51.36631
321.16        51.14076
321.61        50.83135
322.06         50.5161
322.51        50.34139
322.97        50.32326
323.42        50.42673
323.87        50.53292
324.32        50.46156
324.78        50.16374
325.23         49.7229
325.68        49.22563
326.13        48.82047
326.59        48.54629
327.04        48.38096
327.49        48.29064
327.94         48.2326
328.39        48.18019
328.85        48.13142
329.30        48.09033
329.75        47.99367
330.20         47.8302
330.66        47.59346
331.11        47.33761
331.56         47.1057
332.01        46.92144
332.46        46.77971
332.92        46.66749
333.37        46.60833
333.82        46.58865
334.27        46.62181
334.72        46.69779
335.17        46.79557
335.63        46.88957
336.08        46.98825
336.53        47.09575
336.98        47.25372
337.43        47.45877
337.88        47.69276
338.34        47.86484
338.79        47.86175
339.24        47.65378
339.69        47.29308
340.14        46.90704
340.59        46.69541
341.05        46.70134
341.50        46.87511
341.95        47.12574
342.40        47.29874
342.85        47.34927
343.30        47.33906
343.75        47.29735
344.20        47.26733
344.66        47.27013
345.11        47.26746
345.56        47.30983
346.01         47.4804
346.46        47.77335
346.91        48.15853
347.36        48.50462
347.81        48.61105
348.26        48.44906
348.72        48.09172
349.17        47.66572
349.62        47.42365
350.07        47.41954
350.52        47.56678
350.97         47.7498
351.42         47.7732
351.87        47.59322
352.32        47.31002
352.77        46.96027
353.22        46.59579
353.67         46.2517
354.13        45.90292
354.58        45.63509
355.03        45.63927
355.48        45.92131
355.93        46.43705
356.38        46.92958
356.83        46.96371
357.28        46.46507
357.73        45.58561
358.18        44.66492
358.63        44.20946
359.08        44.31608
359.53        44.81561
359.98        45.44527
360.43        45.75868
360.88        45.61725
361.33         45.1718
361.78        44.57764
362.23        44.05416
362.68        43.67455
363.13        43.36669
363.58        43.10199
364.03        42.85322
364.48        42.60402
364.93        42.36956
365.38        42.15923
365.83        41.96896
366.28        41.78803
366.73        41.61282
367.18        41.38498
367.63        41.02169
368.08        40.52969
368.53        39.95276
368.98        39.40422
369.43        39.04647
369.88        38.90215
370.33         38.9136
370.78        38.98577
371.23        38.94997
371.68        38.75227
372.13        38.45193
372.58        38.08915
373.03        37.72042
373.48        37.37215
373.93        37.02266
374.38        36.71422
374.83        36.52385
375.28        36.46129
375.72        36.50171
376.17        36.57164
376.62        36.53713
377.07        36.36499
377.52        36.08321
377.97        35.75824
378.42        35.50033
378.87        35.33675
379.32        35.23705
379.77        35.13976
380.22        34.94913
380.67        34.65136
381.11        34.29097
381.56         33.9402
382.01        33.72183
382.46        33.66678
382.91        33.73141
383.36        33.84286
383.81        33.89237
384.26         33.8414
384.71        33.70924
385.15        33.52398
385.60        33.35833
386.05        33.22194
386.50        33.10044
386.95        32.95398
387.40        32.72596
387.85        32.42252
388.29        32.05933
388.74        31.75359
389.19        31.57845
389.64        31.54096
390.09        31.59623
390.54        31.68134
390.98        31.68971
391.43         31.6092
391.88        31.47635
392.33        31.30889
392.78        31.14511
393.23        31.00339
393.67        30.82102
394.12        30.66401
394.57        30.66436
395.02        30.77884
395.47        30.77798
395.91        30.66484
396.36        30.61843
396.81         30.6478
397.26        30.64956
397.71        30.59284
398.15        30.50734
398.60        30.43066
399.05        30.23125
399.50        29.99955
399.95        30.08307
400.39        30.39697
400.84        30.37861
401.29        30.01403
401.74        29.76788
402.18        29.66428
402.63        29.40567
403.08        29.07769
403.53        28.94429
403.97        29.02156
404.42        29.23707
404.87        29.46465
405.32        29.50598
405.76         29.3158
406.21        28.97171
406.66         28.5947
407.11        28.37631
407.55        28.37333
408.00        28.52651
408.45        28.74731
408.90        28.83871
409.34        28.76032
409.79        28.64084
410.24        28.52413
410.68         28.4053
411.13         28.3083
411.58        28.24879
412.03        28.20687
412.47        28.14147
412.92         28.0414
413.37        27.93167
413.81        27.84164
414.26        27.83283
414.71        27.90083
415.15        28.03036
415.60        28.15297
416.05        28.18315
416.49        28.09709
416.94        27.91702
417.39         27.7003
417.83        27.53715
418.28        27.45493
418.73        27.43102
419.17        27.42957
419.62        27.38636
420.07        27.29343
420.51        27.17519
420.96        27.08309
421.41        27.05832
421.85        27.09888
422.30        27.19325
422.74        27.31113
423.19        27.44087
423.64        27.56416
424.08        27.69477
424.53        27.78175
424.98        27.78271
425.42        27.69233
425.87        27.51516
426.31        27.31171
426.76        27.18723
427.21        27.16465
427.65        27.22279
428.10        27.30531
428.54        27.35609
428.99        27.37729
429.44         27.2994
429.88        27.14852
430.33        27.25295
430.77        27.48566
431.22        27.24939
431.66        26.67658
432.11        26.61327
432.56        27.03507
433.00        27.20675
433.45        26.97283
433.89        26.79066
434.34         26.4642
434.78        26.43057
435.23        26.88236
435.67        27.06055
436.12        27.01963
436.57        27.08959
437.01        27.27245
437.46        27.34042
437.90         27.2715
438.35        27.16974
438.79        27.05367
439.24        26.88165
439.68        26.71722
440.13        26.76915
440.57        26.95966
441.02        27.03003
441.46        26.95505
441.91        26.74395
442.35        26.50112
442.80        26.72123
443.24        27.25421
443.69        27.27948
444.13        26.82606
444.58         26.6589
445.02        26.78186
445.47        26.76817
445.91        26.64147
446.36        26.64981
446.80        26.79606
447.24        27.01029
447.69        27.21655
448.13         27.2928
448.58        27.21795
449.02        27.02873
449.47        26.81258
449.91        26.68464
450.36        26.68337
450.80        26.76698
451.25        26.87454
451.69        26.89272
452.13        26.79916
452.58        26.63475
453.02        26.45539
453.47         26.3614
453.91        26.37308
454.36        26.46841
454.80        26.58462
455.24        26.62542
455.69        26.57594
456.13        26.45018
456.58        26.33693
457.02        26.33453
457.46        26.46354
457.91        26.68518
458.35        26.89833
458.79        26.90696
459.24         26.6953
459.68        26.40603
460.13        26.18998
460.57        25.75067
461.01        25.87048
461.46        25.93168
461.90         26.0984
462.34        26.16559
462.79        26.24492
463.23        26.24932
463.68        26.23841
464.12        26.24537
464.56        26.28054
465.01        26.36158
465.45        26.42314
465.89        26.42427
466.34        26.36464
466.78        26.24928
467.22        26.12231
467.67        26.10517
468.11        26.10944
468.55        26.20536
468.99        26.31143
469.44         26.3512
469.88        26.31194
470.32        26.21437
470.77         26.1055
471.21        26.06205
471.65        26.10042
472.10        26.19793
472.54        26.30602
472.98        26.36468
473.42        26.35983
473.87        26.32302
474.31        26.26714
474.75        26.23708
475.20        26.24973
475.64        26.27929
476.08        26.31186
476.52        26.37552
476.97        26.47261
477.41        26.54157
477.85        26.39838
478.29        26.81223
478.74        26.58735
479.18        26.61408
479.62        26.56289
480.06        26.61958
480.50        26.80319
480.95        26.58279
481.39        26.85195
481.83        26.83566
482.27        26.81088
482.72        26.78872
483.16         26.7861
483.60        26.82966
484.04        26.90081
484.48        26.94679
484.93        27.09665
485.37         27.3215
485.81        27.54265
486.25        28.01291
486.69        27.55494
487.14        26.85409
487.58         27.2627
488.02        27.56612
488.46        27.45419
488.90        27.56596
489.34        27.45435
489.79        27.22635
490.23        27.77299
490.67        27.91761
491.11        27.95574
491.55        28.05051
491.99        28.20721
492.43        28.31821
492.88        28.36707
493.32        28.38115
493.76        28.38693
494.20        28.45795
494.64        28.61132
495.08        28.78974
495.52        28.96017
495.96        29.15425
496.41         29.3266
496.85        29.30187
497.29        29.14208
497.73        29.18577
498.17        29.43097
498.61         29.5284
499.05        29.48816
499.49        29.62524
499.93        29.90631
500.37        30.04094
500.82        30.03035
501.26        30.07557
501.70        30.18435
502.14        30.25332
502.58        30.27833
503.02        30.29971
503.46        30.32196
503.90        30.33752
504.34        30.36656
504.78        30.43712
505.22        30.55289
505.66        30.70988
506.10        30.86928
506.54        30.96563
506.98        30.98452
507.42        30.94229
507.86        30.89015
508.30        30.90833
508.74        31.01464
509.18        31.18798
509.62        31.37203
510.06        31.47364
510.50        31.47001
510.94        31.38794
511.38        31.29055
511.82        31.27895
512.26        31.37341
512.70        31.53761
513.14        31.70514
513.58        31.77223
514.02        31.71594
514.46        31.57538
514.90        31.40525
515.34         31.2926
515.78        31.26597
516.22         31.2987
516.66        31.36668
517.10        31.43244
517.54        31.47983
517.98        31.51955
518.42        31.55112
518.86        31.57061
519.30        31.57839
519.74        31.57267
520.18        31.55237
520.62        31.52094
521.06        31.48026
521.50        31.42772
521.93        31.38002
522.37        31.35605
522.81        31.36162
523.25        31.39559
523.69        31.42436
524.13         31.3932
524.57        31.29774
525.01        31.15741
525.45        31.02617
525.89        30.99005
526.32        31.06095
526.76        31.20146
527.20        31.35522
527.64        31.43122
528.08        31.40501
528.52        31.31413
528.96        31.17865
529.40        31.02966
529.83        30.88429
530.27        30.74032
530.71        30.63467
531.15        30.63411
531.59        30.74147
532.03        30.93302
532.46        31.12824
532.90        31.20274
533.34        31.12958
533.78        30.92482
534.22        30.66323
534.66         30.5129
535.09        30.47655
535.53         30.4156
535.97        30.32142
536.41        30.28953
536.85        30.31595
537.28        30.34328
537.72        30.37367
538.16        30.43706
538.60        30.52694
539.04        30.62426
539.47        30.70754
539.91        30.76601
540.35        30.79029
540.79        30.80336
541.22        30.81454
541.66        30.79409
542.10        30.82835
542.54        30.84928
542.97        30.89378
543.41          30.999
543.85        31.15852
544.29        31.36226
544.72        31.56129
545.16        31.69485
545.60        31.74676
546.04        31.73523
546.47        31.71005
546.91        31.75982
547.35        31.90639
547.79        32.11272
548.22        32.31527
548.66        32.48744
549.10        32.61568
549.53        32.56765
549.97        32.67015
550.41        32.77481
550.84         32.9746
551.28        33.25385
551.72        33.56632
552.15        33.76691
552.59        33.84275
553.03        34.02072
553.46        34.04683
553.90        34.15096
554.34        34.26784
554.77        34.33877
555.21         34.3447
555.65        34.63623
556.08        34.56134
556.52         34.6635
556.96        34.73381
557.39        34.78581
557.83        34.83012
558.27        34.82093
558.70        34.78733
559.14        34.94625
559.57        34.98887
560.01        35.20184
560.45         35.4087
560.88        35.43248
561.32        35.33031
561.75        35.21209
562.19        35.16592
562.63        35.34536
563.06         35.6615
563.50        35.66072
563.93        35.39182
564.37         35.3718
564.80        35.60124
565.24         35.8026
565.68        35.93263
566.11        36.05757
566.55        36.18048
566.98         36.2679
567.42        36.36214
567.85        36.49395
568.29        36.67334
568.72        36.88814
569.16        37.15897
569.60        37.29768
570.03        37.24916
570.47        37.52391
570.90        37.74585
571.34        37.29461
571.77        37.65773
572.21        37.66021
572.64        37.83627
573.08        37.73337
573.51        38.12467
573.95        38.61969
574.38        38.36824
574.82        38.60357
575.25        38.77811
575.69        38.77142
576.12        38.55792
576.56        38.59121
576.99        39.05124
577.42        38.85745
577.86        38.98721
578.29         39.2103
578.73        39.49004
579.16        38.93928
579.60        38.34507
580.03        38.09927
580.47        38.63534
580.90         38.1146
581.33        38.67568
581.77        38.80528
582.20        38.80701
582.64        38.49735
583.07         38.3329
583.51        37.99406
583.94        37.82244
584.37        37.87449
584.81        38.09623
585.24        38.15185
585.68        38.03109
586.11        37.65386
586.54        37.65605
586.98        37.37482
587.41        36.93748
587.85        37.62054
588.28        37.41266
588.71        36.90917
589.15        37.43923
589.58        36.91624
590.01         37.2221
590.45        37.12073
590.88        37.04068
591.31        37.02896
591.75        37.08326
592.18        36.93376
592.61        36.57815
593.05        37.06712
593.48        37.12835
593.91         37.1655
594.35        37.26351
594.78        37.27234
595.21        37.27071
595.65        37.59304
596.08         37.5869
596.51        37.57865
596.94        37.91393
597.38        38.08064
597.81        38.26838
598.24        38.18614
598.68        38.51164
599.11        38.60703
599.54        39.36272
599.97        39.31118
600.41        39.47388
600.84        39.85371
601.27        40.12492
601.70        40.73502
602.14        41.15992
602.57        41.36685
603.00         41.3409
603.43        41.45756
603.87        42.01437
604.30         42.3978
604.73        42.53746
605.16        42.74155
605.60        42.98733
606.03        43.59982
606.46        44.33355
606.89        44.50531
607.32        44.31951
607.76         44.3946
608.19        44.80973
608.62        45.51896
609.05        45.87754
609.48        46.11705
609.92        46.19336
610.35         46.2583
610.78        47.28318
611.21        47.64065
611.64        47.57499
612.07        48.06727
612.50        48.34675
612.94         48.3371
613.37        48.47293
613.80        48.74789
614.23        48.79882
614.66        49.24279
615.09        49.18507
615.52        49.41176
615.96        49.66703
616.39        50.05407
616.82        50.55214
617.25        50.46417
617.68        50.72189
618.11        50.83332
618.54        51.04535
618.97         51.0443
619.40        50.92387
619.84        50.93491
620.27        51.09301
620.70        51.50465
621.13        52.12774
621.56        51.75135
621.99        51.88559
622.42        51.99672
622.85         51.9318
623.28        51.89809
623.71        51.97515
624.14        52.39609
624.57        52.47324
625.00        52.63162
625.43        52.63145
625.86        52.59399
626.29        52.53413
626.72        52.14878
627.15         52.0652
627.58         51.7343
628.01        51.40155
628.44        51.29028
628.87        51.34794
629.30        51.22612
629.73        50.93282
630.16        50.76038
630.59        50.70041
631.02        50.57414
631.45        50.35481
631.88        50.08681
632.31        49.76995
632.74        49.39548
633.17        48.99899
633.60        48.63989
634.03        48.33133
634.46        48.05701
634.89         47.7985
635.32        47.52111
635.75        47.21645
636.18        46.90409
636.61        46.57091
637.04        46.20509
637.47        45.81548
637.89        45.36378
638.32        44.89091
638.75        44.61784
639.18        44.53736
639.61        44.25792
640.04        44.08143
640.47        43.83922
640.90        43.61912
641.33        43.32731
641.76        42.98949
642.18        42.75772
642.61        42.65442
643.04        42.54974
643.47        42.38093
643.90        42.64595
644.33        42.41237
644.76        42.37374
645.18         42.3093
645.61        42.46082
646.04        42.76695
646.47         42.8704
646.90        42.79674
647.33        42.87841
647.75        43.12569
648.18        43.33661
648.61        43.50874
649.04        43.69297
649.47        43.88435
649.89        44.19366
650.32        44.57298
650.75        44.68387
651.18         44.6335
651.61        45.07806
652.03         45.9896
652.46        46.48441
652.89        46.51297
653.32        46.92235
653.74        47.86632
654.17         47.5676
654.60        48.28077
655.03        48.81113
655.46        48.12072
655.88        48.96677
656.31        54.71109
656.74        54.32225
657.16        50.12056
657.59        49.33492
658.02        50.45255
658.45        50.89771
658.87        51.33997
659.30        51.03648
659.73        51.57792
660.15        52.59867
660.58        52.40653
661.01        52.51989
661.44        52.47586
661.86        52.88312
662.29        53.64401
662.72        54.02816
663.14        54.05149
663.57         54.2716
664.00        54.68449
664.42        54.88998
664.85         54.8948
665.27         54.8774
665.70        54.90113
666.13        54.99895
666.55         55.1986
666.98        55.47782
667.41        55.79914
667.83        56.09848
668.26        56.33567
668.69        56.52534
669.11        56.67413
669.54        56.81894
669.96        56.96226
670.39         57.0388
670.82        57.08044
671.24        57.18046
671.67        57.34873
672.09        57.53514
672.52        57.72211
672.94        57.85428
673.37        57.92622
673.80        57.95282
674.22        57.96904
674.65        58.00166
675.07        58.07882
675.50        58.18062
675.92         58.3046
676.35        58.43789
676.77        58.57842
677.20         58.7252
677.62        58.88044
678.05        59.03145
678.47        59.17587
678.90        59.32336
679.32        59.46378
679.75        59.60423
680.17        59.73634
680.60        59.85295
681.02        59.97565
681.45        60.10753
681.87        60.25556
682.30        60.46821
682.72        60.69996
683.15        60.69886
683.57        60.52943
684.00        60.54884
684.42         60.7626
684.85        60.90062
685.27        60.94659
685.70        61.08222
686.12        61.27042
686.54        61.38057
686.97        61.40377
687.39        61.43878
687.82        61.45945
688.24        61.51237
688.66        61.26537
689.09        61.46774
689.51        61.94449
689.94        62.23419
690.36        62.30879
690.78        62.36975
691.21        62.50359
691.63        62.81953
692.06        63.28823
692.48        63.71442
692.90        64.00805
693.33        64.18227
693.75        64.21875
694.17        64.00645
694.60        63.68975
695.02        63.59473
695.44        63.71502
695.87        63.88471
696.29        64.04408
696.71        63.92561
697.14        63.68721
697.56        64.08654
697.98         64.9706
698.41        65.35907
698.83        65.21873
699.25        65.20304
699.68        65.34498
700.10        65.40571
700.52        65.39574
700.94        65.38143
701.37        65.40475
701.79        65.61112
702.21        65.93294
702.64         66.1814
703.06        66.30616
703.48        66.29335
703.90        66.12341
704.33        66.20984
704.75        65.80544
705.17        65.79166
705.59        65.95371
706.01        66.23183
706.44        66.58115
706.86         66.9183
707.28        67.17987
707.70        67.51838
708.12        67.84083
708.55        67.66482
708.97        67.13897
709.39        67.06257
709.81        67.42703
710.23        67.54543
710.66        67.39609
711.08        67.41784
711.50        67.62753
711.92        67.85232
712.34        68.07949
712.76        68.35187
713.19        68.58841
713.61        68.70414
714.03        68.66263
714.45        68.48961
714.87        68.28998
715.29        68.23219
715.71        68.35461
716.13        68.61611
716.56        68.91078
716.98        69.12881
717.40        69.19342
717.82        69.16438
718.24        69.12491
718.66        69.10355
719.08        69.29534
719.50        69.52155
719.92        69.75268
720.34        69.86221
720.76        69.82278
721.19        69.67728
721.61        69.50818
722.03        69.43665
722.45         69.5052
722.87        69.69451
723.29         69.9394
723.71        70.12928
724.13        70.22158
724.55        70.23492
724.97        70.26826
725.39         70.4147
725.81        70.67577
726.23        71.21356
726.65        71.65483
727.07        71.52927
727.49        71.14497
727.91        70.62125
728.33        70.24861
728.75        70.06808
729.17        70.14831
729.59        70.54279
730.01        71.09712
730.43        71.46872
730.85        71.56769
731.27        71.51278
731.69        71.36591
732.10        71.22179
732.52        71.12408
732.94        71.01848
733.36        70.96898
733.78         71.0554
734.20        71.27271
734.62        71.72328
735.04        72.24397
735.46        72.26376
735.88        71.87683
736.30        71.84757
736.72        72.17928
737.13        72.27766
737.55        72.11219
737.97        72.05878
738.39        72.15936
738.81        72.35634
739.23        72.61752
739.65        72.81097
740.06        72.87983
740.48        72.99925
740.90        73.13496
741.32        73.19879
741.74        73.17757
742.16        73.08428
742.57        72.92485
742.99        72.79782
743.41        72.75336
743.83        72.59903
744.25        72.46211
744.67        72.90032
745.08        73.73679
745.50        74.05673
745.92        73.76859
746.34        73.30244
746.75        72.84211
747.17        72.54573
747.59        72.48185
748.01        72.65267
748.42        72.94057
748.84        73.09769
749.26        73.12904
749.68        73.06522
750.09        73.01271
750.51         73.4484
750.93        74.17482
751.35        74.23734
751.76        73.73879
752.18         73.6659
752.60        74.07541
753.01         74.4146
753.43        74.57208
753.85        74.67975
754.27        74.72453
754.68          74.687
755.10        74.63931
755.52        74.68794
755.93        74.83488
756.35        75.03632
756.77        75.26492
757.18        75.36486
757.60        75.30688
758.02        75.43102
758.43        75.61059
758.85         75.0857
759.26         74.1838
759.68        74.28684
760.10        75.24855
760.51        75.79478
760.93        75.88956
761.34        74.96715
761.76        75.89567
762.18        75.44994
762.59         74.7891
763.01        74.69476
763.42        75.88724
763.84        76.30319
764.26        76.04518
764.67        75.74377
765.09        75.60539
765.50        75.66803
765.92        75.89952
766.33         76.0017
766.75        75.81987
767.16        75.57669
767.58        75.38766
768.00        75.25382
768.41        75.36613
768.83        76.43212
769.24         77.9614
769.66        78.24869
770.07        77.13054
770.49        76.55718
770.90        76.67363
771.32         76.8598
771.73        76.98002
772.15        77.00768
772.56        76.96548
772.97        76.53842
773.39        76.62604
773.80        76.80586
774.22        77.22704
774.63        77.55689
775.05        77.67143
775.46        77.75433
775.88        77.74305
776.29        77.51023
776.70         77.1741
777.12        77.06165
777.53        77.25079
777.95        77.62491
778.36        78.03658
778.77        78.21954
779.19         78.1121
779.60        77.80167
780.02        77.43334
780.43        77.26323
780.84        77.36299
781.26        77.57121
781.67        77.79626
782.09        78.04237
782.50        78.18246
782.91        77.86107
783.33          77.282
783.74         77.1757
784.15        77.63075
784.57        78.25173
784.98        78.92724
785.39        79.53434
785.81        79.99894
786.22        80.16248
786.63        80.46437
787.04        80.44798
787.46        80.30027
787.87        79.99717
788.28        79.72081
788.70        79.67848
789.11        79.86961
789.52        80.35418
789.93        80.89875
790.35        80.88548
790.76        80.35967
791.17        79.91319
791.58        79.68375
792.00        79.47464
792.41        79.36408
792.82        79.45234
793.23         79.6562
793.65        79.98422
794.06         80.2559
794.47         79.8774
794.88        79.14648
795.29        78.96191
795.71         79.3064
796.12        79.98621
796.53        80.69911
796.94        80.71316
797.35        80.03055
797.76        79.60169
798.18        79.62457
798.59        79.63091
799.00        79.67963
799.41        80.11915
799.82        80.80761
800.23        81.27273
800.64        81.41058
801.06        81.33492
801.47        81.14611
801.88          80.904
802.29        80.66329
802.70        80.38551
803.11         80.1375
803.52        80.04083
803.93        80.13108
804.34        80.39573
804.75        80.73544
805.17        81.04819
805.58        81.34355
805.99        81.29533
806.40        81.02188
806.81        81.48192
807.22        82.36395
807.63        81.91025
808.04        80.39528
808.45        79.82667
808.86        80.37199
809.27        80.94308
809.68        81.33141
810.09        81.66122
810.50        81.84454
810.91        81.88046
811.32        81.80259
811.73        81.64686
812.14        81.45674
812.55        81.24004
812.96        81.09092
813.37         81.1561
813.78        81.45666
814.19        81.94793
814.60        82.48974
815.01        82.86002
815.42        83.00034
815.83        82.95984
816.24        82.79726
816.65        82.63932
817.05        82.54652
817.46        82.45864
817.87        82.39742
818.28        82.34412
818.69         82.2906
819.10        82.25471
819.51        82.24438
819.92        82.25996
820.33        82.29474
820.74         82.3347
821.14        82.35236
821.55        82.34352
821.96        82.29483
822.37        82.23105
822.78        82.16411
823.19        82.11425
823.60         82.1012
824.00        82.14246
824.41        82.23295
824.82        82.48627
825.23        82.89268
825.64        83.39591
826.04         83.8962
826.45        84.13479
826.86        84.08144
827.27         83.8127
827.68        83.38768
828.08        82.93532
828.49        82.48846
828.90        82.03571
829.31        81.69987
829.72        81.66229
830.12        81.98327
830.53        82.59247
830.94        83.26111
831.35        83.50772
831.75        83.23724
832.16        82.53711
832.57        81.80985
832.97         81.6701
833.38        82.21894
833.79        83.24371
834.20        84.38041
834.60          85.008
835.01        84.90836
835.42        84.32407
835.82        83.47678
836.23        82.69804
836.64        82.13122
837.04        81.69939
837.45        81.43549
837.86        81.47718
838.26         81.8287
838.67        82.41489
839.08        83.06678
839.48        83.45325
839.89        83.46461
840.29        83.18787
840.70         82.7358
841.11        82.26699
841.51        81.87914
841.92        81.51814
842.33        81.28107
842.73        81.33267
843.14        81.63893
843.54        82.21796
843.95        82.87976
844.35        83.37569
844.76        83.57852
845.17        83.53561
845.57        83.35752
845.98        83.22594
846.38        83.21794
846.79        83.26061
847.19        83.29335
847.60        83.12309
848.00        82.75488
848.41        82.25401
848.81        81.79745
849.22        81.62031
849.62        81.79153
850.03        82.21178
850.43        82.73838
850.84        82.95674
851.24        82.83802
851.65        82.44656
852.05         82.0474
852.46          82.023
852.86        82.42622
853.27        83.10601
853.67        83.80595
854.07        84.40854
854.48        84.78941
854.88        85.10614
855.29        85.15074
855.69        84.89347
856.10        84.24068
856.50        83.33381
856.90        82.41266
857.31        81.83674
857.71        81.67298
858.12        81.77213
858.52        82.07805
858.92        82.22717
859.33        82.09158
859.73        81.83377
860.13        81.43505
860.54        80.90347
860.94        80.29007
861.34        79.57516
861.75        78.96027
862.15        78.86156
862.55        79.32743
862.96        80.21945
863.36        81.22964
863.76        81.75873
864.17        81.65085
864.57        81.08913
864.97        80.34258
865.38        79.86864
865.78        79.84245
866.18        80.10308
866.58        80.49651
866.99        80.74971
867.39        80.80646
867.79        80.76441
868.19        80.66161
868.60        80.50582
869.00        80.31101
869.40        80.04807
869.80        79.84129
870.21        79.92683
870.61         80.3947
871.01        81.11077
871.41        81.77164
871.81        81.91933
872.22        81.46545
872.62        80.55333
873.02        79.50743
873.42        78.86412
873.82        78.79459
874.22        79.18139
874.63        79.76652
875.03         80.1264
875.43        80.15101
875.83        79.95026
876.23        79.78233
876.63        80.05344
877.03        80.81656
877.44        81.87994
877.84        82.89694
878.24        83.24755
878.64        82.79997
879.04        81.79218
879.44        80.60867
879.84        79.81812
880.24        79.57764
880.64        79.72595
881.04        80.09796
881.44        80.41817
881.84         80.5901
882.24        80.71143
882.65        80.77929
883.05        80.89716
883.45         81.0371
883.85        81.14606
884.25        81.24512
884.65        81.39788
885.05        81.61923
885.45        81.90337
885.85        82.19843
886.25        82.40907
886.65        82.49232
887.05         82.4469
887.45        82.33471
887.85        82.25299
888.25        82.23119
888.65        82.27217
889.04        82.26143
889.44        81.99543
889.84        81.47265
890.24        80.75246
890.64        80.10273
891.04        79.90008
891.44        80.20219
891.84        80.92999
892.24        81.70642
892.64         81.8856
893.04        81.33766
893.44        80.25794
893.83        79.17223
894.23        78.90421
894.63        79.57425
895.03        80.92744
895.43        82.41088
895.83        83.01322
896.23        82.48483
896.63        81.24462
897.02        79.77907
897.42         78.8954
897.82        78.72411
898.22        79.05457
898.62        79.75997
899.01        80.66265
899.41        81.57123
899.81        82.55443
900.21        83.52916
900.61        84.33768
901.00        84.90643
901.40         85.1852
901.80        85.16985
902.20         84.9039
902.59        84.45202
902.99        83.85455
903.39        83.23692
903.79        82.78635
904.18        82.54126
904.58        82.47861
904.98        82.54623
905.38        82.65858
905.77        82.76334
906.17        82.90812
906.57        82.96679
906.96         82.7543
907.36        82.24882
907.76        81.53161
908.15        80.88899
908.55        80.73685
908.95        81.18353
909.34        82.10587
909.74        83.18491
910.14        83.97626
910.53        84.30827
910.93        84.27375
911.33        84.01021
911.72        83.74725
912.12        83.58067
912.52        83.44044
912.91         83.2272
913.31        82.77691
913.70        82.11262
914.10        81.36516
914.49        80.75385
914.89        80.56973
915.29          80.869
915.68        81.52528
916.08         82.3765
916.47        83.16924
916.87        83.76554
917.26         84.2095
917.66        84.43768
918.05        84.36222
918.45        83.99733
918.84        83.40737
919.24        82.76639
919.64        82.49651
920.03        82.72443
920.42        83.31367
920.82        84.05643
921.21        84.64249
921.61        84.93071
922.00        84.99754
922.40        84.85323
922.79         84.6294
923.19        84.36826
923.58        84.06274
923.98          83.672
924.37        83.04787
924.77        82.24905
925.16        81.34696
925.55        80.61834
925.95         80.4838
926.34        81.06455
926.74        82.15637
927.13        83.52883
927.52        84.70912
927.92         85.5051
928.31        86.02253
928.70         86.2483
929.10        86.21912
929.49        86.00964
929.89        85.58472
930.28         85.0767
930.67        84.67123
931.07        84.41125
931.46        84.26668
931.85        84.21713
932.24        84.19921
932.64        84.18593
933.03        84.26913
933.42        84.27299
933.82        83.93913
934.21        83.25876
934.60        82.28726
934.99        81.47368
935.39         81.4821
935.78        82.45412
936.17        84.22469
936.56        86.12209
936.96        86.89293
937.35        86.24277
937.74        84.52481
938.13        82.56348
938.53        81.45874
938.92        81.39981
939.31        82.12431
939.70        83.16441
940.09        83.66937
940.49         83.3887
940.88         82.6293
941.27        81.81738
941.66         81.5802
942.05        82.06444
942.44        83.05372
942.84        84.16825
943.23        84.86107
943.62        84.86987
944.01        84.39581
944.40         83.7412
944.79        83.38046
945.18        83.44411
945.57        83.75259
945.97        84.13802
946.36        84.44443
946.75        84.57047
947.14        84.60548
947.53        84.52765
947.92        84.27779
948.31        83.88498
948.70        83.38681
949.09         82.9383
949.48        82.76965
949.87        82.94408
950.26        83.43356
950.65        84.12152
951.04        84.78187
951.43        85.29913
951.82        85.64793
952.21        85.91816
952.60        86.29195
952.99        86.75961
953.38        87.22232
953.77        87.41636
954.16        86.89783
954.55        85.66146
954.94        84.02107
955.33        82.33559
955.72        81.12034
956.11        80.53145
956.50        80.35989
956.89        80.68865
957.28        81.64523
957.66        83.17954
958.05         85.1294
958.44         86.8147
958.83        86.94382
959.22        85.31337
959.61        82.45232
960.00        79.40152
960.39        77.65126
960.78        77.52069
961.16        78.58115
961.55         80.3366
961.94        82.03564
962.33        83.31978
962.72        84.43164
963.11        85.12019
963.49        84.95613
963.88        83.90758
964.27        82.15092
964.66         80.3503
965.04         79.4703
965.43        79.66436
965.82        80.67617
966.21        82.07986
966.60        83.00323
966.98        83.13821
967.37        82.73235
967.76        81.97601
968.15        81.16264
968.53        80.47749
968.92          79.807
969.31        79.35247
969.69        79.47849
970.08        80.15515
970.47        81.26773
970.86        82.46607
971.24        83.08372
971.63        82.82289
972.02        81.94891
972.40        80.60364
972.79        79.06491
973.17        77.56445
973.56        76.13029
973.95        75.06981
974.33        74.85757
974.72        75.49263
975.11        76.80453
975.49         78.5996
975.88        80.33061
976.26        81.73753
976.65        82.81578
977.04        83.19695
977.42        82.33601
977.81        80.31162
978.19        77.34825
978.58        74.69011
978.96        73.95858
979.35        75.43974
979.74        78.80513
980.12         83.1374
980.51        85.83895
980.89        86.19341
981.28        84.70352
981.66        82.40272
982.05        81.10731
982.43        81.31966
982.82        82.40662
983.20        84.09223
983.59        85.73055
983.97        87.10842
984.35        88.40193
984.74        89.19296
985.12        88.90389
985.51        87.47755
985.89        85.04012
986.28        82.43765
986.66        80.90518
987.04        80.87757
987.43        82.05232
987.81        83.73898
988.20        84.48974
988.58        83.95422
988.96        82.39256
989.35        80.68394
989.73        80.21117
990.12        81.21723
990.50        83.31248
990.88        85.35262
991.27         85.5163
991.65        83.54664
992.03        80.14738
992.42        76.67145
992.80        74.91816
993.18        75.44035
993.56        77.59592
993.95        80.50027
994.33        82.92867
994.71        84.11053
995.10        84.40364
995.48        83.85688
995.86        82.53934
996.24        80.72952
996.63        78.52148
997.01         76.3578
997.39        74.90836
997.77        74.32997
998.15        74.48883
998.54        75.35236
998.92        76.78728
999.30        78.59409
999.68        80.75019
1000.06        82.71497
1000.45        83.55252
1000.83        83.17078
1001.21         81.6432
1001.59        79.62019
1001.97        78.35177
1002.35        78.24742
1002.73        78.99986
1003.12        80.20051
1003.50        81.05696
1003.88        81.31569
1004.26        81.25022
1004.64        80.93346
1005.02        80.42141
1005.40        79.79143
1005.78        78.99989
1006.16        78.19593
1006.54        77.71193
1006.92        77.61396
1007.30        77.77091
1007.69        78.02421
1008.07        78.31642
1008.45        78.48383
1008.83        78.63861
1009.21        78.55164
1009.59        77.82757
1009.97        76.49562
1010.35        74.71345
1010.73        73.18448
1011.11        73.13747
1011.49        74.95988
1011.86        78.57568
1012.24        83.02898
1012.62        86.90466
1013.00         89.5143
1013.38        90.93799
1013.76        91.62511
1014.14        92.63555
1014.52        94.24734
1014.90        96.04193
1015.28         97.1241
1015.66         96.1134
1016.04        93.08669
1016.41        89.04082
1016.79        85.26059
1017.17        82.49691
1017.55        80.56522
1017.93        78.98041
1018.31        77.42319
1018.69        75.67957
1019.06        74.09196
1019.44        73.19376
1019.82        72.68679
1020.20        72.00043
1020.58        71.01396
1020.95        69.65152
1021.33        68.49921
1021.71        68.92088
1022.09        71.44254
1022.46        75.40819
1022.84        79.57948
1023.22        82.62429
1023.60        84.19036
1023.97        84.74644
1024.35        84.05568
1024.73        81.90039
