SpectraSmart Spectrum 2.9.0.0
--------- Device Information -----------
Spectrum Name :  反射率_0
Saving Time :  2024/05/01 16:56:01
Spectro-Module Model Name : SE2030-DUVN
Spectro-Module Serial Number : OS361AC55029948
Wavelength Start : 200
Wavelength End : 1025
Wavelength Unit : Wavelength(nm)
Spectrum Unit : Reflectance(%)
-----------Spectrum Setting ------------
Integration Time : 20ms
Average : 10
Boxcar : 0
Background removal :  enabled
linearity correction :  enabled
SC :  disabled
Intensity correction :  disabled
DWT denoise :  enabled
savitzky-golay :  disabled
FFT :  disabled
Running average :  disabled
Kalman :  disabled
High pass :  disabled
---------------BEGIN--------------------
Wavelength(nm)             Reflectance(%)
200.29               0
200.75        114.4629
201.21         502.211
201.67       -211.9517
202.13       -70.21404
202.58       -20.29145
203.04        11.25328
203.50        30.42866
203.96        36.07561
204.42        28.12564
204.88       -12.46655
205.34       -1056.285
205.80         185.506
206.26        94.80735
206.72        2.032495
207.18       -375.3903
207.64        640.1592
208.10        259.2252
208.55        154.3138
209.01        98.14201
209.47         69.0444
209.93        56.26611
210.39        49.09571
210.85        46.85376
211.31         52.5164
211.77         83.8026
212.23       -205.9273
212.69        -30.3542
213.14       -8.707376
213.60        21.05565
214.06        -240.362
214.52       -55.31131
214.98       -40.90946
215.44       -33.84372
215.90       -23.50313
216.36        133.9322
216.81        -138.926
217.27       -239.8244
217.73        571.8721
218.19        120.7756
218.65         75.7166
219.11        60.07378
219.57        44.30169
220.02       -32.26969
220.48       -45.71452
220.94       -5.639307
221.40         9.10125
221.86        17.45875
222.32        25.58178
222.77        36.43953
223.23        53.05436
223.69        74.02631
224.15        83.21798
224.61        74.71973
225.06        59.91019
225.52        49.65371
225.98        47.92999
226.44        53.74072
226.90        66.52412
227.36        83.86212
227.81        92.77063
228.27        87.83628
228.73        77.22619
229.19        68.70506
229.65        66.72964
230.10        70.76884
230.56        79.56644
231.02        90.89574
231.48        97.38849
231.93        95.42072
232.39        89.20987
232.85        82.38573
233.31        78.11301
233.77        76.57575
234.22        76.38284
234.68        77.07381
235.14         78.2589
235.60        79.88447
236.05         82.6788
236.51        86.62164
236.97        90.74614
237.43        93.41509
237.88        93.69135
238.34        91.77457
238.80        89.71832
239.26        87.89493
239.71        86.08997
240.17        82.25626
240.63        73.41119
241.08        60.81302
241.54        49.44373
242.00         43.2091
242.46        42.63717
242.91        47.55638
243.37        59.04827
243.83        80.13953
244.28        99.70676
244.74        99.39848
245.20        88.41261
245.66        76.44781
246.11        65.23914
246.57        52.11855
247.03        32.43911
247.48       0.4841197
247.94       -38.98893
248.40       -67.64523
248.85       -79.50306
249.31       -69.08431
249.77       -41.95145
250.22       -11.73531
250.68        14.97216
251.14        34.06564
251.59        44.65839
252.05        49.40934
252.51        49.22791
252.96        41.74835
253.42        33.03439
253.88        42.19775
254.33        57.12011
254.79         64.0862
255.25        65.24547
255.70        64.26569
256.16         63.5945
256.62        64.11925
257.07         66.3609
257.53        69.85088
257.99        73.29588
258.44        75.86803
258.90          77.533
259.35         78.0827
259.81        78.26194
260.27         78.0611
260.72        77.53234
261.18        77.11046
261.63        76.43048
262.09        75.92346
262.55        75.54497
263.00        75.13762
263.46        74.88219
263.91        74.45159
264.37         73.8959
264.83        73.13813
265.28        72.22723
265.74        71.36888
266.19        70.46896
266.65        69.68211
267.11        68.90655
267.56        68.24414
268.02        67.98192
268.47        68.06789
268.93        68.37959
269.38        68.61983
269.84        68.26817
270.30        67.24164
270.75        65.69853
271.21        63.96262
271.66        62.37629
272.12        61.12642
272.57        60.03952
273.03        59.12727
273.48        58.30636
273.94        57.58516
274.39        56.95026
274.85        56.35489
275.31        55.58974
275.76        54.62355
276.22        53.60596
276.67        52.59057
277.13        51.84553
277.58        51.30032
278.04        50.90509
278.49        50.52587
278.95        50.13659
279.40        49.62638
279.86        49.09007
280.31        48.39033
280.77        47.49183
281.22        46.35585
281.68        45.13793
282.13        43.92136
282.59        42.96281
283.04        42.25412
283.50        41.78244
283.95        41.45731
284.41        41.22253
284.86         41.0092
285.32        40.85273
285.77        40.70949
286.22         40.5881
286.68        40.47581
287.13        40.32691
287.59        40.11535
288.04        39.76621
288.50        39.32007
288.95        38.76575
289.41        38.23246
289.86        37.78411
290.32        37.47607
290.77        37.27123
291.22        37.10881
291.68        36.87521
292.13        36.55014
292.59        36.20955
293.04        35.93169
293.50        35.89962
293.95         36.1173
294.40        36.51711
294.86        37.00072
295.31        37.42455
295.77        37.73389
296.22        37.96193
296.68        38.11074
297.13        38.15802
297.58        38.14241
298.04        38.09584
298.49        38.08727
298.95        38.27563
299.40        38.65861
299.85        39.17091
300.31        39.75272
300.76        40.29609
301.21        40.76249
301.67         41.1875
302.12        41.47667
302.58        41.52668
303.03        41.32848
303.48         40.9588
303.94        40.63182
304.39        40.57883
304.84        40.86457
305.30        41.39677
305.75        42.00189
306.20        42.43143
306.66        42.61794
307.11        42.60564
307.57        42.48577
308.02        42.33025
308.47        42.19006
308.93        42.04583
309.38        41.86573
309.83        41.66445
310.29          41.459
310.74        41.26157
311.19        41.09457
311.65        40.96638
312.10         40.8714
312.55        40.80492
313.00        40.77312
313.46        40.78734
313.91        40.82792
314.36        40.87224
314.82        40.87184
315.27         40.7691
315.72        40.54404
316.18        40.22848
316.63        39.83802
317.08        39.40769
317.53        38.96177
317.99        38.51075
318.44        38.08535
318.89        37.74587
319.35        37.51072
319.80        37.36439
320.25        37.28767
320.70        37.23959
321.16        37.18895
321.61        37.14563
322.06        37.07382
322.51        36.92664
322.97        36.69013
323.42        36.38667
323.87        36.05672
324.32        35.78756
324.78        35.59887
325.23        35.48137
325.68        35.39463
326.13        35.27586
326.59        35.09616
327.04        34.89283
327.49        34.66625
327.94        34.42909
328.39         34.1897
328.85        33.92789
329.30        33.68285
329.75        33.48324
330.20        33.33606
330.66        33.22825
331.11        33.13838
331.56        32.98708
332.01         32.7598
332.46        32.48013
332.92        32.18584
333.37        31.97779
333.82        31.87351
334.27        31.85771
334.72        31.89902
335.17        31.94251
335.63        31.95228
336.08        31.94743
336.53         31.9449
336.98        31.99046
337.43        32.08717
337.88        32.22028
338.34        32.30276
338.79        32.21789
339.24        31.94194
339.69        31.52051
340.14        31.09872
340.59        30.90422
341.05        30.97615
341.50        31.25009
341.95        31.57645
342.40        31.70856
342.85        31.58723
343.30        31.30612
343.75        30.97058
344.20        30.74192
344.66        30.67433
345.11        30.70084
345.56        30.81561
346.01        31.00747
346.46        31.24335
346.91        31.51758
347.36         31.7487
347.81        31.81137
348.26        31.68859
348.72         31.4253
349.17         31.0865
349.62        30.82484
350.07        30.68064
350.52        30.60934
350.97        30.57525
351.42        30.51101
351.87        30.40157
352.32        30.29588
352.77        30.17282
353.22        29.99569
353.67        29.76856
354.13        29.49232
354.58        29.25631
355.03        29.24113
355.48        29.46435
355.93        29.88334
356.38        30.29249
356.83        30.34579
357.28        29.98405
357.73        29.32907
358.18        28.65761
358.63        28.38236
359.08        28.57705
359.53        29.09849
359.98        29.71539
360.43         30.0327
360.88        29.93412
361.33        29.56122
361.78        29.05333
362.23         28.6118
362.68         28.3035
363.13        28.05211
363.58        27.86337
364.03        27.75961
364.48        27.72372
364.93        27.75812
365.38        27.77787
365.83          27.635
366.28        27.30689
366.73        26.84207
367.18        26.33306
367.63        25.94377
368.08        25.72902
368.53        25.64152
368.98        25.64013
369.43        25.65938
369.88         25.6619
370.33        25.65452
370.78        25.61447
371.23        25.50263
371.68        25.31519
372.13        25.06974
372.58        24.77868
373.03        24.46173
373.48        24.13662
373.93        23.80656
374.38        23.53208
374.83        23.40886
375.28        23.44736
375.72        23.60869
376.17        23.79493
376.62        23.84851
377.07        23.73104
377.52        23.48312
377.97        23.17756
378.42        22.93382
378.87        22.78829
379.32        22.71039
379.77        22.65671
380.22         22.5598
380.67          22.406
381.11        22.22544
381.56        22.06096
382.01         21.9838
382.46        22.00626
382.91        22.09528
383.36        22.19128
383.81        22.20932
384.26        22.12387
384.71        21.95388
385.15        21.73683
385.60        21.55239
386.05        21.41875
386.50        21.32794
386.95        21.24232
387.40        21.10344
387.85        20.91199
388.29        20.68081
388.74        20.51027
389.19        20.47731
389.64        20.58347
390.09        20.77835
390.54        20.98016
390.98        21.05717
391.43        20.98499
391.88        20.81557
392.33        20.59154
392.78        20.38091
393.23        20.21244
393.67        20.03803
394.12        19.90438
394.57        19.89969
395.02        19.99397
395.47         20.0375
395.91        20.02657
396.36        20.06036
396.81        20.14014
397.26        20.20049
397.71        20.21123
398.15        20.18046
398.60        20.13435
399.05        19.98615
399.50           19.82
399.95        19.90271
400.39        20.18246
400.84        20.27556
401.29         20.1336
401.74        20.00082
402.18        19.87786
402.63        19.59165
403.08        19.23869
403.53        19.05513
403.97        19.07065
404.42        19.21746
404.87        19.40304
405.32        19.48059
405.76        19.40738
406.21        19.23787
406.66        19.03621
407.11         18.9031
407.55        18.87236
408.00        18.91239
408.45        18.97874
408.90        18.97098
409.34        18.87715
409.79         18.7745
410.24        18.69816
410.68        18.65133
411.13        18.64624
411.58        18.69207
412.03        18.75143
412.47        18.75186
412.92        18.67513
413.37        18.54853
413.81        18.42121
414.26        18.38165
414.71        18.43809
415.15        18.56907
415.60        18.70748
416.05        18.76071
416.49        18.70279
416.94        18.56267
417.39        18.39705
417.83        18.29458
418.28        18.28021
418.73        18.32619
419.17        18.39384
419.62        18.41504
420.07        18.37806
420.51        18.30632
420.96        18.24168
421.41         18.2199
421.85        18.24303
422.30        18.29953
422.74        18.37232
423.19        18.45764
423.64        18.54349
424.08         18.6409
424.53        18.70746
424.98        18.69908
425.42        18.61415
425.87        18.47237
426.31        18.32083
426.76        18.24444
427.21        18.25428
427.65        18.31892
428.10        18.42069
428.54        18.52468
428.99         18.6164
429.44        18.73114
429.88        18.79614
430.33        18.71171
430.77        18.48409
431.22        18.17468
431.66        17.88894
432.11        17.84889
432.56        18.03096
433.00        18.22002
433.45        18.27619
433.89        18.18072
434.34        17.83046
434.78        17.81861
435.23        18.26503
435.67        18.43863
436.12        18.36761
436.57        18.40712
437.01        18.55671
437.46        18.59875
437.90        18.51871
438.35        18.40906
438.79        18.29841
439.24        18.18243
439.68        18.10616
440.13        18.19725
440.57        18.38682
441.02        18.46955
441.46        18.41989
441.91        18.25645
442.35        18.05625
442.80        18.16158
443.24         18.4742
443.69        18.44277
444.13        18.10407
444.58        17.99114
445.02        18.10911
445.47         18.1705
445.91         18.1655
446.36        18.21965
446.80        18.32623
447.24        18.44562
447.69        18.55418
448.13        18.61685
448.58        18.62577
449.02        18.58849
449.47        18.52782
449.91        18.46526
450.36        18.41716
450.80        18.37733
451.25        18.34026
451.69        18.28401
452.13        18.20826
452.58        18.12325
453.02        18.04626
453.47        18.01412
453.91        18.02953
454.36        18.08766
454.80        18.15072
455.24        18.15718
455.69        18.10105
456.13        17.99032
456.58        17.88937
457.02        17.87235
457.46        17.95474
457.91        18.10702
458.35        18.26012
458.79        18.27823
459.24        18.14909
459.68        17.96912
460.13        17.83466
460.57        17.52976
461.01        17.58933
461.46        17.59725
461.90        17.68133
462.34        17.72559
462.79        17.81026
463.23        17.86525
463.68        17.91978
464.12        17.97567
464.56        18.03115
465.01        18.10326
465.45        18.14328
465.89        18.11466
466.34         18.0214
466.78        17.87006
467.22        17.71182
467.67        17.66702
468.11        17.68521
468.55        17.80541
468.99        17.95099
469.44        18.03549
469.88        18.03985
470.32        17.98431
470.77        17.91061
471.21        17.88475
471.65        17.92399
472.10        18.00875
472.54        18.09789
472.98        18.14057
473.42        18.12674
473.87        18.08232
474.31        18.03073
474.75         18.0256
475.20        18.08103
475.64        18.16555
476.08        18.24627
476.52        18.31939
476.97        18.38278
477.41        18.35467
477.85        18.21968
478.29        18.46631
478.74        18.30873
479.18        18.34806
479.62        18.35347
480.06        18.44619
480.50         18.6315
480.95        18.53763
481.39         18.7808
481.83        18.80908
482.27        18.81605
482.72        18.81317
483.16        18.81019
483.60        18.84289
484.04        18.89898
484.48        18.90682
484.93        18.98154
485.37        19.19202
485.81        19.40057
486.25        19.80067
486.69        19.24067
487.14        18.69939
487.58         18.9409
488.02        19.48114
488.46        19.33316
488.90        19.56872
489.34        19.54457
489.79        19.61674
490.23        19.87522
490.67        20.16143
491.11        20.45761
491.55        20.46317
491.99         20.2427
492.43        20.20283
492.88        20.37784
493.32         20.5171
493.76        20.60341
494.20          20.745
494.64        20.94251
495.08        21.14525
495.52        21.32352
495.96        21.50309
496.41        21.65388
496.85        21.61155
497.29        21.46017
497.73         21.5782
498.17         21.9377
498.61        22.11225
499.05        22.08718
499.49        22.17396
499.93        22.37159
500.37        22.49276
500.82         22.5434
501.26        22.62072
501.70        22.73164
502.14        22.85031
502.58        22.95537
503.02        23.01548
503.46        23.02861
503.90        23.01098
504.34        23.00354
504.78        23.06762
505.22        23.21538
505.66        23.42738
506.10         23.6522
506.54        23.80459
506.98        23.86098
507.42        23.84471
507.86        23.79976
508.30        23.79614
508.74        23.85317
509.18        23.95095
509.62         24.0596
510.06         24.1296
510.50        24.14935
510.94        24.13987
511.38        24.12763
511.82         24.1525
512.26        24.22207
512.70        24.31496
513.14        24.41356
513.58        24.49304
514.02        24.54275
514.46        24.57243
514.90        24.57276
515.34        24.52857
515.78        24.44506
516.22        24.33106
516.66        24.22267
517.10        24.17546
517.54        24.20112
517.98        24.28557
518.42        24.39431
518.86        24.46719
519.30        24.48613
519.74        24.46607
520.18        24.42911
520.62        24.41247
521.06        24.42422
521.50         24.4471
521.93        24.46685
522.37        24.45765
522.81        24.41575
523.25        24.35471
523.69         24.2802
524.13        24.19766
524.57         24.1152
525.01        24.03495
525.45         23.9705
525.89        23.94328
526.32        23.95385
526.76        23.98957
527.20        24.03454
527.64        24.06241
528.08        24.06307
528.52        24.04556
528.96        24.00313
529.40        23.92661
529.83        23.81887
530.27        23.69107
530.71        23.57351
531.15        23.52058
531.59        23.53996
532.03        23.61134
532.46        23.69293
532.90        23.72122
533.34        23.68076
533.78        23.57632
534.22        23.43395
534.66        23.33323
535.09        23.26712
535.53         23.1443
535.97          22.991
536.41        22.93237
536.85        22.97629
537.28        23.06148
537.72        23.15897
538.16        23.24339
538.60        23.29918
539.04        23.33153
539.47        23.34627
539.91        23.36881
540.35        23.40097
540.79        23.44579
541.22        23.50603
541.66         23.5517
542.10        23.64346
542.54        23.73473
542.97        23.83744
543.41        23.95411
543.85        24.07887
544.29        24.21157
544.72        24.34754
545.16         24.4928
545.60         24.6422
546.04        24.78875
546.47        24.93239
546.91        25.07789
547.35         25.2247
547.79        25.36763
548.22        25.47958
548.66        25.57397
549.10        25.65542
549.53        25.61056
549.97        25.70604
550.41        25.84142
550.84        26.09091
551.28        26.42867
551.72        26.79226
552.15        27.05173
552.59        27.19197
553.03         27.2849
553.46        27.34812
553.90        27.42761
554.34        27.54031
554.77        27.62522
555.21        27.66736
555.65        27.94581
556.08        27.92959
556.52        28.06081
556.96        28.16132
557.39        28.22796
557.83        28.26736
558.27        28.24483
558.70        28.19862
559.14        28.32924
559.57        28.39472
560.01        28.62284
560.45         28.8514
560.88        28.92239
561.32        28.87948
561.75        28.77091
562.19        28.69766
562.63        28.93525
563.06        29.36792
563.50        29.36901
563.93         29.0035
564.37        28.94361
564.80        29.19967
565.24        29.40961
565.68        29.53207
566.11        29.67449
566.55        29.83608
566.98        29.97083
567.42        30.10989
567.85        30.27909
568.29        30.49206
568.72        30.71597
569.16        30.95098
569.60        31.09801
570.03         31.1285
570.47        31.13872
570.90        31.43056
571.34        31.03595
571.77        31.40901
572.21        31.50892
572.64        31.75795
573.08        31.75171
573.51        32.12044
573.95        32.51811
574.38        32.15737
574.82        32.53134
575.25         32.4778
575.69        32.58421
576.12        32.60562
576.56        32.60955
576.99         33.1492
577.42        32.76648
577.86        32.82988
578.29        32.86174
578.73        32.95734
579.16        32.73361
579.60        32.19875
580.03        32.04576
580.47        32.43317
580.90        32.02066
581.33        32.56438
581.77        32.70752
582.20        32.41556
582.64        32.23346
583.07        31.99885
583.51        31.76652
583.94         31.6441
584.37        31.66088
584.81        31.77795
585.24        31.64399
585.68        31.32078
586.11        31.15309
586.54        31.22997
586.98        30.85785
587.41        30.92165
587.85        31.09286
588.28        30.96575
588.71        30.53882
589.15        31.00366
589.58        30.51708
590.01        30.64322
590.45        30.57292
590.88        30.64902
591.31        30.66392
591.75        30.62574
592.18        30.55518
592.61        30.40503
593.05        30.80565
593.48        30.69105
593.91         30.6547
594.35        30.63913
594.78        30.75929
595.21        31.05081
595.65         31.1659
596.08        31.10357
596.51        31.40994
596.94        31.43533
597.38        31.71295
597.81        32.09549
598.24        31.90281
598.68        32.59953
599.11        32.56976
599.54        33.18159
599.97        33.04811
600.41        33.73469
600.84        33.94193
601.27        34.33315
601.70        34.82123
602.14        35.22807
602.57        35.59364
603.00        35.85412
603.43        36.05791
603.87        36.48043
604.30        36.92712
604.73        37.19211
605.16        37.58588
605.60        37.99874
606.03        38.51626
606.46        38.98453
606.89        39.26713
607.32        39.34828
607.76        39.57635
608.19        39.94875
608.62        40.60587
609.05        40.97917
609.48         41.4342
609.92        41.40414
610.35        41.73457
610.78        42.46651
611.21        42.88982
611.64        43.04771
612.07        43.39819
612.50        43.72623
612.94        43.90871
613.37        44.06382
613.80        44.23124
614.23        44.42339
614.66        44.88984
615.09        44.91697
615.52        45.18114
615.96        45.48127
616.39        45.84686
616.82        46.24413
617.25        46.60378
617.68        46.88988
618.11        47.06476
618.54        47.14679
618.97        47.22067
619.40        47.35372
619.84        47.47579
620.27        47.58425
620.70        47.95285
621.13        48.58659
621.56        48.27446
621.99        48.40419
622.42        48.75395
622.85        48.59056
623.28         48.4227
623.71        48.52232
624.14         48.5446
624.57        48.60098
625.00        48.65556
625.43        48.72787
625.86        48.49461
626.29        48.56555
626.72        48.43326
627.15        48.25938
627.58         47.9519
628.01        47.55549
628.44        47.58173
628.87        47.57571
629.30        47.39903
629.73        46.93159
630.16         46.8445
630.59        46.56037
631.02         46.3497
631.45        46.03449
631.88        45.70213
632.31        45.35265
632.74        44.97102
633.17         44.5829
633.60        44.21305
634.03        43.86631
634.46        43.53808
634.89        43.20262
635.32        42.81627
635.75        42.37263
636.18        41.89003
636.61        41.39472
637.04        40.92575
637.47        40.49814
637.89        40.09625
638.32        39.69717
638.75        39.32767
639.18        38.99812
639.61         38.5541
640.04        38.29881
640.47        38.01282
640.90        37.78369
641.33        37.58852
641.76        37.41701
642.18        37.30637
642.61        37.25163
643.04        37.16209
643.47        36.99084
643.90        37.18619
644.33        36.94385
644.76        36.86451
645.18         36.7596
645.61        36.84966
646.04        37.08685
646.47        37.16492
646.90        37.11893
647.33        37.25092
647.75          37.573
648.18        37.90815
648.61        38.22635
649.04        38.53721
649.47        38.82567
649.89        39.16842
650.32        39.55661
650.75        39.79139
651.18        39.93874
651.61        40.48136
652.03        41.37201
652.46        41.79449
652.89        41.77363
653.32        42.25298
653.74        43.33629
654.17        43.34655
654.60        43.92542
655.03        44.54515
655.46        44.48883
655.88        45.43134
656.31        51.26175
656.74         50.2829
657.16        45.98023
657.59        45.70927
658.02        47.31932
658.45        47.63169
658.87         48.1977
659.30        48.06152
659.73        48.49371
660.15        49.37139
660.58        49.34282
661.01        49.54309
661.44        49.61869
661.86         49.9542
662.29        50.52765
662.72        50.98722
663.14        51.31436
663.57        51.64724
664.00        51.98099
664.42        52.23045
664.85        52.40671
665.27         52.5169
665.70        52.60756
666.13        52.75917
666.55        52.99703
666.98        53.29076
667.41        53.61202
667.83        53.90873
668.26        54.14646
668.69        54.34293
669.11        54.50516
669.54        54.65928
669.96        54.80545
670.39        54.90269
670.82        54.98009
671.24        55.07634
671.67        55.22203
672.09        55.47456
672.52        55.78573
672.94        55.96197
673.37         55.9904
673.80        55.96083
674.22        55.93694
674.65        55.96535
675.07        56.08467
675.50        56.26388
675.92        56.48531
676.35        56.71325
676.77        56.93195
677.20        57.14159
677.62        57.32961
678.05        57.46246
678.47        57.53724
678.90        57.57185
679.32        57.58225
679.75        57.61642
680.17        57.68306
680.60        57.77399
681.02        57.90086
681.45        58.05186
681.87        58.23153
682.30        58.47383
682.72        58.74466
683.15        58.86463
683.57        58.86123
684.00        58.94694
684.42        59.14067
684.85        59.27082
685.27        59.31684
685.70        59.50604
686.12        59.76027
686.54        59.64814
686.97        59.28795
687.39        59.39404
687.82        59.86426
688.24        60.04995
688.66        59.64317
689.09        59.64663
689.51        59.99525
689.94        60.24339
690.36        60.38752
690.78        60.62239
691.21        60.95513
691.63        61.32465
692.06        61.70113
692.48        62.05574
692.90        62.32831
693.33        62.46012
693.75           62.45
694.17        62.25123
694.60        61.98259
695.02        61.91058
695.44        62.02594
695.87        62.13306
696.29        62.20925
696.71        62.18328
697.14        62.15871
697.56        62.54108
697.98        63.20981
698.41        63.57354
698.83        63.58208
699.25         63.5529
699.68        63.54539
700.10        63.58622
700.52        63.70036
700.94        63.83274
701.37        63.97224
701.79         64.2201
702.21        64.49308
702.64         64.6218
703.06        64.60942
703.48        64.52599
703.90        64.37134
704.33        64.52184
704.75        64.21027
705.17         64.2302
705.59        64.35966
706.01        64.57088
706.44        64.83904
706.86        65.13136
707.28         65.4053
707.70        65.73143
708.12        66.04073
708.55        66.04289
708.97        65.80896
709.39        65.77885
709.81        65.96326
710.23        66.01915
710.66        65.94452
711.08        65.98063
711.50        66.11301
711.92        66.21606
712.34        66.28104
712.76        66.34449
713.19        66.39705
713.61        66.46896
714.03        66.54359
714.45        66.60912
714.87        66.67484
715.29        66.76037
715.71        66.86887
716.13        66.99954
716.56        67.11076
716.98        67.21687
717.40        67.28378
717.82        67.31325
718.24         67.3427
718.66        67.43554
719.08        67.59808
719.50        67.80535
719.92        67.99625
720.34        68.07224
720.76        68.01463
721.19        67.86288
721.61        67.68129
722.03        67.56232
722.45        67.54531
722.87        67.61644
723.29        67.75778
723.71        67.93697
724.13         68.1299
724.55        68.32418
724.97        68.52917
725.39        68.75994
725.81        69.00641
726.23        69.25965
726.65         69.4287
727.07        69.38752
727.49        69.13133
727.91        68.68935
728.33        68.22622
728.75        68.11446
729.17        68.21798
729.59        68.63087
730.01        69.12511
730.43        69.36749
730.85        69.32262
731.27        69.11496
731.69        69.07169
732.10        68.93798
732.52        68.83246
732.94        68.77181
733.36        68.82096
733.78        69.05208
734.20        69.38551
734.62        69.96526
735.04        70.57307
735.46        70.66026
735.88        70.30141
736.30        70.08366
736.72        70.09503
737.13        70.19149
737.55        70.28461
737.97         70.1665
738.39         69.9214
738.81        70.02528
739.23         70.4579
739.65         70.7511
740.06        70.80257
740.48         70.8996
740.90        71.00707
741.32        70.98675
741.74        70.86837
742.16        70.74662
742.57        70.65857
742.99        70.57029
743.41        70.53948
743.83        70.64334
744.25         70.8778
744.67        71.20808
745.08        71.55019
745.50        71.69595
745.92        71.61687
746.34         71.3606
746.75        71.01749
747.17        70.77303
747.59        70.66952
748.01        70.67881
748.42        70.76995
748.84          70.878
749.26        70.99522
749.68        71.05505
750.09        71.10168
750.51        71.40337
750.93        71.86348
751.35        72.03669
751.76        71.93194
752.18         71.9102
752.60        71.97027
753.01         71.9872
753.43        71.98337
753.85        71.89577
754.27        71.69611
754.68        72.39378
755.10         72.1934
755.52        72.52176
755.93        72.80417
756.35         73.0563
756.77        73.25404
757.18        73.31039
757.60          73.259
758.02        73.33252
758.43        73.37766
758.85        72.88867
759.26        72.17957
759.68        71.67159
760.10        72.92326
760.51         73.5768
760.93        73.80936
761.34        73.45296
761.76        73.08283
762.18        72.55764
762.59         72.2756
763.01        72.69252
763.42        73.62973
763.84        74.02036
764.26         73.7701
764.67        73.29906
765.09         72.8788
765.50        72.90385
765.92        73.36172
766.33        73.25012
766.75        73.13182
767.16        73.13973
767.58        73.43941
768.00        73.45079
768.41         73.3389
768.83        73.90203
769.24        74.93275
769.66        75.44654
770.07        75.34101
770.49        74.97394
770.90        74.53953
771.32        74.44937
771.73        74.67921
772.15        74.63024
772.56        74.31187
772.97        74.17658
773.39        74.24818
773.80        74.36533
774.22        74.48322
774.63        74.70138
775.05        74.93518
775.46        75.11205
775.88        75.17987
776.29         75.1832
776.70        75.14407
777.12        75.13727
777.53        75.18758
777.95        75.23031
778.36        75.27746
778.77        75.26127
779.19        75.17238
779.60        75.23981
780.02        75.36493
780.43        75.01501
780.84        74.45074
781.26        74.43132
781.67        74.91235
782.09        75.67056
782.50        76.41433
782.91        75.45399
783.33        74.74109
783.74        74.40462
784.15        75.06691
784.57        75.80537
784.98        76.44769
785.39        77.01568
785.81        77.39425
786.22        77.37991
786.63        77.46497
787.04        77.30925
787.46        77.14639
787.87        77.03218
788.28        77.04995
788.70        77.13557
789.11        77.25682
789.52        77.63392
789.93        78.09666
790.35        78.01349
790.76        77.48766
791.17        77.25231
791.58        77.37611
792.00         77.3672
792.41        77.25346
792.82        77.38155
793.23        77.66075
793.65        77.75056
794.06        77.62136
794.47        77.34968
794.88        77.08607
795.29        77.02459
795.71        77.12216
796.12        77.48696
796.53        77.92297
796.94        77.87894
797.35        77.34177
797.76        76.89482
798.18        76.71156
798.59        76.61491
799.00        76.66399
799.41        77.01352
799.82        77.57492
800.23        78.07422
800.64        78.42754
801.06        78.67973
801.47        78.83743
801.88        78.80881
802.29        78.59955
802.70        78.21658
803.11        77.79385
803.52        77.56089
803.93        77.59057
804.34        77.84342
804.75        78.20324
805.17        78.52366
805.58        78.79592
805.99        78.75545
806.40        78.51705
806.81        78.92387
807.22        79.70749
807.63        79.33551
808.04        78.02587
808.45        77.48672
808.86        77.86092
809.27        78.22365
809.68        78.41319
810.09        78.57638
810.50        78.65029
810.91        78.60695
811.32        78.49934
811.73        78.41471
812.14         78.3904
812.55        78.40664
812.96        78.48592
813.37        78.66006
813.78        78.91852
814.19        79.24451
814.60          79.573
815.01        79.80293
815.42        79.91024
815.83        79.91624
816.24        79.84085
816.65        79.73372
817.05        79.62681
817.46         79.4866
817.87        79.36536
818.28        79.28735
818.69         79.2542
819.10        79.26785
819.51        79.30527
819.92        79.31613
820.33        79.28319
820.74        79.21449
821.14        79.12653
821.55        79.07687
821.96        79.06731
822.37        79.10565
822.78        79.17138
823.19         79.2239
823.60        79.26112
824.00        79.31578
824.41        79.40546
824.82        79.68054
825.23        80.14039
825.64        80.70744
826.04        81.26997
826.45        81.55575
826.86        81.52583
827.27        81.26842
827.68        80.82817
828.08        80.30699
828.49        79.74314
828.90        79.13737
829.31        78.65971
829.72        78.56826
830.12        78.93448
830.53        79.66135
830.94        80.46945
831.35        80.78674
831.75        80.48338
832.16        79.67648
832.57        78.78287
832.97        78.43692
833.38        78.76334
833.79        79.55814
834.20        80.50251
834.60        81.05187
835.01        81.01081
835.42        80.59631
835.82         79.9969
836.23        79.49116
836.64         79.1887
837.04        79.00437
837.45        78.93692
837.86        79.06975
838.26        79.39716
838.67        79.86604
839.08        80.33226
839.48        80.51531
839.89        80.33697
840.29        79.87697
840.70        79.29942
841.11        78.83617
841.51        78.58236
841.92        78.46049
842.33        78.45946
842.73        78.55889
843.14        78.69021
843.54        78.93351
843.95        79.20947
844.35         79.4641
844.76        79.63492
845.17        79.69733
845.57        79.72886
845.98        79.85829
846.38        80.12233
846.79        80.47114
847.19        80.74442
847.60        80.57692
848.00        79.95454
848.41        78.99998
848.81        78.06628
849.22        77.66418
849.62        77.92014
850.03        78.65686
850.43        79.59853
850.84        80.09105
851.24        80.01656
851.65        79.51981
852.05        78.90757
852.46        78.64566
852.86        78.84293
853.27        79.32086
853.67        79.88172
854.07        80.48241
854.48        81.00559
854.88        81.60124
855.29        81.98445
855.69        81.92188
856.10        81.25396
856.50        80.17487
856.90        79.03664
857.31        78.36808
857.71        78.27695
858.12        78.56214
858.52        79.11372
858.92        79.47137
859.33        79.45711
859.73        79.26196
860.13        78.86866
860.54        78.28505
860.94        77.57186
861.34        76.70348
861.75        75.91737
862.15        75.69495
862.55        76.10698
862.96        77.00942
863.36        78.06196
863.76        78.60378
864.17        78.46662
864.57        77.85569
864.97        77.06857
865.38        76.61129
865.78        76.66522
866.18        77.03951
866.58        77.56134
866.99        77.92707
867.39        78.05414
867.79        78.04666
868.19        77.91417
868.60        77.62119
869.00        77.18587
869.40        76.59946
869.80        76.05536
870.21        75.92175
870.61        76.33503
871.01        77.13374
871.41        77.96589
871.81        78.29126
872.22        77.99061
872.62        77.22459
873.02        76.30722
873.42        75.76098
873.82        75.75091
874.22        76.14548
874.63          76.708
875.03         77.0591
875.43        77.09863
875.83        76.93433
876.23        76.79131
876.63         77.0166
877.03         77.6619
877.44        78.56778
877.84        79.44967
878.24        79.78799
878.64        79.47263
879.04        78.69852
879.44         77.7929
879.84         77.2453
880.24        77.17613
880.64         77.4272
881.04        77.83987
881.44        78.14963
881.84        78.27215
882.24        78.32327
882.65        78.27732
883.05        78.20097
883.45        78.09102
883.85         77.9217
884.25        77.84546
884.65        78.11007
885.05        78.73727
885.45        79.64874
885.85        80.59088
886.25        81.11958
886.65        81.08826
887.05         80.5908
887.45        79.86853
887.85        79.30847
888.25         79.0378
888.65        79.00018
889.04        79.00135
889.44        78.70103
889.84        78.06799
890.24        77.22026
890.64        76.50629
891.04         76.4136
891.44        77.00114
891.84        78.11868
892.24        79.27681
892.64        79.64726
893.04          79.049
893.44        77.75009
893.83        76.34755
894.23        75.76273
894.63          76.164
895.03        77.27626
895.43        78.60693
895.83        79.24959
896.23        78.95162
896.63        78.07504
897.02        76.99071
897.42        76.34121
897.82        76.22663
898.22        76.48333
898.62        77.01299
899.01        77.69649
899.41        78.38506
899.81        79.13288
900.21        79.91779
900.61        80.68504
901.00        81.37273
901.40        81.90056
901.80        82.16476
902.20        82.04459
902.59        81.56113
902.99        80.80081
903.39        79.94117
903.79        79.26202
904.18        78.84737
904.58        78.65728
904.98        78.65289
905.38        78.76603
905.77         78.9429
906.17        79.22977
906.57        79.47886
906.96         79.4614
907.36        79.13184
907.76         78.5619
908.15         78.0249
908.55         77.9306
908.95        78.37923
909.34        79.23839
909.74        80.19563
910.14        80.81716
910.53        80.95345
910.93        80.73315
911.33        80.29586
911.72        79.86317
912.12        79.54385
912.52        79.26604
912.91        79.01231
913.31        78.75374
913.70        78.50216
914.10        78.30857
914.49        78.20853
914.89        78.21333
915.29         78.3223
915.68        78.50786
916.08        78.74343
916.47        79.01347
916.87        79.28784
917.26        79.56133
917.66        79.77927
918.05        79.86181
918.45        79.79353
918.84        79.62932
919.24        79.44787
919.64        79.47878
920.03        79.78523
920.42        80.27436
920.82        80.79799
921.21        81.15426
921.61        81.24967
922.00        81.13445
922.40        80.86903
922.79        80.66454
923.19        80.56468
923.58        80.52892
923.98        80.42358
924.37        79.96973
924.77        79.19713
925.16        78.21799
925.55        77.33296
925.95         77.0183
926.34        77.42867
926.74        78.34586
927.13        79.59324
927.52        80.78496
927.92         81.7342
928.31        82.52377
928.70        83.03841
929.10        83.13665
929.49        82.85046
929.89        82.19928
930.28         81.4075
930.67        80.82378
931.07         80.5416
931.46        80.47459
931.85        80.56547
932.24        80.68785
932.64        80.77995
933.03         80.9562
933.42        81.00953
933.82        80.62773
934.21        79.80687
934.60        78.62241
934.99        77.58823
935.39        77.47379
935.78         78.4488
936.17         80.3289
936.56        82.40772
936.96        83.35251
937.35        82.82046
937.74        81.16809
938.13        79.23703
938.53        78.15855
938.92        78.13338
939.31        78.89682
939.70        79.93295
940.09         80.3154
940.49        79.79317
940.88         78.7057
941.27        77.60782
941.66        77.30815
942.05         77.9837
942.44         79.3812
942.84        80.96008
943.23        81.85343
943.62        81.70682
944.01        80.80958
944.40        79.67078
944.79        79.09515
945.18        79.29533
945.57        79.99053
945.97        80.84387
946.36        81.43803
946.75        81.59676
947.14         81.4815
947.53        81.19246
947.92        80.87846
948.31        80.62464
948.70        80.39318
949.09        80.20338
949.48        80.08965
949.87        80.07592
950.26        80.20248
950.65        80.49026
951.04        80.94761
951.43        81.52869
951.82        82.13607
952.21        82.72902
952.60        83.29316
952.99         83.7713
953.38        84.12571
953.77        84.18031
954.16        83.64336
954.55        82.54712
954.94        81.13461
955.33        79.69447
955.72        78.64261
956.11        78.10796
956.50        77.92861
956.89        78.19854
957.28        79.05631
957.66        80.47057
958.05        82.27386
958.44        83.84922
958.83        84.02636
959.22        82.60484
959.61        80.04881
960.00         77.2936
960.39        75.67257
960.78        75.48511
961.16        76.38765
961.55        77.90491
961.94        79.32197
962.33        80.32514
962.72        81.12754
963.11        81.66467
963.49        81.82859
963.88        81.58619
964.27        80.94707
964.66        80.17281
965.04        79.68987
965.43         79.5679
965.82        79.69992
966.21        79.94798
966.60        80.00819
966.98        79.79907
967.37        79.43297
967.76        78.93364
968.15        78.30051
968.53        77.60207
968.92        76.82114
969.31        76.20983
969.69        76.17931
970.08        76.73397
970.47        77.75974
970.86        78.85815
971.24        79.30386
971.63        78.82293
972.02        77.69824
972.40        76.28492
972.79        75.17654
973.17        74.58203
973.56        74.34496
973.95        74.40586
974.33        74.69303
974.72        75.07646
975.11        75.54203
975.49         76.1078
975.88        76.69462
976.26        77.30569
976.65        77.87973
977.04        78.09132
977.42        77.41977
977.81        75.86784
978.19        73.61857
978.58        71.74732
978.96        71.61723
979.35        73.45428
979.74        76.99837
980.12        81.28864
980.51        83.70397
980.89        83.56792
981.28        81.37557
981.66        78.47625
982.05           77.19
982.43        78.08889
982.82        80.42284
983.20        83.40887
983.59        85.50603
983.97        86.27803
984.35        86.18034
984.74        85.33025
985.12        84.01444
985.51        82.43003
985.89        80.46367
986.28        78.63537
986.66        77.65035
987.04        77.76543
987.43        78.82711
987.81        80.33244
988.20        81.13673
988.58        80.96581
988.96        79.96136
989.35        78.75113
989.73        78.35586
990.12        78.95335
990.50        80.27253
990.88        81.50899
991.27        81.39712
991.65        79.78446
992.03        77.17159
992.42        74.53562
992.80        73.09165
993.18        73.26549
993.56        74.63905
993.95        76.57706
994.33        78.29463
994.71        79.23369
995.10        79.62276
995.48        79.53909
995.86        79.10131
996.24         78.4517
996.63        77.55561
997.01         76.5667
997.39        75.73177
997.77        75.14884
998.15        74.86083
998.54         74.8945
998.92        75.28719
999.30         75.9862
999.68        76.88786
1000.06        77.92208
1000.45        78.92359
1000.83        79.91531
1001.21        80.85146
1001.59         81.3461
1001.97        80.81733
1002.35        79.22187
1002.73        76.72948
1003.12        74.27312
1003.50        73.32309
1003.88        74.17471
1004.26        76.36845
1004.64        78.77079
1005.02        79.66954
1005.40        78.73273
1005.78        76.48172
1006.16        73.83179
1006.54        72.45039
1006.92        72.84278
1007.30        74.40674
1007.69         76.3895
1008.07          77.814
1008.45        78.22314
1008.83        78.04439
1009.21        77.37634
1009.59        76.33025
1009.97        75.11227
1010.35        73.68866
1010.73        72.60408
1011.11         72.8521
1011.49        74.71957
1011.86        78.21447
1012.24         82.4399
1012.62         86.0703
1013.00        88.44543
1013.38        89.58244
1013.76        89.88074
1014.14        90.33098
1014.52        91.21302
1014.90        92.20074
1015.28        92.51359
1015.66         90.9595
1016.04        87.74256
1016.41        83.86123
1016.79        80.48662
1017.17        78.33516
1017.55        77.28299
1017.93        76.94301
1018.31        77.14976
1018.69        77.43762
1019.06        77.46278
1019.44        77.48049
1019.82        77.27778
1020.20        76.55759
1020.58        75.29252
1020.95        73.30556
1021.33        71.11279
1021.71         70.1852
1022.09        71.29115
1022.46        74.02435
1022.84        77.19629
1023.22        79.29944
1023.60        79.95012
1023.97         79.6958
1024.35        78.66017
1024.73        77.16111
