SpectraSmart Spectrum 2.9.0.0
--------- Device Information -----------
Spectrum Name :  反射率_0
Saving Time :  2024/05/01 16:54:53
Spectro-Module Model Name : SE2030-DUVN
Spectro-Module Serial Number : OS361AC55029948
Wavelength Start : 200
Wavelength End : 1025
Wavelength Unit : Wavelength(nm)
Spectrum Unit : Reflectance(%)
-----------Spectrum Setting ------------
Integration Time : 20ms
Average : 10
Boxcar : 0
Background removal :  enabled
linearity correction :  enabled
SC :  disabled
Intensity correction :  disabled
DWT denoise :  enabled
savitzky-golay :  disabled
FFT :  disabled
Running average :  disabled
Kalman :  disabled
High pass :  disabled
---------------BEGIN--------------------
Wavelength(nm)             Reflectance(%)
200.29               0
200.75        249.0428
201.21        1036.556
201.67       -422.3502
202.13        -146.577
202.58       -57.21511
203.04       -4.816549
203.50        27.34348
203.96        42.33646
204.42        44.53751
204.88        27.72865
205.34       -498.8025
205.80        131.0046
206.26        86.19711
206.72        44.17384
207.18       -117.6115
207.64        309.5613
208.10        146.3463
208.55        100.8068
209.01        77.21812
209.47        67.85202
209.93        67.39992
210.39        70.56599
210.85        75.95359
211.31        83.37613
211.77        100.9961
212.23       -34.92882
212.69        53.56892
213.14        74.61381
213.60        129.2785
214.06       -444.2917
214.52       -46.16584
214.98       -21.05651
215.44       -18.14435
215.90       -29.90006
216.36       -257.3736
216.81        88.26537
217.27        90.83094
217.73       -141.3057
218.19       -18.67439
218.65       -4.351154
219.11        7.375976
219.57        39.84076
220.02         193.922
220.48        140.9221
220.94        59.64994
221.40        35.91427
221.86        28.51779
222.32        29.40023
222.77        35.94394
223.23        48.31237
223.69        65.09008
224.15        72.99957
224.61        66.83019
225.06        55.84262
225.52        48.30424
225.98         47.0942
226.44        51.50396
226.90        60.90418
227.36        73.75483
227.81        81.05737
228.27        78.54387
228.73         71.7767
229.19        65.98114
229.65         64.1139
230.10        65.82095
230.56        70.19178
231.02        76.02898
231.48        79.54163
231.93         78.7812
232.39         76.0813
232.85        73.07011
233.31        71.15687
233.77        70.49525
234.22        70.42422
234.68        70.97751
235.14        72.37085
235.60        74.75092
236.05        78.74482
236.51        84.28569
236.97        89.67738
237.43        92.49098
237.88        91.82214
238.34        88.38799
238.80        84.94311
239.26        81.99541
239.71        79.05341
240.17        74.25676
240.63        65.44055
241.08        54.49004
241.54        45.95862
242.00        42.65778
242.46        44.82114
242.91        52.94175
243.37        69.09737
243.83        96.70903
244.28        120.0475
244.74         117.003
245.20        101.0079
245.66        85.58426
246.11         73.5704
246.57        62.02912
247.03        46.77816
247.48         22.4471
247.94       -10.36244
248.40       -38.72346
248.85        -56.0957
249.31       -51.86347
249.77       -25.66917
250.22         7.56081
250.68        38.32533
251.14        60.37809
251.59         71.5473
252.05        74.15066
252.51        67.55883
252.96        44.21299
253.42        10.34644
253.88        17.04206
254.33        49.78289
254.79         67.7405
255.25        71.07875
255.70         68.1608
256.16        64.67596
256.62        62.41374
257.07        62.50099
257.53        64.51054
257.99        66.82972
258.44        68.48975
258.90        69.31853
259.35        69.07557
259.81        68.43183
260.27        67.58633
260.72        66.85398
261.18        66.59496
261.63        66.37052
262.09        66.18117
262.55        65.59013
263.00        64.53321
263.46        63.36148
263.91         62.2156
264.37         61.6458
264.83        61.56604
265.28        61.77029
265.74        62.00503
266.19          61.617
266.65        60.67989
267.11        59.31495
267.56        57.98254
268.02        57.50145
268.47        57.94654
268.93        59.01684
269.38        60.12816
269.84        60.29866
270.30        59.33129
270.75        57.54854
271.21        55.51453
271.66        53.93286
272.12        53.06182
272.57        52.59335
273.03        52.34183
273.48        51.94629
273.94        51.34175
274.39        50.62811
274.85        49.87944
275.31        49.06987
275.76        48.20291
276.22        47.33673
276.67        46.47094
277.13        45.77965
277.58        45.19486
278.04        44.72949
278.49        44.26885
278.95        43.78973
279.40         43.2151
279.86        42.62638
280.31        41.97652
280.77        41.33916
281.22        40.66163
281.68        40.01137
282.13        39.33065
282.59        38.66553
283.04        37.98062
283.50        37.33202
283.95        36.72537
284.41        36.25016
284.86        35.89362
285.32        35.64802
285.77        35.45758
286.22        35.29789
286.68        35.14606
287.13        34.98251
287.59        34.77629
288.04        34.43565
288.50        34.00105
288.95        33.47211
289.41        32.98476
289.86        32.63321
290.32        32.46375
290.77        32.41587
291.22        32.42072
291.68        32.35907
292.13        32.19582
292.59        32.00037
293.04        31.80129
293.50        31.70119
293.95        31.70473
294.40        31.78343
294.86        31.92396
295.31        32.11998
295.77        32.35142
296.22         32.6113
296.68         32.8527
297.13        32.97883
297.58         32.9953
298.04        32.95508
298.49         32.9142
298.95        33.00681
299.40         33.2408
299.85         33.5615
300.31        33.94967
300.76        34.36885
301.21        34.78985
301.67        35.22343
302.12        35.55431
302.58        35.63703
303.03        35.44726
303.48        35.07195
303.94        34.70302
304.39        34.55161
304.84        34.68063
305.30        35.00381
305.75         35.3979
306.20         35.6896
306.66        35.82842
307.11         35.8497
307.57        35.78712
308.02        35.63306
308.47        35.42224
308.93        35.15884
309.38        34.87762
309.83         34.6917
310.29        34.62707
310.74        34.65218
311.19        34.70805
311.65         34.6816
312.10         34.5419
312.55        34.32769
313.00        34.10264
313.46        33.96721
313.91        33.93623
314.36         33.9673
314.82        34.00306
315.27        33.96804
315.72        33.83094
316.18        33.62379
316.63        33.35805
317.08         33.0565
317.53        32.73309
317.99        32.38906
318.44        32.03762
318.89        31.71758
319.35         31.4468
319.80        31.22542
320.25        31.05118
320.70        30.90831
321.16        30.78234
321.61        30.68072
322.06        30.59279
322.51        30.50701
322.97        30.41135
323.42        30.31352
323.87        30.20342
324.32        30.08043
324.78           29.94
325.23        29.79146
325.68        29.63982
326.13        29.50028
326.59         29.3692
327.04        29.26042
327.49        29.14926
327.94        29.00437
328.39        28.81827
328.85        28.58649
329.30         28.3601
329.75        28.19323
330.20        28.10025
330.66         28.0623
331.11        28.03592
331.56        27.91368
332.01        27.67816
332.46        27.36629
332.92         27.0478
333.37        26.87218
333.82        26.86571
334.27        26.98563
334.72        27.17269
335.17        27.32204
335.63        27.37702
336.08        27.37669
336.53        27.31974
336.98        27.22042
337.43        27.09535
337.88        26.94731
338.34        26.78739
338.79        26.65725
339.24        26.56673
339.69        26.51029
340.14        26.51503
340.59        26.61615
341.05        26.79607
341.50         27.0385
341.95        27.25816
342.40        27.31964
342.85        27.20199
343.30        26.96338
343.75        26.68636
344.20        26.50155
344.66        26.45317
345.11        26.49074
345.56        26.62059
346.01        26.84272
346.46        27.12506
346.91        27.45453
347.36        27.73039
347.81        27.80126
348.26        27.64889
348.72         27.3301
349.17        26.93846
349.62        26.67019
350.07        26.57664
350.52        26.60013
350.97        26.68108
351.42         26.7128
351.87        26.66462
352.32        26.59174
352.77        26.48549
353.22        26.32862
353.67        26.13211
354.13        25.89389
354.58        25.68806
355.03        25.67105
355.48        25.85698
355.93        26.20521
356.38        26.54985
356.83        26.60941
357.28        26.33183
357.73         25.8186
358.18        25.27309
358.63        24.99678
359.08        25.05115
359.53        25.33518
359.98        25.70673
360.43        25.92382
360.88        25.90714
361.33        25.73817
361.78        25.48644
362.23        25.25008
362.68        25.06417
363.13        24.89044
363.58        24.73044
364.03        24.59849
364.48        24.49107
364.93        24.40919
365.38        24.33091
365.83        24.21257
366.28        24.04285
366.73        23.83435
367.18        23.59449
367.63        23.34147
368.08        23.09283
368.53         22.8523
368.98        22.63954
369.43        22.47859
369.88        22.36789
370.33         22.2968
370.78         22.2464
371.23        22.18384
371.68        22.09711
372.13        21.99451
372.58        21.87472
373.03        21.73524
373.48         21.5786
373.93        21.40525
374.38        21.23446
374.83        21.10149
375.28        21.01556
375.72        20.96556
376.17        20.93304
376.62        20.88264
377.07        20.80237
377.52        20.69843
377.97        20.57963
378.42         20.4606
378.87        20.34787
379.32        20.24116
379.77        20.13255
380.22         20.0095
380.67        19.87267
381.11        19.73059
381.56        19.60515
382.01        19.53649
382.46        19.53159
382.91        19.57627
383.36        19.63005
383.81        19.63352
384.26         19.5677
384.71        19.43935
385.15        19.28151
385.60        19.16584
386.05         19.1041
386.50        19.09062
386.95        19.06956
387.40        18.95531
387.85        18.74651
388.29        18.46371
388.74        18.23813
389.19        18.19683
389.64        18.34818
390.09        18.62816
390.54        18.91551
390.98        19.01454
391.43        18.88999
391.88         18.6212
392.33        18.29506
392.78        18.04082
393.23        17.89491
393.67        17.78574
394.12        17.72844
394.57        17.76168
395.02        17.84869
395.47        17.87632
395.91        17.84136
396.36        17.82981
396.81        17.84978
397.26        17.83935
397.71        17.80649
398.15        17.81199
398.60         17.8774
399.05        17.90147
399.50         17.8986
399.95         18.0253
400.39        18.22075
400.84        18.16174
401.29        17.86079
401.74        17.63329
402.18        17.50817
402.63        17.30405
403.08        17.06661
403.53        16.94192
403.97        16.93851
404.42        17.02081
404.87        17.12117
405.32        17.12791
405.76        17.01476
406.21         16.8257
406.66        16.62455
407.11         16.5153
407.55        16.52786
408.00        16.62619
408.45        16.76429
408.90        16.83763
409.34        16.82346
409.79        16.79103
410.24        16.75234
410.68        16.68371
411.13        16.59722
411.58        16.50953
412.03        16.42944
412.47        16.36832
412.92        16.33012
413.37        16.31677
413.81        16.32412
414.26        16.35742
414.71        16.40637
415.15        16.47365
415.60        16.52787
416.05        16.53673
416.49        16.49202
416.94        16.40053
417.39        16.29574
417.83        16.23158
418.28        16.22285
418.73        16.25717
419.17        16.30354
419.62        16.30355
420.07        16.25053
420.51        16.16135
420.96        16.08456
421.41        16.06994
421.85        16.11905
422.30        16.21519
422.74        16.32233
423.19        16.40405
423.64        16.44522
424.08        16.46783
424.53        16.45467
424.98        16.40492
425.42        16.32975
425.87         16.2345
426.31           16.15
426.76        16.13598
427.21         16.1931
427.65        16.29857
428.10        16.42649
428.54        16.52656
428.99        16.58814
429.44        16.65638
429.88        16.68218
430.33        16.59825
430.77        16.40949
431.22        16.15705
431.66        15.94202
432.11         15.9458
432.56        16.13531
433.00        16.41591
433.45        16.60718
433.89        16.35651
434.34        15.69524
434.78        15.67311
435.23        16.34715
435.67        16.58677
436.12        16.38743
436.57        16.35498
437.01        16.50717
437.46        16.54965
437.90         16.4705
438.35        16.38072
438.79         16.2896
439.24        16.16843
439.68        16.05864
440.13        16.07977
440.57        16.19468
441.02         16.2732
441.46        16.29871
441.91        16.23922
442.35        16.14208
442.80        16.33769
443.24        16.70995
443.69        16.66048
444.13        16.24291
444.58         16.0665
445.02        16.14692
445.47         16.1596
445.91         16.1115
446.36        16.16701
446.80        16.32093
447.24        16.52277
447.69        16.71733
448.13        16.81804
448.58        16.80608
449.02        16.70654
449.47        16.56951
449.91        16.46199
450.36        16.41189
450.80        16.39786
451.25        16.40131
451.69        16.38051
452.13        16.32774
452.58        16.26267
453.02        16.19921
453.47        16.16662
453.91        16.16885
454.36        16.19927
454.80        16.23687
455.24        16.24873
455.69        16.22986
456.13         16.1771
456.58        16.12788
457.02        16.11669
457.46        16.15333
457.91        16.22727
458.35        16.29003
458.79        16.24133
459.24        16.08117
459.68        15.88821
460.13        15.75924
460.57        15.51913
461.01        15.63929
461.46        15.74487
461.90        15.91896
462.34        16.00637
462.79         16.0668
463.23        16.04779
463.68          16.009
464.12        16.00973
464.56        16.06363
465.01        16.16899
465.45        16.25225
465.89        16.23675
466.34        16.12005
466.78        15.92445
467.22        15.72308
467.67        15.66926
468.11        15.72883
468.55          15.917
468.99        16.13965
469.44        16.28081
469.88          16.312
470.32        16.26385
470.77        16.17881
471.21        16.12483
471.65        16.12374
472.10        16.15241
472.54        16.18994
472.98        16.21618
473.42        16.22511
473.87          16.237
474.31         16.2418
474.75        16.23801
475.20        16.23161
475.64        16.20953
476.08        16.18628
476.52        16.22687
476.97        16.34252
477.41        16.43936
477.85          16.452
478.29        16.74251
478.74        16.57975
479.18        16.53085
479.62        16.43381
480.06        16.47171
480.50         16.6652
480.95        16.65574
481.39        16.95283
481.83        16.99673
482.27        16.94846
482.72        16.84124
483.16        16.72834
483.60        16.70858
484.04        16.78271
484.48        16.89165
484.93        17.10369
485.37        17.36245
485.81        17.48573
486.25        17.99105
486.69        17.20828
487.14        16.75475
487.58        17.13924
488.02         17.7255
488.46        17.77157
488.90        17.84306
489.34        17.64295
489.79        17.57158
490.23        17.96663
490.67        18.19342
491.11         18.3033
491.55        18.25254
491.99        18.10222
492.43        18.08542
492.88         18.2251
493.32        18.35432
493.76        18.45033
494.20        18.58504
494.64        18.75588
495.08        18.91327
495.52        19.05274
495.96        19.23243
496.41        19.42787
496.85        19.49623
497.29        19.46239
497.73        19.55332
498.17        19.75069
498.61        19.78752
499.05        19.69476
499.49        19.73176
499.93        19.91042
500.37        20.09455
500.82        20.25737
501.26        20.40494
501.70        20.52494
502.14        20.61951
502.58        20.68078
503.02        20.69825
503.46        20.67922
503.90        20.62889
504.34        20.59422
504.78        20.65051
505.22        20.80979
505.66         21.0497
506.10        21.30301
506.54        21.45559
506.98        21.47876
507.42        21.40772
507.86        21.30071
508.30        21.25014
508.74        21.28357
509.18        21.37402
509.62        21.49413
510.06        21.59853
510.50        21.67054
510.94        21.72597
511.38        21.77352
511.82        21.82461
512.26         21.8805
512.70        21.92903
513.14        21.96482
513.58        21.98391
514.02        21.98614
514.46          21.979
514.90        21.96028
515.34         21.9245
515.78        21.87636
516.22        21.82095
516.66        21.78078
517.10        21.78948
517.54        21.85087
517.98        21.95271
518.42        22.06409
518.86        22.13352
519.30        22.14609
519.74        22.11464
520.18        22.06087
520.62        22.02127
521.06         22.0063
521.50        22.00408
521.93        22.00563
522.37        21.99162
522.81        21.96041
523.25        21.92304
523.69         21.8839
524.13        21.84679
524.57        21.81536
525.01        21.78738
525.45        21.76907
525.89        21.77176
526.32        21.79353
526.76        21.82519
527.20        21.85295
527.64        21.85455
528.08        21.82498
528.52        21.77542
528.96        21.70866
529.40        21.62937
529.83        21.54194
530.27        21.45172
530.71        21.37913
531.15        21.36124
531.59        21.40075
532.03        21.48346
532.46        21.56843
532.90        21.59358
533.34        21.54646
533.78        21.43153
534.22        21.28571
534.66        21.20262
535.09        21.17718
535.53         21.1181
535.97        21.03002
536.41        20.99622
536.85        21.01867
537.28        21.05508
537.72        21.09228
538.16        21.12933
538.60        21.15988
539.04        21.17889
539.47        21.19834
539.91        21.25137
540.35        21.33673
540.79        21.45614
541.22        21.58188
541.66          21.637
542.10        21.67064
542.54        21.65484
542.97        21.64622
543.41        21.72017
543.85        21.88451
544.29        22.11418
544.72        22.35883
545.16        22.55185
545.60        22.67163
546.04        22.73623
546.47        22.77772
546.91        22.85295
547.35         22.9779
547.79        23.12981
548.22        23.26822
548.66        23.38335
549.10        23.47097
549.53        23.43391
549.97        23.51892
550.41        23.63609
550.84        23.85452
551.28        24.14927
551.72        24.45914
552.15        24.66138
552.59        24.74367
553.03        24.77501
553.46        24.78565
553.90        24.83652
554.34        24.94727
554.77        25.06057
555.21        25.14287
555.65        25.41495
556.08        25.38653
556.52        25.46737
556.96        25.52485
557.39        25.59325
557.83        25.68231
558.27        25.76919
558.70         25.8464
559.14        25.97317
559.57        25.94151
560.01        26.10928
560.45        26.33619
560.88        26.38076
561.32        26.28977
561.75        26.17323
562.19        26.11705
562.63         26.3323
563.06        26.71068
563.50        26.69275
563.93        26.34912
564.37        26.30709
564.80        26.57487
565.24        26.81216
565.68        26.95953
566.11        27.08331
566.55        27.17928
566.98        27.22171
567.42        27.25647
567.85        27.33743
568.29         27.4868
568.72        27.65495
569.16        27.83936
569.60        28.00819
570.03        28.14505
570.47         28.2177
570.90        28.42907
571.34        28.37941
571.77        28.46949
572.21         28.4464
572.64         28.5123
573.08        28.56177
573.51        29.11883
573.95        29.66957
574.38        29.14867
574.82        29.54202
575.25        29.48382
575.69        29.53685
576.12        29.43773
576.56        29.49884
576.99        29.96545
577.42         29.7416
577.86        29.88527
578.29        29.79538
578.73        29.70202
579.16        29.50365
579.60        29.32878
580.03        29.27333
580.47        29.48419
580.90        28.99274
581.33        29.39904
581.77        29.48337
582.20        29.32521
582.64         28.8529
583.07         28.8717
583.51        28.71424
583.94         28.7302
584.37        28.75055
584.81        28.74849
585.24         28.6287
585.68        28.45659
586.11        28.30034
586.54        28.38192
586.98        28.16949
587.41        28.21299
587.85        28.12185
588.28        28.22266
588.71        27.52779
589.15        28.13033
589.58        27.77817
590.01        27.99791
590.45        27.91064
590.88        27.82104
591.31        27.77219
591.75        27.80623
592.18        27.81319
592.61        27.66896
593.05         28.2345
593.48        27.93355
593.91        27.73402
594.35        28.01158
594.78        28.10586
595.21        28.22619
595.65        28.33494
596.08        28.30428
596.51        28.61297
596.94        28.70107
597.38        28.97644
597.81        29.33893
598.24         29.0738
598.68        29.50763
599.11        29.78005
599.54        30.05991
599.97        30.06125
600.41        30.61818
600.84        30.85669
601.27        31.18744
601.70        31.68987
602.14        32.14981
602.57        32.31112
603.00        32.40796
603.43        32.47366
603.87        32.85004
604.30        33.33544
604.73        33.48719
605.16         33.9693
605.60        34.55154
606.03        34.96548
606.46        35.13769
606.89        35.42117
607.32        35.75562
607.76        36.05836
608.19        36.30086
608.62         36.8765
609.05        37.28876
609.48        37.59156
609.92         37.7393
610.35        37.80932
610.78        38.57109
611.21        38.89594
611.64         39.0321
612.07        39.31594
612.50        39.73041
612.94        39.95187
613.37        40.00254
613.80        40.07991
614.23        40.18912
614.66        40.59111
615.09        40.63825
615.52        40.92807
615.96        41.26121
616.39        41.59491
616.82        41.91653
617.25        42.31322
617.68        42.72115
618.11        42.88712
618.54        42.84196
618.97        42.85793
619.40        43.00995
619.84        43.16888
620.27        43.35565
620.70        43.77697
621.13        44.33123
621.56        44.35177
621.99        44.12307
622.42        44.06609
622.85        44.34929
623.28        44.02904
623.71        44.25197
624.14        44.37135
624.57        44.64182
625.00        44.80069
625.43        44.78606
625.86        44.65638
626.29        44.45387
626.72        44.06501
627.15         44.0318
627.58        43.79331
628.01        43.53407
628.44        43.49611
628.87        43.59793
629.30        43.41721
629.73        42.99121
630.16        42.73051
630.59        42.64394
631.02        42.49635
631.45        42.25809
631.88        41.99012
632.31        41.68773
632.74        41.33957
633.17        40.96735
633.60        40.60448
634.03        40.26002
634.46        39.92702
634.89        39.60042
635.32        39.26963
635.75        38.93209
636.18        38.59591
636.61        38.24977
637.04        37.87592
637.47        37.47573
637.89        37.03813
638.32        36.57843
638.75        36.20575
639.18        35.93419
639.61        35.55329
640.04         35.3184
640.47        35.03091
640.90        34.76478
641.33        34.49147
641.76        34.22337
642.18        34.04152
642.61        33.95523
643.04        33.86791
643.47        33.73172
643.90        33.94798
644.33        33.77362
644.76        33.75553
645.18        33.71037
645.61        33.81983
646.04        34.03786
646.47        34.09428
646.90        34.01858
647.33        34.08796
647.75        34.30996
648.18        34.51007
648.61        34.70464
649.04        34.93911
649.47        35.19682
649.89        35.64094
650.32        36.16253
650.75        36.16879
651.18        35.84078
651.61        36.20476
652.03        37.20604
652.46        37.74443
652.89        37.77412
653.32        38.05745
653.74        38.70293
654.17        38.93533
654.60        39.46574
655.03        39.94062
655.46        39.92606
655.88        40.70971
656.31        45.40194
656.74        44.54975
657.16        40.87021
657.59        40.72862
658.02        42.29039
658.45        42.71831
658.87        43.19983
659.30        42.59638
659.73        43.46521
660.15        44.35474
660.58        44.02903
661.01        44.23107
661.44        44.47677
661.86        44.73275
662.29        45.00503
662.72        45.36655
663.14        45.80365
663.57        46.16494
664.00        46.42441
664.42        46.63111
664.85        46.79118
665.27        46.85019
665.70         46.8664
666.13        46.96413
666.55        47.17647
666.98        47.46566
667.41        47.80204
667.83        48.12673
668.26        48.39872
668.69        48.65052
669.11        48.89188
669.54        49.10481
669.96        49.27644
670.39        49.55605
670.82        49.61806
671.24         49.7735
671.67        49.93717
672.09        50.13188
672.52        50.34222
672.94        50.47954
673.37        50.54524
673.80        50.58114
674.22        50.61618
674.65        50.65309
675.07        50.71828
675.50        50.80462
675.92        50.92332
676.35        51.08312
676.77        51.28411
677.20        51.51178
677.62        51.75459
678.05         51.9811
678.47        52.17764
678.90        52.35452
679.32        52.49593
679.75        52.59916
680.17        52.66365
680.60         52.6936
681.02        52.72705
681.45        52.80652
681.87         52.9511
682.30        53.16466
682.72        53.41043
683.15        53.54014
683.57        53.56642
684.00        53.63738
684.42        53.76886
684.85        53.87818
685.27         53.9569
685.70        54.09113
686.12        54.25283
686.54        54.31551
686.97        54.30199
687.39        54.41242
687.82         54.5945
688.24        54.61962
688.66        54.52219
689.09        54.43676
689.51        54.93479
689.94        55.13779
690.36        55.20809
690.78        55.37497
691.21        55.66403
691.63        55.90998
692.06        56.14801
692.48         56.6304
692.90        57.24301
693.33        57.56863
693.75        57.56136
694.17        57.38072
694.60        57.17784
695.02          57.068
695.44        57.24712
695.87        57.39293
696.29        57.50922
696.71        57.46533
697.14        57.35917
697.56        57.60688
697.98        58.14533
698.41        58.48256
698.83        58.58382
699.25        58.73432
699.68        58.92271
700.10        59.05471
700.52        59.12698
700.94        59.12539
701.37        59.10967
701.79        59.28966
702.21        59.61811
702.64         59.8982
703.06         60.0792
703.48        60.14501
703.90        60.06733
704.33        60.21917
704.75        59.90567
705.17        59.90075
705.59        60.01366
706.01        60.20957
706.44        60.45435
706.86        60.72393
707.28        60.98549
707.70        61.24636
708.12        61.47342
708.55         61.5995
708.97        61.61769
709.39        61.55927
709.81        61.48555
710.23        61.49004
710.66        61.59797
711.08        61.82241
711.50         62.0758
711.92         62.1807
712.34        62.13347
712.76         62.0814
713.19        62.06768
713.61        62.11161
714.03        62.21484
714.45        62.39788
714.87        62.62029
715.29        62.79409
715.71        62.90219
716.13        62.98013
716.56         63.0127
716.98        63.05408
717.40        63.09029
717.82        63.10615
718.24        63.14296
718.66        63.27215
719.08        63.49725
719.50        63.79625
719.92         64.0813
720.34        64.20632
720.76        64.14368
721.19         63.9436
721.61         63.7095
722.03        63.60014
722.45        63.66768
722.87        63.87608
723.29        64.16473
723.71        64.42944
724.13        64.62658
724.55        64.76805
724.97          64.894
725.39         65.0701
725.81        65.30233
726.23        65.56455
726.65        65.76406
727.07          65.759
727.49        65.53899
727.91        65.16765
728.33        64.79379
728.75        64.65485
729.17        64.81617
729.59        65.16431
730.01        65.56135
730.43        65.90642
730.85        66.15917
731.27        65.82536
731.69        65.93918
732.10        65.80463
732.52        65.75041
732.94        65.71049
733.36        65.72916
733.78        65.84828
734.20        66.05155
734.62        66.39946
735.04        66.78867
735.46        66.89456
735.88        66.76834
736.30        66.80838
736.72        67.01108
737.13        67.13492
737.55        67.13155
737.97         67.0053
738.39        66.86098
738.81        67.06688
739.23        67.56604
739.65        67.82826
740.06        67.77693
740.48        67.82684
740.90        67.95207
741.32        67.94237
741.74         67.7923
742.16        67.64333
742.57        67.53064
742.99         67.3819
743.41        67.29641
743.83        67.48158
744.25        67.90951
744.67        68.38176
745.08        68.78032
745.50        68.97063
745.92        68.91692
746.34        68.61165
746.75        68.17758
747.17        67.88885
747.59        67.79821
748.01        67.83908
748.42        67.98803
748.84        68.16867
749.26        68.35582
749.68        68.56412
750.09        68.75706
750.51        68.90362
750.93        68.98364
751.35        68.97465
751.76        68.92286
752.18         68.9295
752.60        69.02142
753.01        69.17915
753.43        69.35171
753.85        69.50514
754.27        69.62443
754.68        69.71896
755.10        69.80788
755.52        69.92292
755.93        70.06267
756.35        70.17143
756.77        70.20721
757.18        70.22104
757.60        70.26365
758.02        70.02253
758.43        69.88776
758.85        70.01332
759.26        69.48222
759.68        69.25896
760.10        69.79127
760.51        70.31694
760.93        70.90851
761.34         70.3388
761.76        70.54568
762.18        70.04465
762.59        69.66142
763.01        69.90581
763.42        70.78846
763.84        71.18844
764.26        71.06124
764.67        70.73775
765.09        70.41766
765.50        70.64461
765.92          71.345
766.33        70.80856
766.75        70.30908
767.16        70.17596
767.58        70.42117
768.00        70.54353
768.41        70.54918
768.83        71.41831
769.24        72.81511
769.66        73.38284
770.07        73.06243
770.49        72.60655
770.90        72.23082
771.32        72.09664
771.73        72.18545
772.15        72.04338
772.56        71.68913
772.97        71.53317
773.39        71.59878
773.80         71.7196
774.22        71.84775
774.63        72.09427
775.05        72.35241
775.46        72.50723
775.88        72.50391
776.29        72.39227
776.70        72.25919
777.12        72.28751
777.53        72.52457
777.95        72.87151
778.36        73.23717
778.77         73.4324
779.19        73.41507
779.60        73.31686
780.02        73.15493
780.43        72.88792
780.84        72.64815
781.26        72.50528
781.67        72.50135
782.09         72.9654
782.50        73.60092
782.91        73.25313
783.33        72.19872
783.74        71.98343
784.15        72.72523
784.57        73.56798
784.98        74.31065
785.39        74.84488
785.81        75.13863
786.22        75.21684
786.63        75.50959
787.04        75.50954
787.46        75.42741
787.87        74.95637
788.28        74.95173
788.70        74.89506
789.11        74.99986
789.52        75.27242
789.93        75.59843
790.35        75.73649
790.76        75.65187
791.17        75.42568
791.58        75.15822
792.00        74.95235
792.41        74.86328
792.82        74.90788
793.23        75.00273
793.65        74.94566
794.06        74.75378
794.47        74.58466
794.88        74.53002
795.29        74.61364
795.71        74.78539
796.12        75.20549
796.53        75.71139
796.94         75.8503
797.35        75.57356
797.76        75.25448
798.18         75.0629
798.59        74.99152
799.00        75.10321
799.41        75.45518
799.82        75.94253
800.23        76.31433
800.64        76.49597
801.06        76.53956
801.47        76.49556
801.88        76.34883
802.29         76.1214
802.70        75.79542
803.11        75.47653
803.52        75.32816
803.93        75.40356
804.34        75.73373
804.75        76.16783
805.17        76.42011
805.58          76.549
805.99        76.44878
806.40         76.2642
806.81        76.95733
807.22        78.10402
807.63        77.58434
808.04        75.73629
808.45        75.04904
808.86         75.7274
809.27        76.39907
809.68        76.80261
810.09        77.10608
810.50        77.21637
810.91        77.15363
811.32        76.98625
811.73        76.77368
812.14        76.57198
812.55        76.39819
812.96        76.31535
813.37        76.40076
813.78        76.65974
814.19        77.07291
814.60        77.52576
815.01         77.8329
815.42        77.94625
815.83        77.90043
816.24        77.74754
816.65        77.60311
817.05        77.52129
817.46        77.45047
817.87        77.40145
818.28        77.34026
818.69        77.25824
819.10        77.17494
819.51         77.1211
819.92        77.13998
820.33        77.23495
820.74        77.37892
821.14        77.51144
821.55        77.57812
821.96        77.55431
822.37        77.47478
822.78        77.37883
823.19        77.33505
823.60        77.37843
824.00        77.51512
824.41        77.70704
824.82        78.00703
825.23        78.39098
825.64        78.81448
826.04        79.22813
826.45        79.46565
826.86        79.50915
827.27        79.40064
827.68        79.12283
828.08        78.67734
828.49         78.0739
828.90        77.35619
829.31        76.71335
829.72        76.43024
830.12        76.60299
830.53        77.13136
830.94        77.79903
831.35        78.14624
831.75        78.05702
832.16        77.60558
832.57        77.10054
832.97        77.01189
833.38        77.41919
833.79        78.15624
834.20        78.95148
834.60        79.35207
835.01        79.20567
835.42        78.70902
835.82        78.05228
836.23        77.51501
836.64        77.20427
837.04        77.04211
837.45        77.02312
837.86        77.21343
838.26        77.59367
838.67         78.1036
839.08        78.58646
839.48        78.74513
839.89        78.50707
840.29        77.97588
840.70        77.32474
841.11        76.79694
841.51        76.50441
841.92        76.36866
842.33        76.42822
842.73         76.7458
843.14        77.24423
843.54        77.94453
843.95        78.65953
844.35        79.15105
844.76        79.30048
845.17        79.15062
845.57        78.81618
845.98         78.4862
846.38        78.25484
846.79         78.0755
847.19        77.92686
847.60        77.68269
848.00        77.35979
848.41        76.99077
848.81        76.72426
849.22        76.75383
849.62           77.12
850.03        77.72702
850.43        78.37408
850.84        78.56006
851.24        78.24484
851.65        77.53439
852.05        76.78781
852.46         76.5629
852.86        76.96127
853.27        77.76346
853.67        78.66859
854.07        79.48637
854.48        80.07054
854.88         80.6041
855.29         80.8189
855.69        80.53391
856.10         79.6433
856.50        78.34599
856.90        77.04449
857.31        76.32685
857.71        76.30962
858.12        76.79207
858.52        77.62535
858.92        78.25799
859.33        78.46226
859.73         78.4276
860.13        78.14605
860.54        77.65947
860.94         77.0322
861.34        76.21252
861.75        75.41928
862.15        75.10844
862.55        75.35779
862.96        76.06261
863.36        76.89997
863.76        77.22971
864.17        76.90072
864.57        76.10809
864.97        75.21146
865.38        74.81085
865.78        75.09469
866.18         75.8573
866.58        76.77221
866.99        77.25936
867.39        77.17328
867.79        76.69883
868.19        76.07526
868.60        75.60994
869.00        75.39351
869.40        75.32771
869.80        75.39838
870.21        75.59107
870.61        75.91344
871.01        76.30634
871.41        76.63718
871.81        76.69293
872.22        76.43591
872.62         75.9463
873.02        75.33124
873.42        74.77952
873.82        74.39266
874.22        74.15392
874.63        74.11806
875.03        74.35464
875.43        74.84396
875.83        75.53696
876.23        76.31175
876.63        76.97549
877.03         77.4483
877.44        77.72743
877.84        77.83157
878.24        77.75687
878.64        77.53158
879.04        77.17313
879.44        76.76244
879.84        76.42141
880.24        76.18404
880.64        76.03626
881.04        75.96745
881.44        75.93131
881.84        75.91941
882.24        75.97272
882.65        76.02003
883.05        76.05445
883.45        76.02802
883.85        75.93007
884.25        75.90814
884.65        76.19415
885.05        76.81068
885.45         77.6897
885.85        78.55498
886.25        78.93394
886.65        78.69869
887.05        77.96622
887.45        77.08447
887.85        76.60358
888.25        76.66301
888.65        77.13136
889.04        77.66514
889.44        77.68293
889.84        77.07827
890.24        76.03941
890.64        74.99802
891.04        74.55959
891.44        74.84769
891.84        75.71828
892.24        76.69586
892.64        76.98029
893.04        76.39847
893.44        75.19102
893.83        74.01529
894.23        73.87926
894.63        74.93721
895.03        76.88537
895.43        78.96246
895.83        79.78976
896.23        79.02987
896.63        77.21829
897.02        75.14217
897.42        74.01547
897.82        74.03318
898.22        74.86333
898.62        76.10635
899.01        77.10732
899.41         77.5583
899.81        77.69106
900.21        77.72163
900.61        77.99684
901.00        78.59667
901.40        79.31099
901.80        79.92135
902.20        80.13908
902.59        79.91154
902.99        79.37345
903.39        78.70259
903.79        78.16505
904.18        77.84231
904.58        77.68127
904.98        77.63857
905.38        77.65498
905.77        77.69382
906.17        77.81493
906.57        77.91831
906.96        77.84882
907.36        77.56935
907.76         77.1172
908.15        76.71613
908.55        76.69056
908.95        77.11408
909.34        77.89165
909.74        78.69787
910.14        79.08154
910.53        78.91714
910.93         78.3466
911.33        77.62927
911.72        77.17059
912.12        77.11037
912.52        77.33098
912.91        77.64941
913.31        77.75511
913.70        77.57948
914.10        77.23404
914.49        76.91601
914.89        76.90279
915.29        77.25099
915.68        77.84648
916.08        78.49047
916.47        78.88488
916.87        78.93518
917.26        78.74383
917.66        78.44344
918.05        78.22256
918.45        78.14075
918.84        78.18909
919.24        78.31345
919.64         78.5106
920.03        78.76659
920.42        79.03923
920.82        79.33253
921.21         79.6726
921.61        80.00408
922.00        80.31342
922.40        80.43582
922.79        80.19077
923.19        79.56285
923.58        78.68416
923.98        77.75206
924.37        76.94718
924.77        76.37153
925.16        75.97726
925.55        75.83408
925.95        75.99975
926.34        76.47917
926.74        77.19652
927.13         78.0631
927.52        78.83765
927.92        79.41353
928.31        79.81442
928.70        80.03678
929.10        80.13617
929.49         80.1597
929.89        80.08407
930.28        79.91823
930.67        79.63036
931.07        79.23038
931.46        78.75491
931.85         78.3385
932.24        78.18903
932.64        78.33782
933.03        78.75893
933.42        79.19279
933.82        79.25076
934.21        78.86022
934.60        78.12496
934.99        77.40385
935.39        77.21165
935.78        77.69206
936.17        78.72486
936.56        79.87022
936.96          80.332
937.35        79.93363
937.74        78.86066
938.13        77.68319
938.53        77.15644
938.92        77.37856
939.31        78.18788
939.70        79.10775
940.09        79.28352
940.49        78.52241
940.88         77.1493
941.27         75.7612
941.66        75.23573
942.05        75.76879
942.44        77.10851
942.84        78.74322
943.23        79.82195
943.62        79.97148
944.01        79.45562
944.40        78.67364
944.79        78.26897
945.18         78.4234
945.57        78.89842
945.97        79.46603
946.36        79.88841
946.75        80.04644
947.14        80.06607
947.53        79.98851
947.92        79.85141
948.31        79.69336
948.70        79.49427
949.09        79.32439
949.48        79.29578
949.87        79.44348
950.26        79.78292
950.65        80.22702
951.04        80.60945
951.43        80.85946
951.82        80.94756
952.21        81.01934
952.60        81.32975
952.99        81.87992
953.38         82.5708
953.77        83.04922
954.16        82.70445
954.55        81.47853
954.94        79.70525
955.33        77.86731
955.72        76.68166
956.11           76.34
956.50        76.57904
956.89        77.30496
957.28        78.35984
957.66        79.63312
958.05        81.04671
958.44        82.15454
958.83        82.09541
959.22        80.76472
959.61        78.52003
960.00        76.13844
960.39        74.73208
960.78        74.54611
961.16         75.3046
961.55        76.61604
961.94        77.90448
962.33        78.89287
962.72        79.73427
963.11        80.30161
963.49        80.38183
963.88        79.93205
964.27        79.05061
964.66        78.03094
965.04        77.32063
965.43        77.00406
965.82        76.94557
966.21        77.11523
966.60        77.40553
966.98        77.74963
967.37        78.19416
967.76        78.48738
968.15        78.17857
968.53        77.24493
968.92        75.80904
969.31        74.42496
969.69        73.98313
970.08        74.61517
970.47        76.06992
970.86         77.7812
971.24        78.68958
971.63        78.38879
972.02        77.28497
972.40        75.76763
972.79        74.47983
973.17          73.674
973.56        73.14739
973.95        72.95876
974.33        73.23602
974.72        73.87521
975.11        74.83576
975.49        75.92169
975.88        76.62308
976.26        76.82409
976.65        76.60138
977.04        75.94482
977.42        74.83326
977.81        73.39486
978.19          71.657
978.58        70.45891
978.96        70.83209
979.35        72.89509
979.74        76.44362
980.12        80.62277
980.51        83.01682
980.89        83.00383
981.28        81.01541
981.66        78.17777
982.05        76.46872
982.43         76.4316
982.82        77.47673
983.20          79.227
983.59        80.81562
983.97        81.98246
984.35        82.96696
984.74         83.5033
985.12        83.26538
985.51        82.23096
985.89        80.41238
986.28        78.47269
986.66        77.36333
987.04        77.43903
987.43        78.48603
987.81        79.91249
988.20        80.45435
988.58         79.8344
988.96        78.25867
989.35        76.60641
989.73        76.26151
990.12        77.44528
990.50        79.76724
990.88        82.00668
991.27        82.20927
991.65        80.08015
992.03        76.34527
992.42        72.43238
992.80        70.25865
993.18        70.41679
993.56        72.27306
993.95        74.90407
994.33        76.98739
994.71        77.78371
995.10        77.73144
995.48         77.0327
995.86        76.01217
996.24         74.9189
996.63        73.61008
997.01        72.36266
997.39        71.62734
997.77        71.48401
998.15         71.9337
998.54        72.68631
998.92        73.16211
999.30        73.16998
999.68        72.81437
1000.06        72.43037
1000.45        72.58443
1000.83        73.54001
1001.21        75.03622
1001.59        76.57996
1001.97        77.34294
1002.35        77.10928
1002.73        76.15623
1003.12        75.01144
1003.50        74.49043
1003.88        74.83654
1004.26        75.74928
1004.64        76.87951
1005.02        77.72852
1005.40        78.14774
1005.78         78.2999
1006.16        78.24123
1006.54         78.0511
1006.92        77.75665
1007.30        77.26317
1007.69        76.58335
1008.07        76.00648
1008.45        75.52536
1008.83        75.21799
1009.21        74.94379
1009.59        74.41624
1009.97        73.61713
1010.35        72.62341
1010.73        71.89755
1011.11        72.22697
1011.49         73.8448
1011.86        76.78126
1012.24        80.08368
1012.62        82.42487
1013.00        83.25212
1013.38        82.64639
1013.76        81.57375
1014.14        81.95096
1014.52        84.26008
1014.90        87.92344
1015.28        91.30461
1015.66        91.51543
1016.04        88.28398
1016.41        83.24549
1016.79        78.33523
1017.17        75.03059
1017.55        73.28159
1017.93         72.3553
1018.31        72.11391
1018.69        72.31676
1019.06        72.64716
1019.44        73.30676
1019.82        73.61282
1020.20        72.77737
1020.58         70.7974
1020.95        67.58063
1021.33        63.99004
1021.71        62.56215
1022.09        64.67783
1022.46        69.57191
1022.84        75.54926
1023.22        80.46796
1023.60        83.62355
1023.97        85.53873
1024.35        85.87914
1024.73        84.23328
