SpectraSmart Spectrum 2.9.0.0
--------- Device Information -----------
Spectrum Name :  反射率_0
Saving Time :  2024/05/01 17:00:53
Spectro-Module Model Name : SE2030-DUVN
Spectro-Module Serial Number : OS361AC55029948
Wavelength Start : 200
Wavelength End : 1025
Wavelength Unit : Wavelength(nm)
Spectrum Unit : Reflectance(%)
-----------Spectrum Setting ------------
Integration Time : 20ms
Average : 10
Boxcar : 0
Background removal :  enabled
linearity correction :  enabled
SC :  disabled
Intensity correction :  disabled
DWT denoise :  enabled
savitzky-golay :  disabled
FFT :  disabled
Running average :  disabled
Kalman :  disabled
High pass :  disabled
---------------BEGIN--------------------
Wavelength(nm)             Reflectance(%)
200.29               0
200.75        289.1228
201.21        1026.099
201.67       -372.8713
202.13       -122.6982
202.58       -48.72295
203.04       -8.144432
203.50         15.0078
203.96        22.96765
204.42        17.03313
204.88       -20.22798
205.34       -1053.193
205.80        198.4962
206.26        135.5742
206.72        109.3849
207.18        74.98495
207.64        114.2574
208.10        81.39437
208.55        65.73402
209.01        54.07204
209.47        47.38963
209.93        43.81225
210.39        39.55677
210.85        34.48948
211.31         27.4604
211.77        7.058058
212.23        145.8337
212.69         66.1534
213.14        78.99498
213.60        155.3556
214.06       -710.9817
214.52       -110.9651
214.98       -69.15465
215.44         -55.221
215.90       -45.16813
216.36        17.45198
216.81       -71.50993
217.27       -72.80096
217.73        -20.4469
218.19       -51.36597
218.65       -60.41514
219.11       -74.64655
219.57       -113.6821
220.02       -223.1026
220.48       -57.85678
220.94        -1.25279
221.40        8.863611
221.86        12.39039
222.32         15.7408
222.77        20.62425
223.23        27.81195
223.69        36.88308
224.15         41.2665
224.61         38.3947
225.06        32.98009
225.52        29.50939
225.98        29.76626
226.44        33.45275
226.90        40.20189
227.36        49.13037
227.81        54.29416
228.27        52.72861
228.73        48.30447
229.19        43.97867
229.65        41.07156
230.10        39.27119
230.56        37.92487
231.02        37.42093
231.48         38.9071
231.93        42.05246
232.39        45.97034
232.85        49.27967
233.31        50.87709
233.77        51.03482
234.22         50.3456
234.68        49.42294
235.14        49.06804
235.60        49.47941
236.05         50.5564
236.51        52.31513
236.97        54.40706
237.43        56.00597
237.88        56.89431
238.34        56.41236
238.80         54.3526
239.26        50.27908
239.71        43.17542
240.17         31.4571
240.63         17.5221
241.08        8.364946
241.54        7.105266
242.00        11.34231
242.46        17.49248
242.91        26.12751
243.37        40.13891
243.83        64.10734
244.28        89.35475
244.74        95.08566
245.20        87.25302
245.66        77.40156
246.11        69.82441
246.57        63.10536
247.03        54.13023
247.48         38.2591
247.94        12.52591
248.40       -15.99882
248.85       -39.77327
249.31       -46.60483
249.77       -32.95844
250.22       -10.33962
250.68         12.3613
251.14        28.70701
251.59        35.05723
252.05        32.04957
252.51        16.73133
252.96       -24.97112
253.42       -85.78403
253.88       -77.53853
254.33       -18.12246
254.79        19.72481
255.25         36.6216
255.70        44.11095
256.16        48.47947
256.62        51.08311
257.07        52.37906
257.53        53.21508
257.99         53.5105
258.44        53.59037
258.90        54.16851
259.35        54.89487
259.81        55.85975
260.27        56.52245
260.72        56.21425
261.18        55.25693
261.63        53.77809
262.09        52.39922
262.55        51.40464
263.00        50.69833
263.46        50.22484
263.91        49.70644
264.37        49.09464
264.83        48.33428
265.28        47.53794
265.74        46.78044
266.19        45.90017
266.65        45.02208
267.11        44.08939
267.56        43.36714
268.02        43.37277
268.47        44.08617
268.93        45.28035
269.38         46.4333
269.84        46.64993
270.30        45.76394
270.75        44.06477
271.21        42.06447
271.66        40.42196
272.12        39.39854
272.57        38.73859
273.03        38.35872
273.48        38.05903
273.94        37.77747
274.39        37.56657
274.85        37.35092
275.31        36.92762
275.76        36.27584
276.22        35.49418
276.67        34.69895
277.13        34.18824
277.58        33.93156
278.04        33.87246
278.49        33.82895
278.95        33.64813
279.40        33.23925
279.86        32.72309
280.31         32.1207
280.77        31.56423
281.22        31.03387
281.68         30.5514
282.13        30.06263
282.59        29.59071
283.04        29.10394
283.50        28.65886
283.95        28.24588
284.41        27.90789
284.86        27.63462
285.32        27.42327
285.77        27.26948
286.22        27.20577
286.68        27.22506
287.13        27.29952
287.59        27.35364
288.04        27.22482
288.50        26.92531
288.95        26.47135
289.41        26.04632
289.86        25.83326
290.32        25.88162
290.77        26.11404
291.22         26.3787
291.68        26.43368
292.13        26.23595
292.59         25.9028
293.04        25.58051
293.50        25.54682
293.95        25.84353
294.40        26.38248
294.86        27.03642
295.31        27.61806
295.77         28.0556
296.22        28.39516
296.68        28.66687
297.13        28.90115
297.58         29.1312
298.04         29.3602
298.49        29.59242
298.95        29.88026
299.40        30.21487
299.85        30.58506
300.31        31.00305
300.76        31.47549
301.21        31.99505
301.67        32.56479
302.12        33.08256
302.58        33.41911
303.03        33.53689
303.48        33.49759
303.94        33.46264
304.39        33.60823
304.84        33.98639
305.30        34.52115
305.75        35.07423
306.20        35.45135
306.66         35.6063
307.11        35.58316
307.57        35.47104
308.02        35.34478
308.47        35.25431
308.93        35.18734
309.38        35.11238
309.83        35.03493
310.29         34.9621
310.74         34.8959
311.19        34.85666
311.65        34.85519
312.10        34.88217
312.55        34.92999
313.00        34.97729
313.46        34.99372
313.91         34.9619
314.36        34.88173
314.82        34.76265
315.27        34.63754
315.72        34.50919
316.18        34.37894
316.63        34.21645
317.08        33.98258
317.53        33.67687
317.99        33.32391
318.44        32.96852
318.89        32.69696
319.35        32.53442
319.80         32.4562
320.25         32.4251
320.70        32.37414
321.16        32.27601
321.61        32.15856
322.06        32.02927
322.51        31.90711
322.97        31.79301
323.42        31.68358
323.87        31.58049
324.32        31.50236
324.78        31.44245
325.23        31.40686
325.68        31.35986
326.13        31.24969
326.59        31.05908
327.04        30.81864
327.49        30.55506
327.94        30.32698
328.39        30.15287
328.85        30.00636
329.30        29.89046
329.75        29.77185
330.20        29.63941
330.66         29.4998
331.11        29.35599
331.56        29.17595
332.01        28.96299
332.46        28.72749
332.92        28.50021
333.37        28.36893
333.82        28.34122
334.27        28.39754
334.72        28.50304
335.17        28.59381
335.63        28.63066
336.08        28.63949
336.53        28.61575
336.98        28.57145
337.43        28.51447
337.88        28.44342
338.34         28.3524
338.79        28.25408
339.24        28.15031
339.69        28.04665
340.14        27.97503
340.59        27.98082
341.05        28.05783
341.50        28.19116
341.95         28.3267
342.40        28.37675
342.85        28.32546
343.30        28.21513
343.75        28.07855
344.20        27.96811
344.66        27.90725
345.11        27.86253
345.56        27.88103
346.01        28.03249
346.46        28.30643
346.91         28.6741
347.36        28.99762
347.81        29.06896
348.26        28.86001
348.72        28.44635
349.17        27.97164
349.62        27.70899
350.07        27.72298
350.52        27.93003
350.97        28.20031
351.42        28.31539
351.87         28.2193
352.32        28.00089
352.77        27.72709
353.22        27.49772
353.67        27.34796
354.13         27.2373
354.58        27.17303
355.03        27.21018
355.48         27.3425
355.93        27.56931
356.38        27.77893
356.83        27.77722
357.28        27.53736
357.73        27.12647
358.18        26.71396
358.63        26.55666
359.08        26.69637
359.53        27.03914
359.98        27.44076
360.43        27.65454
360.88        27.60288
361.33        27.37264
361.78        27.03259
362.23        26.67949
362.68        26.35845
363.13        26.04121
363.58        25.76451
364.03        25.59856
364.48        25.54458
364.93        25.57504
365.38        25.62623
365.83        25.58855
366.28        25.43136
366.73        25.19264
367.18        24.87714
367.63        24.50221
368.08        24.10403
368.53        23.69241
368.98        23.34891
369.43        23.19155
369.88        23.22979
370.33        23.42499
370.78        23.67689
371.23        23.80043
371.68        23.73306
372.13        23.52324
372.58        23.23192
373.03        22.95702
373.48        22.73357
373.93        22.53333
374.38        22.35948
374.83        22.22252
375.28        22.12093
375.72        22.05569
376.17        22.01126
376.62        21.94982
377.07        21.85743
377.52         21.7372
377.97        21.58935
378.42        21.41832
378.87        21.23402
379.32         21.0456
379.77        20.86352
380.22        20.70215
380.67        20.56771
381.11        20.45894
381.56        20.38911
382.01        20.38211
382.46        20.43604
382.91        20.54069
383.36        20.64348
383.81        20.66793
384.26        20.59428
384.71        20.43064
385.15        20.23326
385.60        20.11452
386.05        20.08858
386.50        20.13077
386.95         20.1543
387.40        20.02534
387.85        19.73604
388.29        19.33356
388.74         18.9678
389.19        18.78655
389.64        18.81133
390.09        18.97478
390.54        19.18104
390.98        19.27493
391.43        19.22016
391.88        19.07508
392.33        18.88231
392.78        18.70801
393.23         18.5777
393.67        18.44018
394.12         18.3327
394.57         18.3306
395.02        18.40574
395.47        18.42362
395.91        18.38707
396.36        18.39636
396.81        18.45485
397.26        18.49752
397.71        18.49581
398.15        18.45535
398.60        18.39861
399.05        18.24948
399.50        18.07687
399.95        18.10996
400.39        18.30125
400.84        18.30936
401.29        18.11246
401.74        17.96659
402.18        17.88103
402.63        17.68698
403.08        17.45387
403.53         17.3689
403.97        17.44606
404.42        17.62615
404.87        17.81754
405.32        17.87606
405.76        17.76545
406.21        17.54314
406.66        17.28263
407.11         17.1001
407.55        17.03608
408.00        17.05805
408.45        17.13033
408.90        17.16566
409.34        17.14696
409.79         17.1379
410.24        17.14895
410.68        17.15254
411.13        17.15391
411.58        17.16791
412.03        17.17514
412.47        17.13904
412.92        17.05347
413.37        16.93493
413.81        16.82229
414.26        16.78572
414.71        16.83065
415.15         16.9469
415.60        17.07095
416.05        17.11306
416.49        17.05069
416.94        16.90939
417.39         16.7578
417.83         16.7048
418.28        16.77468
418.73        16.93078
419.17        17.10401
419.62         17.1786
420.07        17.13251
420.51        17.00273
420.96        16.86174
421.41        16.79469
421.85        16.81621
422.30        16.90052
422.74        17.00704
423.19        17.09452
423.64         17.1435
424.08        17.17713
424.53         17.1779
424.98        17.14196
425.42        17.07974
425.87         17.0005
426.31        16.92466
426.76        16.89616
427.21        16.91813
427.65        16.97328
428.10        17.06994
428.54        17.21449
428.99        17.39653
429.44        17.62871
429.88         17.8154
430.33        17.82797
430.77        17.66423
431.22        17.39149
431.66        17.12428
432.11        17.09246
432.56        17.27764
433.00        17.48399
433.45        17.56069
433.89        17.42119
434.34        16.99036
434.78        16.93378
435.23        17.36178
435.67        17.51067
436.12        17.40917
436.57        17.43712
437.01        17.59696
437.46        17.66713
437.90        17.62884
438.35        17.56859
438.79        17.50394
439.24        17.41726
439.68        17.35163
440.13        17.43598
440.57         17.6048
441.02        17.67551
441.46        17.63158
441.91         17.4545
442.35        17.24147
442.80        17.42821
443.24        17.88886
443.69         17.9051
444.13        17.51933
444.58        17.41743
445.02        17.60606
445.47        17.70482
445.91        17.69726
446.36        17.74398
446.80        17.83985
447.24        17.94035
447.69        18.02201
448.13        18.04966
448.58        18.01904
449.02        17.94131
449.47        17.85481
449.91        17.80336
450.36        17.80429
450.80        17.84282
451.25        17.88787
451.69        17.87714
452.13         17.8016
452.58        17.68448
453.02        17.56433
453.47        17.51238
453.91        17.54117
454.36        17.63384
454.80        17.74251
455.24        17.79015
455.69        17.76276
456.13        17.67134
456.58        17.57903
457.02         17.5577
457.46        17.62389
457.91        17.75058
458.35        17.86904
458.79        17.84596
459.24         17.6737
459.68        17.44944
460.13        17.28001
460.57         16.9751
461.01        17.05392
461.46        17.10575
461.90        17.23656
462.34         17.3033
462.79        17.37671
463.23        17.39816
463.68         17.4085
464.12        17.43145
464.56        17.47322
465.01        17.54242
465.45        17.59186
465.89        17.58616
466.34        17.52781
466.78        17.42595
467.22        17.31907
467.67        17.30297
468.11        17.32298
468.55        17.42079
468.99        17.54208
469.44        17.63665
469.88        17.69205
470.32        17.71707
470.77        17.72461
471.21        17.73328
471.65        17.74893
472.10         17.7673
472.54         17.7772
472.98         17.7735
473.42        17.75815
473.87        17.74429
474.31        17.73223
474.75        17.74017
475.20        17.77383
475.64        17.81283
476.08        17.84725
476.52         17.9065
476.97        17.99538
477.41        18.02423
477.85        17.94884
478.29        18.20658
478.74        18.01441
479.18        17.97779
479.62        17.90667
480.06         17.9778
480.50        18.20571
480.95        18.20509
481.39        18.53814
481.83        18.60165
482.27        18.57504
482.72        18.49027
483.16        18.39446
483.60        18.39205
484.04        18.49289
484.48        18.57873
484.93        18.73359
485.37        19.07031
485.81        19.40731
486.25        19.72844
486.69        18.95088
487.14        18.44119
487.58        18.99166
488.02        19.34303
488.46        19.27403
488.90        19.55401
489.34        19.42893
489.79        19.23421
490.23        19.61276
490.67        19.86125
491.11        20.14335
491.55        20.18472
491.99         20.0423
492.43        20.06562
492.88        20.27146
493.32        20.42728
493.76        20.51626
494.20        20.65355
494.64        20.84305
495.08        21.02564
495.52        21.18678
495.96        21.37565
496.41        21.56388
496.85         21.5936
497.29        21.51474
497.73        21.62553
498.17        21.90307
498.61        22.00406
499.05        21.94028
499.49        22.00236
499.93        22.19765
500.37        22.36193
500.82        22.48782
501.26        22.63153
501.70        22.78816
502.14        22.94327
502.58        23.06875
503.02        23.12228
503.46        23.10451
503.90        23.03524
504.34        22.97466
504.78        23.01848
505.22        23.18612
505.66        23.44603
506.10        23.73315
506.54        23.93729
506.98        24.02479
507.42        24.02822
507.86         23.9845
508.30        23.95262
508.74        23.95587
509.18        23.97832
509.62        24.01902
510.06        24.07815
510.50        24.15221
510.94        24.24374
511.38        24.34508
511.82        24.43944
512.26        24.51819
512.70        24.57898
513.14         24.6168
513.58        24.62794
514.02        24.61441
514.46        24.58026
514.90        24.53395
515.34        24.48971
515.78        24.45465
516.22        24.42839
516.66        24.41541
517.10        24.41978
517.54         24.4397
517.98        24.47333
518.42        24.50858
518.86        24.52451
519.30        24.51692
519.74          24.492
520.18        24.45944
520.62        24.43692
521.06        24.42773
521.50        24.42178
521.93        24.42059
522.37        24.42086
522.81         24.4226
523.25          24.432
523.69        24.42852
524.13        24.37867
524.57        24.28308
525.01        24.15334
525.45         24.0372
525.89        24.01006
526.32        24.08187
526.76        24.22312
527.20        24.37483
527.64        24.44073
528.08        24.39699
528.52        24.27793
528.96         24.1225
529.40        23.99249
529.83        23.90587
530.27        23.84701
530.71        23.81395
531.15        23.81044
531.59        23.82972
532.03         23.8725
532.46        23.90497
532.90        23.87593
533.34        23.77946
533.78        23.61406
534.22        23.42612
534.66         23.3275
535.09        23.31201
535.53        23.27859
535.97        23.21507
536.41        23.18492
536.85        23.18521
537.28        23.17565
537.72        23.16586
538.16          23.194
538.60        23.26046
539.04         23.3468
539.47        23.43749
539.91        23.52546
540.35        23.60007
540.79        23.67669
541.22        23.75218
541.66        23.78522
542.10        23.84064
542.54        23.87502
542.97        23.92479
543.41        24.03259
543.85        24.19879
544.29        24.40922
544.72          24.635
545.16        24.84337
545.60        25.01815
546.04        25.16446
546.47        25.28945
546.91        25.41091
547.35        25.53508
547.79        25.65116
548.22        25.74046
548.66        25.83063
549.10        25.92686
549.53        25.91253
549.97        26.04064
550.41        26.17994
550.84        26.40138
551.28        26.69045
551.72        27.00366
552.15        27.24264
552.59        27.39884
553.03        27.52929
553.46        27.64301
553.90        27.77286
554.34        27.92992
554.77        28.06116
555.21        28.13501
555.65        28.40869
556.08        28.34398
556.52        28.39885
556.96        28.43501
557.39        28.51532
557.83        28.65373
558.27        28.78992
558.70        28.90938
559.14        29.13128
559.57        29.18544
560.01        29.33248
560.45        29.44411
560.88        29.42796
561.32         29.3448
561.75        29.20617
562.19        29.11595
562.63        29.37432
563.06        29.85978
563.50        29.92279
563.93        29.61187
564.37        29.59197
564.80        29.86684
565.24        30.06799
565.68        30.15928
566.11        30.26287
566.55        30.38534
566.98        30.48186
567.42        30.58583
567.85        30.72612
568.29        30.91827
568.72        31.12507
569.16        31.35418
569.60        31.53005
570.03        31.62309
570.47        31.69463
570.90        32.01694
571.34        31.69106
571.77         31.9871
572.21         32.0075
572.64        32.15919
573.08         32.1469
573.51        32.54222
573.95        33.03368
574.38        32.47238
574.82        32.92878
575.25        33.02211
575.69         33.1514
576.12        33.06081
576.56        33.06252
576.99        33.25961
577.42        33.31168
577.86        33.16246
578.29        33.06618
578.73        33.23944
579.16        33.08102
579.60        32.60146
580.03        32.55591
580.47        32.97589
580.90        32.41355
581.33        32.65069
581.77          33.035
582.20         32.7933
582.64        32.52024
583.07        32.49641
583.51        32.21583
583.94        31.99164
584.37        31.93531
584.81        32.03959
585.24        31.96459
585.68        31.73726
586.11        31.49819
586.54        31.29426
586.98        31.19461
587.41        31.20676
587.85        31.34785
588.28         31.2828
588.71        30.94053
589.15         31.3978
589.58        30.74455
590.01        31.10121
590.45        31.02419
590.88         31.0573
591.31        31.10679
591.75        31.15097
592.18         31.1322
592.61        31.01359
593.05        31.22235
593.48        31.01327
593.91        31.20011
594.35        31.21782
594.78        31.31687
595.21        31.34746
595.65         31.6908
596.08        31.72214
596.51        31.87962
596.94        32.01041
597.38         32.2333
597.81         32.6173
598.24        32.27822
598.68         32.7507
599.11        33.00316
599.54        33.70366
599.97        33.87319
600.41        33.91903
600.84        34.56008
601.27        34.76308
601.70         35.3576
602.14        35.74466
602.57        36.08393
603.00        36.32938
603.43        36.48049
603.87        36.82826
604.30        37.36236
604.73        37.46896
605.16        37.85492
605.60        38.31356
606.03        38.69925
606.46        39.30397
606.89        39.58036
607.32        39.71377
607.76        39.95931
608.19        40.34838
608.62        41.01427
609.05        41.35934
609.48        41.68388
609.92        41.89513
610.35        41.60682
610.78        42.79934
611.21        43.13842
611.64         43.2212
612.07        43.45185
612.50        43.85139
612.94        44.04416
613.37        44.03545
613.80        44.27612
614.23        44.31113
614.66        44.78172
615.09        44.83606
615.52        45.16491
615.96        45.52008
616.39        45.80365
616.82        46.02388
617.25        46.29599
617.68        46.63535
618.11        46.86825
618.54        46.96737
618.97        47.06528
619.40        47.19351
619.84        47.09983
620.27        47.45529
620.70        47.84197
621.13        48.36016
621.56        48.18806
621.99        48.09224
622.42        48.01898
622.85        48.20837
623.28        48.35299
623.71        48.18282
624.14         48.5448
624.57        48.73676
625.00        48.87011
625.43        48.73774
625.86        48.55459
626.29        48.37266
626.72         47.9395
627.15         47.8498
627.58        47.56628
628.01        47.29752
628.44         47.2772
628.87        47.41879
629.30        47.27888
629.73        46.88953
630.16        46.67331
630.59        46.63449
631.02        46.52571
631.45        46.30093
631.88        46.00526
632.31        45.63377
632.74        45.17374
633.17        44.67916
633.60        44.24848
634.03        43.90672
634.46          43.573
634.89        43.36461
635.32              43
635.75        42.54287
636.18        42.17934
636.61        41.89975
637.04        41.53878
637.47        41.09428
637.89        40.65389
638.32        40.22474
638.75         39.8433
639.18        39.53244
639.61        39.13142
640.04        38.92843
640.47        38.66916
640.90        38.43472
641.33        38.21395
641.76        38.00719
642.18        37.86885
642.61        37.80208
643.04        37.71118
643.47         37.5491
643.90        37.77315
644.33        37.56394
644.76         37.5274
645.18         37.4695
645.61        37.61017
646.04        37.89697
646.47        38.01675
646.90        37.98746
647.33        38.09503
647.75        38.34529
648.18        38.55754
648.61        38.74094
649.04        38.95622
649.47        39.20264
649.89        39.58813
650.32        40.04257
650.75        40.20268
651.18        40.17703
651.61        40.58308
652.03        41.40562
652.46        41.99814
652.89         42.2822
653.32        42.64085
653.74        43.22121
654.17        43.37031
654.60        43.88423
655.03        44.61346
655.46         44.6007
655.88        45.02636
656.31        50.26033
656.74        49.15303
657.16        45.23731
657.59        44.96543
658.02        46.63452
658.45        47.19551
658.87        47.48768
659.30        47.47737
659.73        47.76553
660.15        48.48179
660.58        48.48139
661.01        48.64044
661.44        48.70719
661.86        48.98788
662.29        49.48082
662.72         49.9761
663.14         50.4082
663.57        50.66304
664.00        50.76956
664.42        50.91405
664.85        51.12445
665.27        51.26337
665.70        51.35667
666.13         51.5131
666.55        51.75098
666.98        52.03556
667.41        52.34465
667.83        52.63581
668.26        52.87885
668.69        53.08706
669.11        53.26903
669.54        53.45994
669.96        53.65845
670.39        53.80093
670.82        53.90488
671.24        54.03632
671.67        54.20086
672.09        54.36115
672.52        54.50715
672.94        54.59833
673.37        54.63589
673.80        54.62867
674.22        54.62824
674.65        54.68961
675.07        54.84436
675.50        55.06767
675.92         55.3136
676.35        55.51499
676.77        55.65833
677.20        55.71286
677.62        55.74192
678.05        55.93494
678.47        56.24838
678.90        56.46444
679.32        56.46699
679.75         56.5674
680.17        56.71816
680.60        56.83279
681.02        56.94049
681.45        56.99187
681.87        56.97541
682.30        57.47643
682.72        57.44529
683.15        57.63107
683.57        57.72975
684.00        57.84028
684.42        57.97784
684.85           58.11
685.27        58.22746
685.70         58.4331
686.12        58.65391
686.54        58.56512
686.97        58.24033
687.39        58.23816
687.82        58.51714
688.24        58.47644
688.66        58.18245
689.09        58.26586
689.51        58.71935
689.94        59.03386
690.36        59.18571
690.78        59.40197
691.21        59.70275
691.63        60.03537
692.06        60.38694
692.48        60.74733
692.90        61.05568
693.33        61.23505
693.75         61.2718
694.17        61.11931
694.60        60.89782
695.02        60.84557
695.44        60.94546
695.87        61.08588
696.29        61.19236
696.71        60.95057
697.14        60.54177
697.56        60.75855
697.98        61.50842
698.41        61.93093
698.83        61.97082
699.25        62.11996
699.68        62.37407
700.10         62.5514
700.52        62.64106
700.94         62.6464
701.37        62.60998
701.79        62.72306
702.21        62.93601
702.64        63.05244
703.06        63.06081
703.48        63.00866
703.90        62.88415
704.33        63.06604
704.75        62.79244
705.17        62.81524
705.59        62.91364
706.01        63.06169
706.44        63.25666
706.86        63.50795
707.28        63.78452
707.70        64.14153
708.12        64.48859
708.55         64.5156
708.97        64.28038
709.39        64.20276
709.81        64.32229
710.23        64.37432
710.66        64.36868
711.08        64.50694
711.50        64.74754
711.92         64.9337
712.34         65.0433
712.76        65.12138
713.19         65.1636
713.61        65.20889
714.03        65.24817
714.45         65.2683
714.87        65.28858
715.29        65.34389
715.71         65.4407
716.13        65.57725
716.56        65.70429
716.98         65.8184
717.40        65.88081
717.82        65.89818
718.24        65.91431
718.66        66.00216
719.08        66.17262
719.50        66.40078
719.92        66.62224
720.34        66.73032
720.76        66.69746
721.19        66.57751
721.61        66.45026
722.03        66.37331
722.45        66.37024
722.87        66.66856
723.29        66.78489
723.71        66.97925
724.13        67.09126
724.55        67.14303
724.97        67.18533
725.39        67.30945
725.81        67.53012
726.23        67.81125
726.65          68.049
727.07         68.0808
727.49        67.88462
727.91        67.52324
728.33        67.14397
728.75        66.97823
729.17        67.07867
729.59        67.37286
730.01        67.74076
730.43        67.97051
730.85         68.0004
731.27        67.91084
731.69        67.75867
732.10        67.63133
732.52        67.56292
732.94        67.50703
733.36        67.51006
733.78        67.61707
734.20        67.82094
734.62        68.23277
735.04        68.70991
735.46        68.74637
735.88        68.45385
736.30        68.48914
736.72        68.84557
737.13        69.14409
737.55        69.23737
737.97        68.96281
738.39        68.49049
738.81        68.46163
739.23        68.90642
739.65        69.23959
740.06        69.44115
740.48         69.5908
740.90         69.6723
741.32        69.58492
741.74         69.3909
742.16        69.24464
742.57         69.1833
742.99        69.23262
743.41        69.38091
743.83         69.3953
744.25        69.35327
744.67        69.73524
745.08        70.39375
745.50        70.56715
745.92        70.18934
746.34        69.63013
746.75        69.13429
747.17        68.79576
747.59        68.64189
748.01        69.04952
748.42        69.93489
748.84        69.25133
749.26        69.56976
749.68         69.5657
750.09        69.96607
750.51           70.25
750.93        70.36493
751.35        70.37469
751.76        70.31101
752.18        70.34157
752.60          70.487
753.01        70.65123
753.43        70.78037
753.85        70.89221
754.27        70.98006
754.68        71.03968
755.10        71.09832
755.52        71.20033
755.93        71.33893
756.35        71.47558
756.77        71.59311
757.18        71.64408
757.60        71.64032
758.02        71.65267
758.43        71.72662
758.85        71.50364
759.26        70.90911
759.68        70.78717
760.10        71.35055
760.51        71.75764
760.93        71.71679
761.34        71.90268
761.76        72.16735
762.18        71.62599
762.59         70.6459
763.01        70.86789
763.42        72.16837
763.84        72.64923
764.26        72.20027
764.67        71.70235
765.09        71.44191
765.50        71.63453
765.92        72.18701
766.33         72.3225
766.75        71.94708
767.16        71.89272
767.58        72.15005
768.00        72.20413
768.41         72.1683
768.83        72.69278
769.24        73.56307
769.66        73.92308
770.07        73.69433
770.49        73.15028
770.90        72.53201
771.32        72.41898
771.73        72.77157
772.15        72.81882
772.56        72.55061
772.97        72.50939
773.39        72.70518
773.80         72.9084
774.22        73.06481
774.63        73.28631
775.05        73.49391
775.46         73.6312
775.88        73.65559
776.29        73.60368
776.70        73.51806
777.12        73.50861
777.53        73.60929
777.95         73.7483
778.36        73.89689
778.77        73.95763
779.19        73.91716
779.60        73.90177
780.02         73.8671
780.43        73.65321
780.84        73.40025
781.26        73.20427
781.67        73.13694
782.09        73.72741
782.50        74.68696
782.91        74.08674
783.33        73.25914
783.74        72.93262
784.15         73.5444
784.57        74.09705
784.98        74.51352
785.39        74.95451
785.81         75.3324
786.22        75.57236
786.63        76.07555
787.04         75.6378
787.46        75.47898
787.87        75.26891
788.28        75.37602
788.70        75.44229
789.11        75.44624
789.52        75.76989
789.93        76.23689
790.35        76.12506
790.76        75.54324
791.17        75.30598
791.58        75.46321
792.00        75.43337
792.41        75.23652
792.82        75.27291
793.23        75.45953
793.65        75.47123
794.06        75.33247
794.47        75.10941
794.88        74.87135
795.29        75.22772
795.71        75.14416
796.12        75.54372
796.53        75.98566
796.94        76.13765
797.35        75.92803
797.76         75.5981
798.18         75.3356
798.59        75.24667
799.00        75.39781
799.41         75.7719
799.82        76.25208
800.23        76.60699
800.64        76.75942
801.06        76.75494
801.47        76.65826
801.88        76.47551
802.29        76.24271
802.70        75.95077
803.11        75.68189
803.52        75.57293
803.93        75.66164
804.34        75.92526
804.75        76.27312
805.17        76.57874
805.58        76.84203
805.99        76.85896
806.40         76.7065
806.81         76.9843
807.22         77.5055
807.63        77.18056
808.04        76.18527
808.45        75.77325
808.86        76.05623
809.27        76.36536
809.68        76.57547
810.09        76.77116
810.50        76.89637
810.91        76.93427
811.32        76.91221
811.73        76.87778
812.14        76.85555
812.55        76.83193
812.96        76.84177
813.37        76.94316
813.78        77.13855
814.19        77.40897
814.60        77.68804
815.01        77.87086
815.42        77.93208
815.83        77.89708
816.24        77.80277
816.65        77.70848
817.05        77.62109
817.46        77.58702
817.87         77.6509
818.28         77.5451
818.69        77.19332
819.10        77.80187
819.51        77.29098
819.92        77.35857
820.33         77.3739
820.74         77.3898
821.14        77.35473
821.55         77.2627
821.96        77.12601
822.37          76.952
822.78        76.81268
823.19        76.82697
823.60        77.03094
824.00        77.40832
824.41        77.85788
824.82        78.32936
825.23        78.76341
825.64        79.13226
826.04        79.42048
826.45        79.52806
826.86        79.46985
827.27        79.28299
827.68        78.94558
828.08        78.45008
828.49        77.80415
828.90        77.05334
829.31        76.41506
829.72        76.21275
830.12        76.54221
830.53        77.29335
830.94        78.16502
831.35        78.54964
831.75        78.30365
832.16        77.55082
832.57        76.73408
832.97        76.53125
833.38        77.06693
833.79        78.10992
834.20        79.27894
834.60        79.92773
835.01        79.83239
835.42        79.24099
835.82        78.40258
836.23        77.68724
836.64        77.24041
837.04        76.96924
837.45        76.85078
837.86        76.92616
838.26         77.1795
838.67        77.56918
839.08        78.00207
839.48        78.27393
839.89        78.31068
840.29        78.16242
840.70        77.88276
841.11         77.5347
841.51        77.18852
841.92        76.82207
842.33        76.55898
842.73         76.6067
843.14         76.9452
843.54        77.56351
843.95         78.2672
844.35        78.79986
844.76        79.02528
845.17        78.99206
845.57        78.78819
845.98        78.55514
846.38        78.37011
846.79        78.18766
847.19        77.98685
847.60        77.65224
848.00        77.21967
848.41        76.73685
848.81        76.37534
849.22        76.36021
849.62        76.73917
850.03        77.40185
850.43        78.15796
850.84         78.5191
851.24        78.42776
851.65        77.97547
852.05        77.43103
852.46        77.20779
852.86        77.39234
853.27        77.82893
853.67        78.34551
854.07        78.91549
854.48        79.42808
854.88        80.03517
855.29         80.4103
855.69        80.24185
856.10        79.36864
856.50        78.01413
856.90        76.65275
857.31        75.97999
857.71        76.12704
858.12        76.85571
858.52        77.89938
858.92        78.50148
859.33        78.38555
859.73        77.81572
860.13        76.96381
860.54        76.13541
860.94         75.4653
861.34        74.85104
861.75        74.36859
862.15        74.22082
862.55        74.41331
862.96        74.90333
863.36         75.5291
863.76         75.9107
864.17         75.9444
864.57        75.72906
864.97         75.4064
865.38        75.23849
865.78        75.32758
866.18        75.55676
866.58        75.82401
866.99        75.95584
867.39        75.93631
867.79        75.84102
868.19        75.67973
868.60        75.41978
869.00        75.07316
869.40        74.63634
869.80        74.29363
870.21        74.37926
870.61        74.99413
871.01        75.95794
871.41        76.88584
871.81        77.20177
872.22        76.78947
872.62        75.83381
873.02         74.6826
873.42        73.91651
873.82        73.73598
874.22        74.00974
874.63        74.53561
875.03         74.9772
875.43         75.2316
875.83        75.38892
876.23          75.597
876.63        76.08518
877.03        76.86269
877.44        77.77047
877.84        78.58133
878.24        78.88341
878.64        78.59351
879.04        77.88957
879.44        77.00135
879.84        76.26904
880.24        75.80579
880.64        75.51552
881.04         75.4191
881.44        75.52843
881.84         75.8241
882.24        76.35439
882.65        76.88596
883.05        77.10766
883.45        76.89536
883.85        76.31222
884.25        75.73904
884.65         75.7584
885.05        76.46447
885.45        77.69909
885.85        78.98051
886.25        79.48274
886.65        78.98444
887.05         77.7128
887.45        76.25307
887.85        75.51621
888.25        75.72803
888.65         76.6574
889.04         77.7188
889.44        77.94086
889.84         77.1386
890.24        75.63486
890.64         74.1329
891.04        73.64022
891.44        74.34166
891.84        75.93476
892.24         77.6855
892.64        78.35266
893.04        77.64444
893.44        75.97662
893.83        74.18621
894.23        73.53734
894.63        74.26831
895.03        75.97819
895.43        77.95332
895.83         78.9003
896.23        78.45358
896.63        77.12372
897.02        75.48242
897.42        74.43172
897.82        74.13678
898.22        74.35526
898.62        74.91893
899.01         75.5951
899.41        76.19823
899.81        76.82862
900.21        77.51021
900.61        78.24986
901.00        79.00415
901.40        79.66888
901.80        80.08516
902.20        80.05805
902.59        79.59172
902.99        78.78732
903.39         77.8915
903.79        77.29626
904.18        77.09801
904.58        77.21162
904.98        77.49729
905.38        77.73118
905.77        77.83906
906.17        77.93477
906.57         77.9639
906.96        77.85241
907.36        77.59631
907.76        77.19742
908.15        76.90513
908.55        77.09032
908.95        77.81617
909.34        78.96927
909.74         80.1275
910.14        80.67828
910.53        80.46179
910.93        79.66805
911.33        78.65325
911.72        77.98327
912.12        77.84428
912.52        78.07239
912.91        78.44301
913.31        78.57185
913.70        78.36378
914.10        77.96432
914.49        77.56757
914.89        77.43765
915.29        77.63844
915.68        78.05625
916.08        78.53284
916.47        78.84647
916.87        78.91505
917.26        78.81053
917.66        78.61748
918.05        78.45018
918.45        78.34348
918.84        78.30898
919.24        78.30164
919.64        78.33627
920.03        78.42876
920.42        78.55818
920.82        78.75323
921.21        79.07211
921.61        79.46963
922.00        79.91647
922.40        80.26905
922.79        80.37064
923.19        80.15824
923.58        79.70404
923.98        79.09972
924.37        78.38815
924.77        77.66287
925.16        76.94077
925.55        76.35424
925.95        76.08669
926.34        76.21856
926.74        76.64883
927.13        77.37553
927.52        78.28005
927.92        79.24667
928.31        80.26089
928.70        81.10085
929.10        81.45481
929.49        81.28539
929.89         80.6647
930.28        79.83009
930.67        79.14481
931.07         78.7356
931.46        78.52795
931.85        78.50519
932.24        78.61795
932.64        78.81583
933.03        79.16434
933.42        79.47325
933.82        79.45156
934.21        79.05961
934.60         78.3544
934.99        77.67785
935.39        77.53304
935.78        78.05456
936.17        79.13182
936.56        80.31725
936.96        80.79226
937.35        80.37253
937.74        79.24545
938.13        77.98926
938.53        77.36994
938.92        77.48935
939.31        78.18819
939.70        78.99451
940.09        79.06422
940.49        78.21896
940.88        76.79167
941.27        75.38521
941.66        74.88407
942.05        75.47826
942.44        76.89989
942.84        78.63386
943.23        79.81876
943.62        80.06728
944.01        79.64947
944.40        78.91349
944.79        78.42555
945.18        78.37421
945.57        78.55611
945.97        78.86221
946.36        79.24368
946.75        79.61216
947.14        80.02312
947.53        80.39627
947.92        80.54773
948.31        80.43407
948.70        80.10149
949.09        79.66486
949.48        79.30459
949.87        79.10242
950.26        79.06573
950.65        79.18343
951.04        79.42712
951.43        79.75765
951.82        80.10793
952.21        80.53743
952.60        81.16167
952.99        81.93634
953.38        82.79117
953.77        83.36781
954.16        83.05569
954.55        81.80729
954.94        79.94808
955.33        78.01051
955.72        76.79878
956.11        76.51772
956.50         76.8795
956.89         77.7406
957.28        78.85226
957.66        80.08055
958.05        81.38352
958.44        82.32793
958.83        82.08447
959.22        80.57623
959.61        78.14711
960.00        75.63242
960.39        74.22611
960.78        74.17249
961.16        75.17914
961.55        76.73355
961.94        78.04915
962.33        78.79907
962.72        79.18494
963.11        79.24664
963.49        79.08949
963.88        78.75799
964.27        78.24039
964.66        77.64838
965.04        77.17642
965.43        76.85957
965.82        76.65237
966.21        76.60707
966.60        76.76759
966.98        77.12398
967.37        77.65012
967.76        78.08957
968.15        77.99199
968.53        77.30436
968.92        76.15419
969.31        74.97845
969.69         74.4814
970.08        74.76445
970.47         75.6114
970.86          76.636
971.24        77.13244
971.63        76.80433
972.02         75.9616
972.40        74.79622
972.79        73.62841
973.17        72.65314
973.56        71.80914
973.95         71.2769
974.33         71.3611
974.72        72.01653
975.11        73.11709
975.49        74.49982
975.88        75.71719
976.26        76.59692
976.65        77.16553
977.04        77.16248
977.42        76.18776
977.81        74.32735
978.19         71.7524
978.58        69.59257
978.96        69.30151
979.35        71.11562
979.74        74.74383
980.12        79.22891
980.51         81.9276
980.89        82.11138
981.28         80.2807
981.66        77.60535
982.05        76.13826
982.43        76.42918
982.82         77.8086
983.20        79.83148
983.59        81.54719
983.97        82.67221
984.35        83.49823
984.74        83.78638
985.12        83.24358
985.51        81.88773
985.89        79.73721
986.28        77.53593
986.66        76.36366
987.04        76.57671
987.43        77.89776
987.81        79.61012
988.20        80.22974
988.58        79.41321
988.96        77.45513
989.35        75.27075
989.73        74.30183
990.12        74.84786
990.50        76.53506
990.88        78.33342
991.27        78.59375
991.65        77.04932
992.03        74.30125
992.42        71.52472
992.80        70.24603
993.18        70.95979
993.56        73.14713
993.95        75.94384
994.33         78.1658
994.71        79.12186
995.10        79.13409
995.48        78.53584
995.86        77.87666
996.24        77.40755
996.63        76.95494
997.01        76.39765
997.39        75.59059
997.77        74.52402
998.15          73.313
998.54        72.25053
998.92        71.84098
999.30        72.22693
999.68        73.31019
1000.06        74.61395
1000.45        75.24921
1000.83        75.09175
1001.21        74.25911
1001.59        73.25986
1001.97        73.03229
1002.35        73.79933
1002.73        75.18873
1003.12        76.70319
1003.50        77.48319
1003.88        77.33902
1004.26        76.67332
1004.64        75.67043
1005.02        74.54311
1005.40        73.44415
1005.78        72.26527
1006.16        71.42948
1006.54        71.70856
1006.92        73.16499
1007.30        75.50426
1007.69        77.80953
1008.07          78.794
1008.45        78.04339
1008.83        76.02058
1009.21        73.34251
1009.59        71.08121
1009.97        69.70148
1010.35        68.95118
1010.73        69.00053
1011.11        70.09887
1011.49        72.24645
1011.86        75.66415
1012.24         79.4771
1012.62        82.42265
1013.00        83.93083
1013.38        83.92483
1013.76        83.14714
1014.14        83.23515
1014.52        84.65289
1014.90        87.00747
1015.28        88.99367
1015.66         88.3614
1016.04        85.01514
1016.41        80.28271
1016.79        75.95526
1017.17        73.42815
1017.55         72.6769
1017.93        73.26838
1018.31        74.61798
1018.69         74.9492
1019.06        73.61036
1019.44        71.71024
1019.82        70.12965
1020.20        69.43092
1020.58        69.60204
1020.95        70.33216
1021.33        71.82413
1021.71        74.03249
1022.09        76.54932
1022.46        79.09938
1022.84        81.06421
1023.22         82.0479
1023.60        82.00538
1023.97         81.0957
1024.35        79.27297
1024.73         76.6744
