SpectraSmart Spectrum 2.9.0.0
--------- Device Information -----------
Spectrum Name :  反射率_0
Saving Time :  2024/05/01 17:05:38
Spectro-Module Model Name : SE2030-DUVN
Spectro-Module Serial Number : OS361AC55029948
Wavelength Start : 200
Wavelength End : 1025
Wavelength Unit : Wavelength(nm)
Spectrum Unit : Reflectance(%)
-----------Spectrum Setting ------------
Integration Time : 20ms
Average : 10
Boxcar : 0
Background removal :  enabled
linearity correction :  enabled
SC :  disabled
Intensity correction :  disabled
DWT denoise :  enabled
savitzky-golay :  disabled
FFT :  disabled
Running average :  disabled
Kalman :  disabled
High pass :  disabled
---------------BEGIN--------------------
Wavelength(nm)             Reflectance(%)
200.29               0
200.75         179.489
201.21        634.0494
201.67       -210.3585
202.13       -59.51271
202.58       -15.70279
203.04        8.792802
203.50        23.34433
203.96        29.56506
204.42        29.28757
204.88        16.67972
205.34       -342.8505
205.80        83.99877
206.26         50.3031
206.72        12.56207
207.18       -148.6854
207.64        293.9633
208.10        131.7453
208.55        89.02839
209.01        67.13502
209.47        57.61035
209.93        55.43237
210.39        55.80006
210.85         58.3704
211.31        64.53256
211.77        85.24841
212.23       -91.13036
212.69        20.36486
213.14         42.5923
213.60        93.86581
214.06       -428.5742
214.52       -63.16361
214.98       -35.72201
215.44       -23.15298
215.90       -4.201346
216.36        250.5864
216.81       -158.1601
217.27        -234.966
217.73        497.5759
218.19        95.09729
218.65         57.6367
219.11        50.00603
219.57        57.16851
220.02        106.2279
220.48        72.58372
220.94        45.69963
221.40        39.77017
221.86        39.55437
222.32        43.08672
222.77        50.27651
223.23         62.1609
223.69        77.56848
224.15        84.63469
224.61        78.69403
225.06        67.99068
225.52        60.45591
225.98        58.54034
226.44        61.49136
226.90        68.81773
227.36        78.96465
227.81        84.10089
228.27        81.02878
228.73        74.60259
229.19        69.69592
229.65        69.24385
230.10        72.92619
230.56        80.05514
231.02        88.69151
231.48        92.73093
231.93        89.60938
232.39        83.13683
232.85        76.59309
233.31          72.804
233.77        71.78235
234.22        72.19615
234.68        73.53951
235.14        75.39745
235.60        77.77501
236.05        81.52825
236.51         86.5768
236.97        91.38455
237.43        93.79408
237.88        92.80114
238.34        89.44723
238.80        87.05352
239.26        86.47525
239.71         87.9977
240.17        89.89719
240.63        86.53598
241.08        75.36136
241.54        61.30821
242.00        51.49464
242.46        49.70016
242.91         56.4049
243.37        73.16148
243.83        102.9744
244.28        126.2195
244.74        119.7177
245.20        100.7334
245.66        83.96353
246.11        72.37173
246.57        62.86543
247.03        51.14286
247.48        32.90027
247.94        8.395901
248.40       -13.38081
248.85       -27.31624
249.31        -25.9313
249.77        -9.90914
250.22        10.94153
250.68        30.62827
251.14        44.42022
251.59        49.92844
252.05        47.94724
252.51        35.89164
252.96        4.481637
253.42       -31.95635
253.88       -6.361925
254.33        46.03929
254.79        71.76452
255.25        77.48811
255.70        75.18549
256.16        71.58639
256.62        68.98537
257.07        68.91034
257.53         70.9982
257.99        73.44757
258.44        75.41319
258.90         76.9033
259.35         77.5567
259.81        78.00263
260.27        78.01443
260.72        77.33572
261.18        76.42622
261.63        75.12766
262.09        73.98833
262.55        73.07903
263.00        72.28114
263.46        71.72043
263.91        71.13455
264.37         70.6446
264.83        70.13709
265.28        69.59354
265.74        69.08675
266.19        68.35427
266.65         67.5229
267.11        66.55373
267.56        65.61911
268.02        65.11789
268.47        65.03625
268.93        65.21502
269.38        65.36133
269.84        64.95696
270.30        63.91904
270.75        62.43105
271.21        60.77103
271.66        59.20606
272.12        57.91454
272.57        56.73783
273.03        55.77481
273.48         55.0849
273.94        54.67435
274.39        54.45943
274.85        54.24905
275.31        53.64467
275.76        52.58929
276.22          51.302
276.67        49.95934
277.13        48.98496
277.58        48.34992
278.04        47.96677
278.49        47.62956
278.95        47.19534
279.40        46.54774
279.86        45.82905
280.31        45.00586
280.77          44.171
281.22        43.28728
281.68        42.42679
282.13        41.55833
282.59        40.77776
283.04        40.04855
283.50        39.40796
283.95        38.83575
284.41        38.38259
284.86        38.01929
285.32        37.75282
285.77        37.51626
286.22        37.27368
286.68        37.00652
287.13        36.69781
287.59        36.35307
288.04        35.94263
288.50        35.51702
288.95         35.0498
289.41        34.63527
289.86        34.30262
290.32        34.08697
290.77        33.95029
291.22        33.84516
291.68        33.68314
292.13        33.44365
292.59        33.19145
293.04        32.96058
293.50        32.86381
293.95        32.90458
294.40        33.04926
294.86        33.27602
295.31        33.56292
295.77        33.87854
296.22        34.21091
296.68        34.50143
297.13        34.63749
297.58        34.62662
298.04        34.53238
298.49        34.42722
298.95        34.47234
299.40        34.68847
299.85        35.02124
300.31        35.45798
300.76        35.96592
301.21         36.5169
301.67        37.12263
302.12         37.6502
302.58        37.92623
303.03        37.90819
303.48        37.67268
303.94        37.43142
304.39        37.42539
304.84        37.72282
305.30        38.23313
305.75        38.78005
306.20        39.11105
306.66        39.17113
307.11        39.02298
307.57        38.79698
308.02        38.62302
308.47        38.55733
308.93        38.55943
309.38        38.55316
309.83         38.4808
310.29        38.33475
310.74        38.13963
311.19        37.94186
311.65        37.79167
312.10        37.69561
312.55        37.63832
313.00        37.60151
313.46        37.55816
313.91        37.48959
314.36        37.39781
314.82        37.28204
315.27        37.15654
315.72         37.0156
316.18        36.85861
316.63        36.65895
317.08        36.38874
317.53        36.04692
317.99        35.65233
318.44        35.23664
318.89        34.86533
319.35        34.56478
319.80        34.32478
320.25         34.1304
320.70        33.94817
321.16        33.75937
321.61        33.58055
322.06         33.4127
322.51          33.262
322.97        33.12067
323.42        32.99067
323.87         32.8536
324.32        32.69613
324.78        32.50905
325.23        32.30664
325.68        32.09267
326.13        31.88175
326.59        31.66842
327.04        31.46226
327.49        31.24715
327.94        31.00667
328.39        30.73918
328.85        30.44603
329.30        30.15616
329.75        29.88184
330.20        29.63214
330.66        29.39448
331.11        29.18843
331.56        29.01014
332.01        28.85736
332.46        28.73345
332.92        28.60461
333.37         28.4473
333.82        28.24711
334.27        28.01786
334.72        27.80522
335.17        27.69307
335.63        27.69179
336.08        27.78508
336.53         27.9202
336.98         28.0261
337.43        28.07407
337.88        28.08295
338.34        28.03267
338.79        27.91321
339.24        27.72623
339.69        27.47638
340.14        27.23262
340.59         27.1048
341.05        27.10849
341.50        27.22562
341.95        27.37282
342.40        27.40972
342.85        27.30527
343.30        27.10796
343.75        26.89384
344.20        26.78188
344.66        26.80194
345.11        26.90026
345.56        27.03669
346.01        27.14231
346.46        27.18852
346.91        27.19902
347.36        27.16497
347.81         27.0726
348.26        26.93034
348.72        26.74977
349.17        26.55618
349.62        26.43167
350.07        26.38862
350.52        26.40144
350.97        26.42367
351.42        26.37309
351.87        26.23562
352.32        26.05532
352.77         25.8485
353.22        25.64135
353.67        25.44936
354.13         25.2604
354.58        25.11622
355.03        25.11647
355.48        25.26476
355.93          25.542
356.38        25.80374
356.83        25.80688
357.28        25.51224
357.73        25.00234
358.18        24.48421
358.63        24.26736
359.08        24.40589
359.53        24.79626
359.98        25.25525
360.43           25.47
360.88        25.35229
361.33        25.01227
361.78        24.57878
362.23        24.23866
362.68         24.0471
363.13        23.93818
363.58        23.88119
364.03        23.83485
364.48        23.77394
364.93        23.71562
365.38        23.63903
365.83        23.50244
366.28        23.29859
366.73        23.03491
367.18        22.73449
367.63        22.44444
368.08        22.19069
368.53        21.97505
368.98        21.79579
369.43         21.6428
369.88        21.50494
370.33        21.37325
370.78         21.2587
371.23        21.18083
371.68        21.13897
372.13        21.13041
372.58         21.0928
373.03        20.93121
373.48        20.63563
373.93        20.23342
374.38        19.83759
374.83        19.63834
375.28        19.67557
375.72        19.88578
376.17        20.13363
376.62        20.20618
377.07        20.05486
377.52        19.74584
377.97        19.38585
378.42        19.14248
378.87        19.05974
379.32        19.08324
379.77        19.13846
380.22        19.11422
380.67        18.98412
381.11        18.79195
381.56        18.59359
382.01         18.4808
382.46        18.47722
382.91        18.54776
383.36        18.63562
383.81         18.6598
384.26        18.59592
384.71        18.46281
385.15        18.29967
385.60        18.18555
386.05        18.13254
386.50        18.12472
386.95        18.10963
387.40          18.008
387.85        17.81756
388.29        17.56281
388.74        17.35159
389.19        17.27708
389.64        17.34956
390.09        17.51948
390.54        17.71463
390.98        17.81742
391.43        17.80031
391.88        17.70805
392.33        17.56861
392.78        17.42957
393.23        17.31117
393.67        17.16908
394.12         17.0502
394.57        17.04055
395.02        17.11741
395.47        17.15478
395.91        17.13423
396.36        17.11513
396.81        17.09899
397.26        17.03854
397.71        16.94991
398.15        16.90051
398.60          16.917
399.05        16.90394
399.50        16.87442
399.95        16.97396
400.39        17.14548
400.84        17.08706
401.29        16.81744
401.74        16.64369
402.18        16.59197
402.63        16.48156
403.08        16.34083
403.53        16.28978
403.97        16.33034
404.42         16.4322
404.87        16.53096
405.32        16.52233
405.76        16.38526
406.21        16.16276
406.66        15.92899
407.11        15.80314
407.55        15.81939
408.00        15.94325
408.45        16.11551
408.90        16.20658
409.34        16.18814
409.79        16.13428
410.24        16.07885
410.68        16.03384
411.13        16.01494
411.58        16.02347
412.03        16.03992
412.47         16.0268
412.92        15.97278
413.37        15.89609
413.81        15.81627
414.26        15.77163
414.71        15.76571
415.15        15.79877
415.60        15.83661
416.05        15.84041
416.49        15.80178
416.94        15.73033
417.39         15.6714
417.83        15.69678
418.28        15.81535
418.73        15.99641
419.17        16.17438
419.62        16.23952
420.07        16.17445
420.51        16.01725
420.96        15.83719
421.41        15.71748
421.85          15.677
422.30        15.69231
422.74        15.74453
423.19        15.82097
423.64        15.90524
424.08        16.01344
424.53        16.09325
424.98        16.07715
425.42        15.96036
425.87        15.77063
426.31        15.57502
426.76        15.49244
427.21        15.54089
427.65         15.6761
428.10        15.86533
428.54         16.0456
428.99        16.18908
429.44        16.33949
429.88        16.42255
430.33        16.33382
430.77        16.07854
431.22        15.71287
431.66        15.36834
432.11        15.27696
432.56        15.42524
433.00        15.70915
433.45        15.94426
433.89         15.7627
434.34        15.17415
434.78         15.1986
435.23        15.88608
435.67        16.12196
436.12        15.90158
436.57        15.82101
437.01        15.91093
437.46        15.91528
437.90        15.83361
438.35        15.76306
438.79        15.71474
439.24        15.66404
439.68        15.64288
440.13        15.76182
440.57         15.9569
441.02         16.0551
441.46        16.03509
441.91        15.87929
442.35          15.668
442.80        15.78695
443.24        16.12216
443.69        16.03341
444.13        15.59185
444.58        15.45135
445.02        15.62525
445.47        15.76661
445.91        15.83759
446.36        15.94336
446.80        16.06704
447.24        16.17466
447.69        16.25809
448.13        16.30803
448.58        16.32406
449.02        16.30749
449.47        16.27302
449.91        16.23113
450.36        16.19444
450.80        16.16172
451.25        16.13362
451.69        16.09748
452.13        16.05382
452.58        16.00891
453.02        15.96911
453.47        15.95455
453.91        15.96442
454.36        15.99635
454.80        16.02716
455.24        16.01826
455.69        15.96723
456.13         15.8766
456.58        15.79049
457.02         15.7544
457.46        15.78032
457.91        15.85131
458.35        15.92281
458.79        15.90042
459.24        15.77983
459.68        15.63584
460.13        15.54216
460.57        15.29366
461.01        15.35225
461.46        15.35899
461.90        15.42828
462.34        15.46216
462.79         15.5322
463.23        15.57461
463.68        15.61593
464.12        15.66045
464.56        15.70686
465.01        15.76883
465.45        15.80258
465.89         15.7719
466.34          15.681
466.78        15.53908
467.22        15.39111
467.67        15.34271
468.11        15.35106
468.55        15.44817
468.99        15.57634
469.44        15.67467
469.88        15.72679
470.32        15.74454
470.77        15.74076
471.21        15.73367
471.65        15.73082
472.10        15.72711
472.54        15.71633
472.98        15.70097
473.42        15.68358
473.87        15.67401
474.31        15.66855
474.75        15.67607
475.20        15.70089
475.64        15.72938
476.08        15.75338
476.52        15.80031
476.97        15.87463
477.41        15.89342
477.85        15.82537
478.29        16.06885
478.74        15.93238
479.18        15.94662
479.62        15.92066
480.06         15.9751
480.50        16.12052
480.95        16.03117
481.39        16.23479
481.83        16.24839
482.27        16.23459
482.72        16.19835
483.16        16.16504
483.60        16.19139
484.04        16.27033
484.48        16.36432
484.93        16.52938
485.37         16.7294
485.81        16.79842
486.25        17.16318
486.69        16.35166
487.14        16.00137
487.58        16.60097
488.02        17.27866
488.46        16.87988
488.90        16.83136
489.34         17.0007
489.79        16.88466
490.23        17.24769
490.67        17.54901
491.11        17.91084
491.55        17.96076
491.99         17.7552
492.43        17.72881
492.88        17.90458
493.32        18.00761
493.76        18.02645
494.20        18.10065
494.64        18.23938
495.08          18.385
495.52        18.52613
495.96        18.71405
496.41        18.92371
496.85        18.98673
497.29        18.94597
497.73        19.12494
498.17        19.47244
498.61        19.54022
499.05        19.36156
499.49        19.35635
499.93        19.54333
500.37        19.69551
500.82        19.78933
501.26        19.88337
501.70        19.97224
502.14        20.04537
502.58        20.10332
503.02        20.14659
503.46        20.18076
503.90        20.20918
504.34        20.25563
504.78        20.35569
505.22        20.51309
505.66        20.71569
506.10        20.92283
506.54        21.06668
506.98        21.12838
507.42        21.12495
507.86         21.0917
508.30        21.08565
508.74        21.12427
509.18        21.19447
509.62        21.27414
510.06        21.32609
510.50        21.34156
510.94        21.33465
511.38        21.33043
511.82        21.36629
512.26        21.44756
512.70        21.55678
513.14        21.66392
513.58        21.72405
514.02        21.72633
514.46         21.6865
514.90        21.62538
515.34         21.5769
515.78        21.55397
516.22        21.54785
516.66        21.55491
517.10        21.56877
517.54        21.58517
517.98        21.60674
518.42        21.62893
518.86        21.64187
519.30        21.64344
519.74        21.63541
520.18        21.61936
520.62        21.60031
521.06        21.57944
521.50        21.55241
521.93        21.52687
522.37        21.50978
522.81        21.50429
523.25        21.51184
523.69         21.5132
524.13        21.47682
524.57        21.40153
525.01        21.29913
525.45        21.20586
525.89        21.17869
526.32        21.22597
526.76        21.32397
527.20        21.43206
527.64        21.48457
528.08        21.46285
528.52        21.38872
528.96        21.28346
529.40        21.18101
529.83        21.09251
530.27        21.01312
530.71        20.94571
531.15        20.90105
531.59         20.8779
532.03        20.87398
532.46        20.87094
532.90         20.8408
533.34        20.78037
533.78         20.6849
534.22        20.57164
534.66        20.50315
535.09        20.46688
535.53         20.3814
535.97        20.26564
536.41         20.2225
536.85        20.25815
537.28        20.32407
537.72        20.38975
538.16        20.42711
538.60        20.42591
539.04        20.39242
539.47        20.35959
539.91        20.39156
540.35        20.49327
540.79        20.65391
541.22        20.82889
541.66        20.91589
542.10        20.95312
542.54        20.92169
542.97        20.88432
543.41        20.92588
543.85        21.06055
544.29        21.26423
544.72        21.48751
545.16        21.66468
545.60         21.7762
546.04        21.84067
546.47        21.89877
546.91        22.01955
547.35        22.21553
547.79        22.45403
548.22        22.67351
548.66        22.83334
549.10        22.92373
549.53        22.86012
549.97        22.89881
550.41        22.97808
550.84        23.17586
551.28        23.46279
551.72        23.77833
552.15        24.00007
552.59        24.11304
553.03        24.18524
553.46        24.24149
553.90        24.33353
554.34        24.47752
554.77        24.61642
555.21        24.71743
555.65        25.00033
556.08         24.9846
556.52        25.07177
556.96        25.13099
557.39        25.20411
557.83        25.30212
558.27         25.3775
558.70        25.42641
559.14        25.56802
559.57        25.57229
560.01           25.67
560.45        25.75227
560.88        25.73379
561.32        25.67023
561.75        25.58847
562.19        25.56267
562.63        25.81532
563.06        26.23439
563.50         26.2658
563.93         25.9663
564.37        25.93735
564.80        26.18631
565.24        26.38235
565.68        26.48541
566.11        26.59063
566.55        26.69905
566.98        26.77565
567.42        26.84883
567.85        26.94444
568.29        27.08021
568.72         27.2199
569.16        27.36589
569.60        27.51007
570.03        27.64469
570.47        27.69953
570.90         27.8743
571.34        27.93639
571.77        28.05877
572.21        28.11822
572.64        28.21751
573.08         28.3595
573.51        28.91002
573.95        29.10273
574.38        28.84167
574.82        28.71829
575.25        28.94957
575.69        29.03316
576.12        28.99916
576.56        29.28012
576.99        29.35363
577.42        29.18456
577.86        29.25758
578.29        29.35945
578.73        29.47677
579.16        29.16715
579.60        28.93679
580.03          28.805
580.47        28.94152
580.90        28.50504
581.33        29.00354
581.77         29.0041
582.20        28.72903
582.64        28.32906
583.07        28.56496
583.51        28.42315
583.94        28.22436
584.37        28.22182
584.81        28.37108
585.24        28.19364
585.68        27.83957
586.11        27.50517
586.54        27.77186
586.98        27.71247
587.41        27.47558
587.85        27.43263
588.28        27.47727
588.71        27.05906
589.15        27.40913
589.58        27.12091
590.01        27.28152
590.45        27.21437
590.88        27.16301
591.31        27.24276
591.75        27.41619
592.18        27.35867
592.61        27.03181
593.05        27.28098
593.48        27.16692
593.91        27.09414
594.35         27.2091
594.78        27.35276
595.21        27.61455
595.65        27.70879
596.08        27.65876
596.51        28.00846
596.94        28.15456
597.38        28.44356
597.81        28.72529
598.24        28.52766
598.68         29.0606
599.11        29.09512
599.54        29.62843
599.97        29.66817
600.41         30.2156
600.84        30.50714
601.27        30.90672
601.70        31.40966
602.14         31.8201
602.57        32.17875
603.00        32.43292
603.43        32.64764
603.87        33.07303
604.30        33.39977
604.73        33.75265
605.16        33.96189
605.60        34.39468
606.03        34.91707
606.46        35.48471
606.89         35.8465
607.32        36.03378
607.76        36.33096
608.19        36.73564
608.62        37.38657
609.05        37.78668
609.48        38.11146
609.92        38.29885
610.35         38.5227
610.78        39.20753
611.21        39.60641
611.64        39.84132
612.07        40.16934
612.50         40.5926
612.94        40.83025
613.37         40.8942
613.80        41.26237
614.23        41.32133
614.66        41.82069
615.09        41.91413
615.52        42.22749
615.96        42.54115
616.39        42.85352
616.82        43.18546
617.25        43.38144
617.68        43.83511
618.11        44.02812
618.54         44.0909
618.97         44.1464
619.40        44.26287
619.84        44.39778
620.27         44.5691
620.70        44.93497
621.13        45.43271
621.56        45.36625
621.99        45.46072
622.42         45.4734
622.85        45.62543
623.28        45.77256
623.71        45.61819
624.14        45.86245
624.57        45.95645
625.00        46.00224
625.43         45.8506
625.86        45.67831
626.29        45.52538
626.72         45.1463
627.15        45.10692
627.58        44.84792
628.01        44.53555
628.44        44.53703
628.87        44.80991
629.30        44.15872
629.73        43.92891
630.16        43.60049
630.59        43.41269
631.02        43.22216
631.45         42.9496
631.88        42.63109
632.31        42.24312
632.74        41.79434
633.17        41.32259
633.60        40.88297
634.03         40.4912
634.46        40.13752
634.89        39.79005
635.32        39.39447
635.75        38.94166
636.18        38.45343
636.61        37.96442
637.04        37.52583
637.47        37.15032
637.89        36.81226
638.32         36.4701
638.75        36.11727
639.18        35.75538
639.61        35.25393
640.04        34.90508
640.47        34.53111
640.90        34.22218
641.33        33.95467
641.76        33.72343
642.18        33.56713
642.61        33.48264
643.04        33.39035
643.47        33.24087
643.90        33.42325
644.33        33.20908
644.76        33.13686
645.18        33.04189
645.61        33.13366
646.04        33.36986
646.47        33.46974
646.90          33.452
647.33        33.57161
647.75        33.83806
648.18         34.0969
648.61        34.34084
649.04        34.62078
649.47        34.93641
649.89        35.31505
650.32        35.72925
650.75        36.06726
651.18        36.34048
651.61        36.75906
652.03        37.35423
652.46        37.82056
652.89        38.18186
653.32        38.86175
653.74        39.86177
654.17        40.21146
654.60        40.71051
655.03        41.26707
655.46        41.09187
655.88        41.84855
656.31        46.78463
656.74        44.96521
657.16         41.9435
657.59        42.33901
658.02        44.11583
658.45        44.86185
658.87        45.25281
659.30        45.04921
659.73        45.83564
660.15        46.79158
660.58          46.479
661.01        46.82995
661.44        47.32602
661.86        47.68689
662.29         47.9365
662.72        48.26666
663.14        48.72323
663.57        49.24276
664.00        49.75736
664.42        50.11423
664.85        50.30363
665.27         50.3997
665.70        50.47206
666.13        50.59544
666.55        50.80742
666.98        51.08949
667.41        51.40994
667.83        51.70575
668.26        51.94281
668.69        52.14288
669.11        52.32364
669.54         52.5307
669.96        52.76593
670.39        52.96428
670.82        53.12661
671.24        53.29494
671.67        53.46887
672.09        53.61233
672.52        53.74577
672.94        53.87611
673.37        54.01186
673.80        54.15236
674.22        54.29157
674.65        54.38897
675.07        54.45525
675.50        54.49195
675.92        54.54103
676.35        54.66022
676.77        54.86235
677.20        55.12103
677.62         55.3935
678.05        55.59717
678.47        55.71032
678.90        55.76589
679.32         55.7948
679.75        55.85043
680.17        55.94225
680.60        56.08155
681.02        56.27076
681.45        56.34063
681.87        56.53847
682.30        56.68546
682.72          56.848
683.15        56.92739
683.57        56.94984
684.00        57.02697
684.42        57.16104
684.85        57.27386
685.27        57.35069
685.70         57.4728
686.12         57.6177
686.54        57.67086
686.97        57.64367
687.39        57.74785
687.82        57.94159
688.24        57.91103
688.66        57.72573
689.09        57.83629
689.51        58.22931
689.94        58.47818
690.36        58.56726
690.78        58.70959
691.21        58.94645
691.63          59.237
692.06        59.58386
692.48        60.02398
692.90        60.45144
693.33        60.66196
693.75        60.62418
694.17        60.34879
694.60        60.00892
695.02        59.90583
695.44        60.04018
695.87        60.29384
696.29        60.55067
696.71        60.38778
697.14        59.98142
697.56        60.23208
697.98        61.03251
698.41        61.42017
698.83        61.34239
699.25        61.34762
699.68        61.45149
700.10        61.52198
700.52        61.57378
700.94        61.53327
701.37        61.41942
701.79        61.77704
702.21        61.91442
702.64        62.14275
703.06        62.24355
703.48        62.25288
703.90        62.14228
704.33        62.29826
704.75        62.00489
705.17        61.96004
705.59        61.94244
706.01        62.10696
706.44        62.48766
706.86         62.2574
707.28        62.84105
707.70        63.06332
708.12        63.30268
708.55        63.43244
708.97        63.44378
709.39        63.35223
709.81        63.20826
710.23        63.14866
710.66         63.2065
711.08        63.36147
711.50        63.54881
711.92        63.67773
712.34        63.72517
712.76        63.72103
713.19        63.69293
713.61        63.73062
714.03        63.83237
714.45        63.96767
714.87         64.1114
715.29         64.2297
715.71        64.31135
716.13        64.37132
716.56        64.39101
716.98        64.42001
717.40        64.44074
717.82        64.44957
718.24         64.4668
718.66        64.52774
719.08        64.63467
719.50        64.77295
719.92          64.911
720.34        64.99692
720.76         65.0159
721.19        64.98389
721.61         64.9217
722.03        64.85467
722.45        64.80547
722.87        64.78373
723.29        64.79679
723.71        64.85665
724.13        64.95979
724.55        65.08165
724.97        65.24306
725.39        65.47688
725.81        65.76781
726.23         66.1012
726.65        66.35374
727.07        66.33136
727.49        66.01706
727.91        65.48608
728.33        64.93671
728.75        64.68481
729.17        64.80203
729.59        65.19171
730.01        65.69693
730.43        66.03706
730.85        66.12475
731.27        66.06232
731.69        65.90842
732.10        65.75283
732.52        65.63922
732.94        65.51968
733.36        65.46764
733.78         65.5751
734.20        65.83416
734.62        66.34148
735.04        66.92528
735.46        66.97832
735.88        66.60332
736.30         66.6282
736.72        67.01379
737.13        67.07091
737.55        66.76852
737.97        66.45575
738.39        66.27549
738.81        66.47326
739.23        66.97519
739.65        67.23386
740.06        67.16332
740.48        67.22832
740.90        67.39257
741.32        67.37251
741.74        67.20393
742.16        67.10996
742.57        67.12167
742.99        67.22526
743.41        67.39445
743.83        67.42605
744.25        67.37465
744.67        67.61622
745.08        68.07231
745.50        68.20136
745.92          67.972
746.34        67.64789
746.75        67.34079
747.17        67.12957
747.59        67.03821
748.01         67.1432
748.42        67.39096
748.84        67.36315
749.26        67.30581
749.68         67.4753
750.09        67.85867
750.51        68.05666
750.93        68.03038
751.35        67.94042
751.76        67.86629
752.18        67.89071
752.60        68.04382
753.01        68.30069
753.43        68.55993
753.85         68.7124
754.27        68.73002
754.68        68.64735
755.10         68.5511
755.52         68.5762
755.93        68.74419
756.35        68.98434
756.77         69.1842
757.18        69.29805
757.60        69.34297
758.02        69.12778
758.43        68.57558
758.85        69.03168
759.26        68.12451
759.68        67.92228
760.10        68.86878
760.51         69.0521
760.93        68.75481
761.34         68.6042
761.76        68.67997
762.18        68.48307
762.59        68.18469
763.01        68.41434
763.42        69.11372
763.84        69.54241
764.26        69.57167
764.67        69.27718
765.09        68.88624
765.50        68.77248
765.92        68.94955
766.33        69.07101
766.75        69.01144
767.16        68.89243
767.58        68.77556
768.00        68.89883
768.41        69.33381
768.83        70.02207
769.24        70.75758
769.66        71.15754
770.07        71.14651
770.49        70.78434
770.90        70.26612
771.32        70.12191
771.73        70.33693
772.15        70.29853
772.56        70.01417
772.97        69.92408
773.39        70.04209
773.80        70.19798
774.22        70.34175
774.63         70.5675
775.05        70.78326
775.46        70.90728
775.88        70.89008
776.29        70.77462
776.70        70.61882
777.12        70.55325
777.53        70.62449
777.95        70.76627
778.36          70.932
778.77        71.00376
779.19        70.95262
779.60        70.87231
780.02        70.77102
780.43          70.572
780.84        70.36792
781.26        70.31645
781.67        70.41281
782.09        70.64151
782.50        70.85933
782.91        70.61029
783.33        70.06802
783.74        70.02744
784.15        70.55904
784.57        71.17806
784.98        71.78466
785.39        72.36684
785.81        72.84756
786.22         72.9962
786.63        73.21098
787.04        73.12693
787.46        72.92555
787.87         72.5732
788.28        72.24339
788.70        72.16174
789.11        72.33706
789.52        72.75929
789.93         73.2414
790.35        73.38893
790.76        73.17761
791.17        72.83983
791.58        72.50743
792.00        72.26112
792.41        72.17565
792.82        72.21481
793.23        72.32609
793.65        72.52303
794.06        72.71774
794.47        72.61439
794.88        72.32145
795.29        72.26016
795.71         72.3937
796.12        72.60038
796.53        72.76826
796.94        72.80436
797.35        72.66341
797.76        72.39284
798.18        72.13924
798.59        72.08641
799.00        72.28424
799.41        72.66611
799.82        73.12177
800.23        73.46268
800.64        73.62076
801.06         73.6245
801.47        73.54469
801.88        73.41199
802.29        73.25544
802.70        73.04447
803.11        72.84325
803.52        72.76234
803.93        72.84285
804.34        73.08038
804.75        73.35318
805.17        73.56973
805.58        73.74867
805.99        73.44637
806.40        72.87205
806.81        73.42097
807.22        74.66401
807.63        74.14549
808.04         72.1646
808.45        71.37141
808.86        71.97206
809.27        72.49236
809.68        72.73717
810.09          73.067
810.50        73.39956
810.91        73.62881
811.32        73.75124
811.73        73.76979
812.14        73.69759
812.55        73.54413
812.96        73.37727
813.37        73.30787
813.78         73.3721
814.19        73.55769
814.60        73.80196
815.01        73.99507
815.42        74.10556
815.83        74.15433
816.24        74.17089
816.65        74.20966
817.05        74.28488
817.46        74.34821
817.87        74.37984
818.28        74.31211
818.69        74.13637
819.10        73.87486
819.51        73.60735
819.92        73.47809
820.33        73.52806
820.74        73.71355
821.14        73.93098
821.55        74.04955
821.96        74.02485
822.37        73.91314
822.78        73.77866
823.19        73.73483
823.60         73.8251
824.00        74.02611
824.41        74.27666
824.82        74.59224
825.23        74.93694
825.64        75.28627
826.04        75.58925
826.45        75.67902
826.86        75.55215
827.27         75.2602
827.68        74.83746
828.08         74.3689
828.49        73.87511
828.90        73.36285
829.31        72.95659
829.72         72.8353
830.12        73.05972
830.53        73.56361
830.94        74.13396
831.35        74.32943
831.75        74.06023
832.16        73.39944
832.57        72.72327
832.97        72.60555
833.38        73.13676
833.79        74.12232
834.20        75.19237
834.60        75.71513
835.01        75.49091
835.42         74.7695
835.82        73.82552
836.23        73.07336
836.64        72.66285
837.04        72.47784
837.45        72.49148
837.86        72.72616
838.26        73.14685
838.67        73.72195
839.08        74.28752
839.48        74.52962
839.89        74.36927
840.29        73.89094
840.70        73.29199
841.11        72.86633
841.51        72.72321
841.92        72.76482
842.33        72.95794
842.73         73.2457
843.14        73.53775
843.54        73.90743
843.95        74.26429
844.35        74.52904
844.76        74.64056
845.17        74.59214
845.57        74.46367
845.98        74.38696
846.38        74.41494
846.79         74.5088
847.19        74.58156
847.60        74.39728
848.00        73.95562
848.41        73.32928
848.81        72.74846
849.22        72.53764
849.62        72.77374
850.03        73.32401
850.43        73.98692
850.84        74.25883
851.24        74.07625
851.65        73.56015
852.05        72.97151
852.46        72.70721
852.86        72.85468
853.27        73.25155
853.67        73.76122
854.07        74.39928
854.48        75.06498
854.88        75.89914
855.29        76.52241
855.69        76.48528
856.10        75.58398
856.50        74.06984
856.90        72.52011
857.31        71.77958
857.71        72.01155
858.12        72.94785
858.52        74.22653
858.92        74.91785
859.33        74.69836
859.73        73.89388
860.13        72.79395
860.54        71.88354
860.94        71.33252
861.34        70.96557
861.75         70.7733
862.15        70.80934
862.55        71.02931
862.96        71.44982
863.36        71.91622
863.76        72.06139
864.17        71.81116
864.57        71.25733
864.97        70.64664
865.38        70.41207
865.78        70.68721
866.18        71.33139
866.58        72.08372
866.99        72.46871
867.39        72.38257
867.79        71.97956
868.19        71.46587
868.60        71.11049
869.00        70.99001
869.40          71.014
869.80        71.18876
870.21        71.52343
870.61        72.01908
871.01        72.60624
871.41         73.0891
871.81        73.17211
872.22        72.80431
872.62        72.07507
873.02        71.19898
873.42        70.54234
873.82        70.24543
874.22        70.25842
874.63         70.4692
875.03        70.67616
875.43        70.82197
875.83        70.95492
876.23        71.19341
876.63        71.72021
877.03        72.53501
877.44        73.51349
877.84        74.42792
878.24        74.86362
878.64        74.72346
879.04        74.14204
879.44        73.37988
879.84        72.83601
880.24        72.61737
880.64        72.61851
881.04        72.72141
881.44         72.7152
881.84        72.55052
882.24         72.3391
882.65        72.10238
883.05        71.97948
883.45        71.97035
883.85        72.00049
884.25        72.14633
884.65        72.54444
885.05        73.18344
885.45        74.02355
885.85        74.79264
886.25        75.02282
886.65        74.60902
887.05        73.68403
887.45        72.62737
887.85        72.03996
888.25        72.07478
888.65        72.58132
889.04        73.23364
889.44        73.46566
889.84        73.15063
890.24        72.46278
890.64         71.7271
891.04        71.40189
891.44        71.58776
891.84        72.16312
892.24        72.80024
892.64        72.95839
893.04        72.52161
893.44        71.66028
893.83        70.82365
894.23        70.70173
894.63        71.39083
895.03        72.67773
895.43        74.03803
895.83        74.52552
896.23        73.91437
896.63        72.58208
897.02        71.05288
897.42        70.17007
897.82        70.06277
898.22        70.52442
898.62        71.30787
899.01        72.02081
899.41        72.44553
899.81        72.70725
900.21        72.95314
900.61        73.41844
901.00        74.12841
901.40         74.9296
901.80        75.55164
902.20        75.61472
902.59        75.07682
902.99         74.0993
903.39        73.01978
903.79        72.37227
904.18        72.28647
904.58        72.61678
904.98        73.13441
905.38        73.49208
905.77        73.57597
906.17        73.52168
906.57        73.34637
906.96        73.08894
907.36        72.78078
907.76         72.4135
908.15        72.13168
908.55        72.13674
908.95        72.47646
909.34        73.09976
909.74         73.7983
910.14        74.29631
910.53        74.48991
910.93        74.44537
911.33        74.24511
911.72        74.02724
912.12        73.86839
912.52        73.72515
912.91        73.57294
913.31        73.37167
913.70        73.13277
914.10        72.89519
914.49         72.7315
914.89           72.72
915.29        72.86813
915.68        73.12895
916.08        73.41391
916.47        73.60011
916.87        73.63827
917.26        73.56631
917.66        73.40939
918.05        73.19902
918.45        72.96183
918.84        72.74875
919.24         72.5962
919.64        72.64494
920.03        72.93778
920.42        73.39513
920.82        73.97231
921.21        74.63546
921.61        75.30515
922.00        75.97074
922.40        76.47028
922.79        76.60376
923.19        76.32009
923.58        75.72411
923.98        74.96411
924.37        74.17741
924.77        73.46788
925.16        72.80386
925.55        72.32688
925.95        72.22739
926.34        72.55574
926.74        73.22268
927.13        74.07169
927.52        74.73852
927.92        75.09418
928.31        75.21211
928.70         75.1674
929.10        75.14001
929.49        75.20581
929.89        75.29255
930.28        75.34688
930.67        75.24483
931.07        74.95505
931.46        74.53002
931.85        74.11134
932.24        73.91675
932.64        73.99695
933.03        74.34168
933.42         74.6996
933.82        74.69914
934.21        74.27702
934.60        73.51707
934.99        72.82755
935.39        72.80493
935.78        73.58379
936.17        75.01692
936.56        76.50496
936.96         76.9511
937.35        76.13055
937.74        74.38015
938.13        72.49294
938.53          71.517
938.92        71.61445
939.31        72.51609
939.70        73.72196
940.09        74.31493
940.49        74.01852
940.88        73.16043
941.27        72.16714
941.66        71.66737
942.05         71.8223
942.44        72.41664
942.84         73.1846
943.23        73.75191
943.62        73.92267
944.01        73.86487
944.40        73.70876
944.79        73.64942
945.18        73.74715
945.57          73.876
945.97        74.04182
946.36         74.3762
946.75        74.83314
947.14         75.4119
947.53        75.87179
947.92        75.77489
948.31        75.06071
948.70        73.90533
949.09        72.71827
949.48        72.10732
949.87        72.22422
950.26        72.91905
950.65        73.91798
951.04        74.71802
951.43        75.11111
951.82        75.18124
952.21        75.08973
952.60        75.10576
952.99         75.2732
953.38        75.47861
953.77        75.50761
954.16        75.01558
954.55        74.00298
954.94        72.72299
955.33        71.49216
955.72        70.75774
956.11        70.62704
956.50        70.90108
956.89        71.53876
957.28        72.47354
957.66        73.64155
958.05        74.95631
958.44        75.98305
958.83        75.89672
959.22        74.59968
959.61        72.42893
960.00        70.19205
960.39        69.03931
960.78        69.19863
961.16        70.37691
961.55        72.02287
961.94        73.29193
962.33        73.84499
962.72        73.88595
963.11        73.53723
963.49        73.06981
963.88        72.58516
964.27          72.038
964.66        71.43456
965.04        70.79548
965.43        70.12486
965.82        69.44975
966.21        68.91832
966.60        68.75658
966.98        69.03539
967.37        69.68661
967.76        70.42641
968.15        70.76247
968.53        70.58076
968.92        69.97335
969.31        69.29958
969.69        69.16088
970.08         69.6306
970.47        70.50865
970.86        71.39394
971.24        71.57857
971.63        70.82323
972.02        69.48174
972.40        67.89131
972.79         66.5646
973.17         65.7293
973.56        65.26363
973.95         65.2286
974.33        65.73061
974.72        66.68146
975.11        68.01762
975.49        69.60133
975.88        71.05444
976.26        72.20068
976.65        72.97809
977.04        73.16143
977.42        72.44054
977.81        70.88274
978.19          68.641
978.58        66.65279
978.96        66.06889
979.35        67.09219
979.74        69.52021
980.12        72.68178
980.51        74.56723
980.89         74.6926
981.28        73.43058
981.66        71.66054
982.05        70.94832
982.43        71.66754
982.82        73.27106
983.20        75.36481
983.59        77.10605
983.97        78.25739
984.35        79.04255
984.74        79.25349
985.12        78.68143
985.51        77.36044
985.89        75.30791
986.28        73.22947
986.66         72.1177
987.04        72.30609
987.43        73.54621
987.81        75.13541
988.20        75.62534
988.58        74.68843
988.96        72.61235
989.35        70.32805
989.73        69.30241
990.12        69.83749
990.50        71.55435
990.88        73.40202
991.27        73.68552
991.65        72.13325
992.03        69.37119
992.42         66.5771
992.80        65.29446
993.18        66.00745
993.56        68.14437
993.95        70.89452
994.33        73.15796
994.71        74.25248
995.10        74.51264
995.48        74.04094
995.86        73.01379
996.24        71.67671
996.63        70.02443
997.01         68.3969
997.39        67.30351
997.77        66.85266
998.15        66.98317
998.54        67.56892
998.92        68.30573
999.30        69.03662
999.68         69.8146
1000.06        70.50404
1000.45         70.8617
1000.83        70.94756
1001.21        70.66715
1001.59        70.20321
1001.97        69.94463
1002.35        70.00047
1002.73        70.28609
1003.12        70.61839
1003.50        70.62165
1003.88        70.24641
1004.26        69.65709
1004.64        69.01511
1005.02        68.50883
1005.40        68.22264
1005.78        68.13896
1006.16        68.22771
1006.54        68.44762
1006.92        68.72086
1007.30        68.92733
1007.69        69.11526
1008.07        69.60428
1008.45        70.31165
1008.83        71.24593
1009.21        71.82841
1009.59        71.09824
1009.97        68.96854
1010.35        65.75133
1010.73        62.65722
1011.11        61.80239
1011.49        63.82164
1011.86        68.42109
1012.24        74.09864
1012.62        78.29157
1013.00        79.93272
1013.38        79.47256
1013.76        77.91673
1014.14        77.34584
1014.52        78.45285
1014.90        80.45116
1015.28        82.52612
1015.66        83.29245
1016.04        82.39669
1016.41        80.63219
1016.79        78.54767
1017.17        76.23469
1017.55        73.52985
1017.93         69.9649
1018.31        65.75845
1018.69        62.84664
1019.06        62.55165
1019.44        64.24139
1019.82        66.31457
1020.20        67.32011
1020.58        67.21304
1020.95        66.27304
1021.33        65.11897
1021.71        65.07795
1022.09        66.76235
1022.46        69.55885
1022.84        72.48222
1023.22         74.5477
1023.60        75.46275
1023.97        75.59675
1024.35        74.89514
1024.73        73.31847
