SpectraSmart Spectrum 2.9.0.0
--------- Device Information -----------
Spectrum Name :  反射率_0
Saving Time :  2024/05/01 17:16:55
Spectro-Module Model Name : SE2030-DUVN
Spectro-Module Serial Number : OS361AC55029948
Wavelength Start : 200
Wavelength End : 1025
Wavelength Unit : Wavelength(nm)
Spectrum Unit : Reflectance(%)
-----------Spectrum Setting ------------
Integration Time : 20ms
Average : 10
Boxcar : 0
Background removal :  enabled
linearity correction :  enabled
SC :  disabled
Intensity correction :  disabled
DWT denoise :  enabled
savitzky-golay :  disabled
FFT :  disabled
Running average :  disabled
Kalman :  disabled
High pass :  disabled
---------------BEGIN--------------------
Wavelength(nm)             Reflectance(%)
200.29               0
200.75        375.2898
201.21         1370.69
201.67       -505.0128
202.13       -169.2623
202.58       -70.36626
203.04       -15.80853
203.50        15.98276
203.96        28.89397
204.42        26.24608
204.88       -7.643135
205.34       -975.8062
205.80        189.5078
206.26        119.9421
206.72        70.65637
207.18       -80.11069
207.64        270.8994
208.10        117.2838
208.55        66.39874
209.01        36.13819
209.47        21.85344
209.93        17.81075
210.39        17.04191
210.85        15.52126
211.31        5.117769
211.77       -45.76675
212.23        368.9992
212.69         125.515
213.14        129.9586
213.60        224.9944
214.06       -905.0817
214.52       -128.0522
214.98       -80.63323
215.44       -77.44355
215.90        -111.261
216.36       -731.2043
216.81        217.2328
217.27        243.7195
217.73       -496.8416
218.19       -109.8839
218.65       -86.54183
219.11       -105.7574
219.57       -194.8037
220.02       -551.9243
220.48       -260.5497
220.94       -70.87919
221.40       -24.01844
221.86       -7.835828
222.32       -1.427792
222.77        1.710414
223.23        3.322634
223.69        5.445334
224.15        10.50555
224.61        16.51095
225.06        20.95135
225.52        23.41848
225.98        24.22468
226.44        23.92225
226.90        22.45617
227.36        20.42113
227.81        19.97185
228.27        21.61172
228.73        24.04642
229.19         25.7728
229.65        25.86413
230.10        24.48445
230.56        22.01445
231.02        19.30874
231.48        18.94146
231.93        21.55771
232.39        25.52069
232.85        29.23997
233.31        31.48985
233.77         32.3678
234.22        32.54046
234.68        32.29935
235.14        32.06942
235.60         31.9719
236.05        31.78461
236.51         31.6183
236.97        31.87391
237.43        32.66841
237.88        33.98565
238.34        34.81375
238.80        34.07417
239.26        31.14246
239.71        25.15902
240.17        15.04099
240.63        3.333878
241.08       -3.589911
241.54        -3.15809
242.00        1.291472
242.46        5.641496
242.91        9.965818
243.37        15.03031
243.83        25.73145
244.28        46.96738
244.74        64.40762
245.20        71.57683
245.66        70.95723
246.11        64.47011
246.57        51.91522
247.03        29.33266
247.48        -8.34706
247.94       -50.55531
248.40       -74.09247
248.85       -76.28078
249.31       -58.25568
249.77       -31.86528
250.22       -7.994552
250.68        11.55879
251.14        24.06172
251.59        27.95454
252.05        23.76117
252.51        6.770324
252.96       -37.60945
253.42       -97.94968
253.88       -81.87425
254.33       -15.70751
254.79        21.80771
255.25        33.35826
255.70        34.15741
256.16        32.37418
256.62        31.08665
257.07        32.18817
257.53        35.01557
257.99        37.90522
258.44        40.26091
258.90        42.00108
259.35        42.95939
259.81        43.61732
260.27        43.70748
260.72        42.86758
261.18        41.51416
261.63         39.7916
262.09        38.23846
262.55        37.15712
263.00        36.46957
263.46        36.05363
263.91        35.74166
264.37        35.52114
264.83         35.2985
265.28        35.10909
265.74        34.82767
266.19        34.08471
266.65        32.97348
267.11        31.55181
267.56        30.22487
268.02        29.71229
268.47        30.07722
268.93        31.04388
269.38         32.0927
269.84        32.31468
270.30        31.52682
270.75        30.03595
271.21        28.29133
271.66        26.86191
272.12        25.98263
272.57        25.42114
273.03         25.1263
273.48        24.98499
273.94        24.92342
274.39        24.95213
274.85        24.95295
275.31        24.69945
275.76        24.16729
276.22        23.46388
276.67        22.68736
277.13        22.06002
277.58        21.58708
278.04        21.23474
278.49        20.94942
278.95        20.74121
279.40        20.54825
279.86        20.39613
280.31        20.20038
280.77        19.90217
281.22        19.47058
281.68        18.97899
282.13        18.44554
282.59        17.95601
283.04        17.51901
283.50        17.14879
283.95        16.86048
284.41        16.71432
284.86        16.69491
285.32        16.77326
285.77        16.89691
286.22        17.00697
286.68        17.08582
287.13        17.13478
287.59        17.12853
288.04        16.99375
288.50        16.76264
288.95        16.43923
289.41        16.15756
289.86        16.05723
290.32        16.16615
290.77        16.42826
291.22        16.72868
291.68        16.88384
292.13        16.86094
292.59        16.75379
293.04         16.6386
293.50        16.67893
293.95        16.90205
294.40        17.25393
294.86        17.70922
295.31        18.24557
295.77        18.81938
296.22        19.42504
296.68        19.97875
297.13        20.34584
297.58        20.52409
298.04          20.579
298.49        20.60627
298.95        20.79423
299.40        21.17427
299.85        21.68128
300.31        22.27221
300.76        22.88871
301.21         23.4911
301.67        24.09743
302.12         24.6149
302.58        24.91784
303.03        24.98243
303.48        24.87633
303.94        24.74717
304.39        24.76892
304.84         24.9973
305.30        25.36514
305.75        25.79575
306.20        26.17859
306.66        26.47015
307.11        26.68481
307.57         26.8151
308.02        26.80822
308.47        26.68206
308.93        26.45808
309.38        26.18544
309.83        25.99089
310.29        25.90926
310.74        25.90945
311.19        25.94333
311.65        25.91698
312.10        25.80504
312.55        25.64112
313.00        25.47396
313.46         25.3784
313.91        25.36157
314.36        25.38567
314.82        25.40188
315.27        25.34852
315.72         25.2004
316.18         24.9838
316.63        24.70716
317.08        24.38163
317.53        24.01883
317.99        23.62355
318.44        23.22005
318.89        22.86802
319.35        22.58898
319.80        22.37635
320.25        22.20556
320.70        22.02418
321.16        21.81192
321.61        21.58545
322.06        21.36434
322.51        21.18544
322.97        21.05166
323.42        20.95469
323.87        20.85837
324.32        20.71527
324.78        20.50908
325.23         20.2612
325.68        20.00271
326.13        19.78864
326.59        19.62576
327.04        19.50794
327.49        19.39062
327.94          19.207
328.39        18.94165
328.85        18.61259
329.30        18.27461
329.75        18.00333
330.20        17.82414
330.66        17.71181
331.11        17.63774
331.56        17.53368
332.01        17.37866
332.46        17.19275
332.92        16.98868
333.37        16.81039
333.82        16.66234
334.27        16.53149
334.72          16.415
335.17        16.31256
335.63        16.21455
336.08        16.13483
336.53        16.06263
336.98        15.98544
337.43        15.89882
337.88        15.80554
338.34        15.70087
338.79        15.58725
339.24          15.466
339.69         15.3398
340.14        15.22735
340.59        15.15732
341.05        15.12616
341.50         15.1267
341.95        15.13539
342.40        15.11411
342.85        15.05455
343.30        14.97785
343.75        14.88682
344.20        14.78527
344.66         14.6841
345.11        14.56957
345.56        14.48835
346.01        14.51256
346.46        14.64369
346.91        14.85055
347.36        15.03924
347.81        15.06959
348.26        14.91669
348.72        14.63277
349.17        14.28874
349.62         14.0353
350.07        13.91255
350.52        13.87712
350.97        13.87399
351.42        13.80961
351.87        13.66449
352.32        13.48883
352.77        13.30791
353.22        13.15522
353.67        13.04465
354.13        12.95791
354.58        12.91284
355.03        12.96464
355.48        13.11123
355.93        13.34164
356.38        13.56206
356.83        13.61333
357.28        13.46936
357.73        13.18369
358.18        12.88915
358.63        12.78696
359.08        12.91308
359.53        13.19802
359.98        13.53022
360.43        13.71784
360.88        13.70129
361.33        13.54601
361.78        13.31453
362.23        13.09757
362.68        12.92829
363.13        12.77612
363.58         12.6467
364.03        12.55553
364.48        12.49794
364.93        12.47227
365.38        12.44966
365.83        12.37759
366.28         12.2449
366.73        12.06951
367.18        11.86725
367.63        11.66836
368.08        11.49313
368.53        11.33901
368.98        11.22193
369.43         11.1645
369.88        11.16042
370.33         11.1922
370.78        11.23143
371.23        11.22847
371.68        11.16274
372.13        11.04839
372.58        10.88076
373.03        10.65115
373.48        10.37365
373.93        10.06561
374.38        9.781606
374.83        9.611726
375.28        9.579963
375.72        9.657816
376.17        9.803548
376.62        9.952646
377.07        10.07242
377.52        10.16741
377.97        10.21722
378.42          10.195
378.87        10.10237
379.32         9.95042
379.77        9.770476
380.22        9.613534
380.67        9.497561
381.11        9.417735
381.56        9.373351
382.01        9.360641
382.46        9.376098
382.91        9.424179
383.36        9.482656
383.81        9.518114
384.26        9.518085
384.71        9.475275
385.15        9.414175
385.60        9.392048
386.05        9.411559
386.50        9.464437
386.95        9.489488
387.40        9.392555
387.85        9.174501
388.29        8.871845
388.74        8.608665
389.19        8.518933
389.64        8.620366
390.09        8.855121
390.54        9.128689
390.98        9.288838
391.43        9.290619
391.88        9.189611
392.33          9.0349
392.78        8.900527
393.23        8.810658
393.67        8.726496
394.12        8.662308
394.57        8.645656
395.02        8.662732
395.47        8.660604
395.91        8.641735
396.36        8.644223
396.81        8.672565
397.26        8.694117
397.71        8.707877
398.15        8.736264
398.60        8.786918
399.05        8.809324
399.50         8.80989
399.95        8.865091
400.39        8.946252
400.84        8.897865
401.29        8.729981
401.74        8.603404
402.18         8.53433
402.63        8.433928
403.08        8.327993
403.53        8.294404
403.97        8.334942
404.42         8.42452
404.87        8.513374
405.32        8.520039
405.76        8.425962
406.21        8.264405
406.66        8.082989
407.11        7.959126
407.55         7.91866
408.00        7.941642
408.45        8.002436
408.90        8.043463
409.34        8.050348
409.79        8.052763
410.24        8.062004
410.68        8.073995
411.13        8.091681
411.58        8.117935
412.03        8.132318
412.47        8.098734
412.92        8.014414
413.37        7.896323
413.81        7.779967
414.26        7.723692
414.71          7.7351
415.15        7.803092
415.60        7.886673
416.05        7.927691
416.49        7.907315
416.94        7.841784
417.39        7.763277
417.83        7.724511
418.28        7.738084
418.73        7.784884
419.17        7.835419
419.62        7.834765
420.07        7.778723
420.51        7.689864
420.96        7.605663
421.41        7.565463
421.85         7.57548
422.30           7.618
422.74        7.683575
423.19        7.766356
423.64        7.854178
424.08        7.950735
424.53        8.011519
424.98        7.976409
425.42        7.840686
425.87        7.638568
426.31        7.421142
426.76        7.280312
427.21        7.235582
427.65        7.256506
428.10        7.344958
428.54        7.497723
428.99         7.68742
429.44         7.91921
429.88        8.102031
430.33        8.103477
430.77        7.919023
431.22        7.602507
431.66        7.270653
432.11        7.130628
432.56        7.202095
433.00        7.412736
433.45        7.634714
433.89        7.611724
434.34        7.320529
434.78        7.282415
435.23        7.539759
435.67        7.593057
436.12        7.455804
436.57        7.396932
437.01        7.421795
437.46        7.400263
437.90        7.330937
438.35         7.26686
438.79        7.222693
439.24        7.199709
439.68        7.213444
440.13        7.307707
440.57        7.441568
441.02        7.512433
441.46        7.504925
441.91        7.416294
442.35        7.294296
442.80        7.334319
443.24        7.485032
443.69        7.445857
444.13        7.243006
444.58        7.171432
445.02        7.235687
445.47        7.280905
445.91        7.295356
446.36        7.334518
446.80        7.393359
447.24        7.451454
447.69        7.503578
448.13        7.547026
448.58        7.577125
449.02        7.592388
449.47        7.590522
449.91        7.562302
450.36        7.512583
450.80        7.447152
451.25        7.376273
451.69        7.309524
452.13        7.253349
452.58        7.209046
453.02        7.179805
453.47        7.175891
453.91        7.195469
454.36        7.236403
454.80        7.281792
455.24        7.299823
455.69        7.284569
456.13        7.236711
456.58        7.184667
457.02        7.161994
457.46        7.177571
457.91        7.221311
458.35        7.258937
458.79         7.22466
459.24        7.117705
459.68        6.979095
460.13        6.870989
460.57        6.738569
461.01        6.794873
461.46        6.868452
461.90        6.981719
462.34        7.038138
462.79        7.057086
463.23         7.02091
463.68         6.97603
464.12        6.979352
464.56        7.042041
465.01        7.148158
465.45        7.238905
465.89        7.240084
466.34        7.147029
466.78        6.981109
467.22        6.803539
467.67        6.731883
468.11        6.764495
468.55        6.895105
468.99        7.055185
469.44        7.151311
469.88        7.160664
470.32        7.106836
470.77         7.02849
471.21        6.982604
471.65        6.988432
472.10         7.02601
472.54        7.068926
472.98        7.084105
473.42        7.065562
473.87        7.034035
474.31        7.002365
474.75        6.996486
475.20        7.023225
475.64        7.064065
476.08        7.112537
476.52        7.177754
476.97        7.257365
477.41        7.318587
477.85        7.329495
478.29        7.447384
478.74        7.351214
479.18         7.29389
479.62        7.221446
480.06        7.245274
480.50        7.376298
480.95        7.439511
481.39        7.642959
481.83        7.702301
482.27        7.683206
482.72        7.615776
483.16        7.528231
483.60        7.484977
484.04        7.491351
484.48        7.515728
484.93        7.611763
485.37        7.786575
485.81        7.914139
486.25        8.343518
486.69        7.725736
487.14        7.594073
487.58        8.079782
488.02        8.058892
488.46        8.024226
488.90        8.115581
489.34        7.822596
489.79        7.818119
490.23        8.194835
490.67        8.425123
491.11        8.536342
491.55        8.529151
491.99        8.446267
492.43        8.428563
492.88        8.492541
493.32        8.519245
493.76        8.522637
494.20        8.599185
494.64        8.756607
495.08        8.958084
495.52        9.159168
495.96        9.323027
496.41        9.424062
496.85        9.395455
497.29        9.307425
497.73        9.396189
498.17           9.654
498.61        9.835088
499.05        9.903967
499.49        9.996802
499.93        10.10594
500.37        10.13895
500.82        10.11913
501.26        10.13033
501.70        10.18732
502.14        10.26406
502.58        10.34404
503.02        10.40205
503.46        10.43349
503.90        10.45518
504.34        10.47899
504.78         10.5196
505.22        10.58263
505.66        10.65997
506.10        10.75289
506.54        10.86438
506.98        10.98751
507.42        11.11621
507.86        11.22952
508.30        11.29614
508.74        11.31188
509.18         11.2882
509.62        11.24581
510.06        11.22058
510.50        11.22557
510.94        11.25212
511.38        11.29623
511.82        11.34924
512.26        11.40412
512.70        11.46198
513.14        11.51203
513.58        11.53679
514.02        11.53347
514.46        11.50671
514.90        11.46672
515.34        11.43229
515.78        11.41049
516.22        11.39742
516.66        11.39347
517.10        11.39762
517.54        11.40791
517.98        11.42566
518.42        11.44337
518.86        11.44774
519.30         11.4361
519.74        11.41077
520.18        11.38093
520.62        11.36257
521.06        11.35831
521.50         11.3619
521.93        11.36582
522.37        11.35372
522.81        11.32429
523.25         11.2857
523.69         11.2415
524.13        11.19631
524.57        11.15416
525.01        11.11311
525.45        11.08255
525.89        11.07769
526.32        11.09785
526.76        11.13412
527.20        11.16771
527.64        11.16699
528.08        11.12576
528.52        11.05715
528.96        10.97521
529.40        10.90208
529.83        10.84528
530.27        10.80133
530.71        10.77452
531.15        10.77452
531.59        10.79802
532.03        10.83917
532.46        10.87634
532.90        10.87474
533.34        10.82913
533.78         10.7432
534.22        10.63646
534.66        10.55748
535.09        10.50569
535.53        10.43769
535.97         10.3623
536.41        10.33018
536.85          10.344
537.28        10.38141
537.72        10.42581
538.16        10.46195
538.60        10.48246
539.04        10.48741
539.47        10.49202
539.91        10.52839
540.35        10.59841
540.79        10.69824
541.22        10.80194
541.66        10.85079
542.10        10.86675
542.54        10.84335
542.97        10.82447
543.41        10.87319
543.85        10.99796
544.29        11.17812
544.72        11.37465
545.16        11.53138
545.60        11.63252
546.04        11.69341
546.47        11.73833
546.91        11.81071
547.35        11.92049
547.79        12.04894
548.22        12.16947
548.66        12.26928
549.10        12.34584
549.53        12.35298
549.97        12.42313
550.41        12.50911
550.84        12.64965
551.28        12.83203
551.72        13.03212
552.15        13.19773
552.59        13.32213
553.03        13.43619
553.46        13.54055
553.90         13.6458
554.34        13.75662
554.77        13.84546
555.21        13.90554
555.65        14.07928
556.08        14.10014
556.52         14.1883
556.96        14.25711
557.39        14.31063
557.83        14.35307
558.27        14.36717
558.70         14.3671
559.14         14.4453
559.57        14.47714
560.01        14.58377
560.45        14.69112
560.88        14.73223
561.32        14.73198
561.75        14.70987
562.19        14.70875
562.63        14.85897
563.06        15.09862
563.50        15.11029
563.93        14.92939
564.37        14.90779
564.80        15.05279
565.24        15.17612
565.68        15.25954
566.11        15.36398
566.55        15.48879
566.98        15.61059
567.42        15.73652
567.85        15.86969
568.29        16.01578
568.72        16.15584
569.16        16.29065
569.60        16.41863
570.03        16.53581
570.47        16.59337
570.90         16.7158
571.34        16.79521
571.77        16.88924
572.21        16.97767
572.64        17.08952
573.08        17.18377
573.51        17.61591
573.95        17.67475
574.38        17.64622
574.82        17.81245
575.25        17.83209
575.69        17.89466
576.12         17.8984
576.56        18.06569
576.99        18.19102
577.42        18.20837
577.86        18.28782
578.29        18.11108
578.73        18.00017
579.16        17.99965
579.60        17.77153
580.03        17.70441
580.47        17.77218
580.90        17.45212
581.33        17.68763
581.77         17.8597
582.20         17.7217
582.64        17.40262
583.07        17.32104
583.51        17.15153
583.94        17.12338
584.37        17.09146
584.81        17.03505
585.24        16.93858
585.68        16.85536
586.11        16.66835
586.54        16.73094
586.98        16.65372
587.41        16.56102
587.85        16.38532
588.28        16.45163
588.71        16.11535
589.15        16.38673
589.58        15.92835
590.01        16.11047
590.45        16.03669
590.88        16.03117
591.31        16.05738
591.75        16.12122
592.18        16.13158
592.61        16.02048
593.05        16.37153
593.48        16.18832
593.91        16.14904
594.35        16.29577
594.78        16.39143
595.21         16.5117
595.65         16.5527
596.08        16.53935
596.51        16.73709
596.94        16.81419
597.38        17.02315
597.81        17.29294
598.24        17.23347
598.68        17.63135
599.11        17.84469
599.54        18.20541
599.97        18.24656
600.41        18.74668
600.84        18.97147
601.27        19.30122
601.70        19.69905
602.14        20.06596
602.57         20.3677
603.00         20.5735
603.43        20.79708
603.87        21.20785
604.30         21.5529
604.73        21.87258
605.16        22.28525
605.60        22.75671
606.03        23.17821
606.46        23.49808
606.89        23.84515
607.32        24.27201
607.76         24.5912
608.19        24.80156
608.62        25.17379
609.05        25.44535
609.48        25.76848
609.92        26.06177
610.35        26.56772
610.78        27.01602
611.21        27.41543
611.64        27.68086
612.07        27.97842
612.50        28.32948
612.94        28.50267
613.37        28.50089
613.80        29.06384
614.23        29.03501
614.66        29.48845
615.09        29.61164
615.52        29.85688
615.96        30.09213
616.39        30.41649
616.82        30.79912
617.25        31.10723
617.68        31.32478
618.11        31.57523
618.54        31.83395
618.97        31.94852
619.40        31.98852
619.84        32.14414
620.27        32.43989
620.70        32.87905
621.13        33.35063
621.56        33.43745
621.99        33.17781
622.42         33.2422
622.85        33.34651
623.28        33.36946
623.71        33.30005
624.14         33.6285
624.57         33.6506
625.00          33.748
625.43        33.68912
625.86        33.58181
626.29        33.44509
626.72        33.11275
627.15        32.99326
627.58        32.70939
628.01        32.41203
628.44        32.27024
628.87        32.22947
629.30        31.99594
629.73        31.59505
630.16        31.30528
630.59        31.12773
631.02        30.90165
631.45        30.60351
631.88        30.26929
632.31        29.89434
632.74        29.47126
633.17        29.02221
633.60        28.58144
634.03        28.15963
634.46        27.75401
634.89        27.35372
635.32        26.93913
635.75        26.50937
636.18        26.07588
636.61        25.65247
637.04        25.25622
637.47        24.89083
637.89        24.54461
638.32        24.19708
638.75        23.85641
639.18        23.52802
639.61        23.12155
640.04         22.8269
640.47        22.52427
640.90        22.26981
641.33          22.049
641.76        21.85417
642.18        21.70322
642.61        21.59384
643.04        21.47732
643.47        21.32998
643.90        21.41355
644.33        21.26529
644.76        21.22846
645.18        21.19113
645.61        21.27991
646.04        21.46256
646.47        21.55692
646.90        21.58271
647.33        21.71566
647.75        21.96729
648.18        22.24192
648.61        22.50902
649.04        22.77241
649.47        23.02918
649.89        23.27335
650.32        23.54391
650.75        23.92771
651.18        24.40742
651.61        24.95512
652.03        25.53248
652.46        25.97447
652.89        26.32411
653.32        26.77139
653.74        27.39594
654.17        28.04841
654.60        28.57311
655.03        29.17099
655.46        29.30622
655.88         30.2056
656.31        34.46486
656.74        34.92117
657.16        32.66937
657.59        32.36182
658.02        33.04737
658.45        32.79449
658.87        33.46938
659.30          33.359
659.73        33.94532
660.15        34.56023
660.58        34.72803
661.01        35.19992
661.44        35.72108
661.86        36.09746
662.29        36.35906
662.72        36.73462
663.14        37.23402
663.57        37.65725
664.00        37.98299
664.42        38.28066
664.85        38.55738
665.27        38.77456
665.70        38.95949
666.13        39.16365
666.55        39.40656
666.98        39.67884
667.41        39.97085
667.83        40.25729
668.26        40.51901
668.69        40.76599
669.11        41.01109
669.54        41.28513
669.96        41.58401
670.39        41.87086
670.82        42.13487
671.24        42.34992
671.67        42.52918
672.09        42.73766
672.52        42.97279
672.94        43.13516
673.37        43.22881
673.80        43.30923
674.22        43.40155
674.65        43.49631
675.07        43.61277
675.50        43.75117
675.92        43.91195
676.35         44.0812
676.77        44.25798
677.20        44.45636
677.62        44.64923
678.05        44.86616
678.47        45.09128
678.90        45.32317
679.32        45.53511
679.75        45.70589
680.17        45.82633
680.60        45.90233
681.02        45.96428
681.45        46.04761
681.87        46.17253
682.30        46.33863
682.72        46.51955
683.15         46.6191
683.57        46.64245
684.00        46.66423
684.42        46.72681
684.85        46.84131
685.27        47.00222
685.70        47.25897
686.12        47.53684
686.54        47.62223
686.97        47.50719
687.39        47.54614
687.82        47.71543
688.24          47.669
688.66        47.47372
689.09        47.56771
689.51        47.93122
689.94         48.1619
690.36        48.24221
690.78        48.35754
691.21        48.55077
691.63        48.82491
692.06        49.17033
692.48        49.55091
692.90        49.88961
693.33        50.08187
693.75        50.10922
694.17        49.95645
694.60        49.72133
695.02        49.62589
695.44        49.67303
695.87        49.68498
696.29        49.66834
696.71        49.66203
697.14        49.72972
697.56        50.06091
697.98        50.56745
698.41        50.89373
698.83         50.9978
699.25        51.06247
699.68         51.1095
700.10        51.15139
700.52        51.20377
700.94        51.22648
701.37        51.24371
701.79        51.39443
702.21        51.62557
702.64        51.78723
703.06        51.85694
703.48         51.8496
703.90        51.75185
704.33         51.8784
704.75        51.61865
705.17        51.61913
705.59        51.70517
706.01        51.85011
706.44        52.04047
706.86        52.25406
707.28        52.45998
707.70        52.73731
708.12        53.02129
708.55        53.01304
708.97         52.8013
709.39        52.81347
709.81        53.05836
710.23        53.16977
710.66        53.13599
711.08        53.20259
711.50        53.34151
711.92        53.40195
712.34        53.37741
712.76        53.31684
713.19        53.24956
713.61        53.26217
714.03        53.35615
714.45        53.49802
714.87        53.66634
715.29        53.83329
715.71        53.98434
716.13        54.12981
716.56        54.22836
716.98        54.28049
717.40        54.26286
717.82        54.18204
718.24        54.09843
718.66        54.11115
719.08         54.2392
719.50        54.45591
719.92        54.68963
720.34        54.82011
720.76        54.81665
721.19        54.71487
721.61        54.58394
722.03        54.52735
722.45        54.58092
722.87        54.72425
723.29        54.90613
723.71        55.04298
724.13        55.10713
724.55        55.10825
724.97        55.11575
725.39        55.24063
725.81        55.49494
726.23        55.84166
726.65        56.14441
727.07        56.18713
727.49        55.93972
727.91        55.48411
728.33        55.00691
728.75        54.80304
729.17        54.94075
729.59        55.32487
730.01        55.80543
730.43         56.1336
730.85        56.23283
731.27        56.16966
731.69        55.99516
732.10        55.93473
732.52        55.78745
732.94        55.69634
733.36        55.65746
733.78        55.74051
734.20        55.93741
734.62        56.40208
735.04        56.96011
735.46        56.91592
735.88        56.40202
736.30        56.40518
736.72        56.90792
737.13        57.04079
737.55        56.74666
737.97        56.64651
738.39        56.76385
738.81        56.68035
739.23         56.4878
739.65        56.73719
740.06        57.27658
740.48        57.54535
740.90        57.48155
741.32        57.37442
741.74        57.29485
742.16        57.22595
742.57        57.19672
742.99        57.25717
743.41        57.37806
743.83        57.36394
744.25        57.26797
744.67        57.43221
745.08         57.7984
745.50        57.90515
745.92        57.72482
746.34        57.48077
746.75        57.26139
747.17        57.11221
747.59        57.04915
748.01        57.17083
748.42        57.41172
748.84        57.34244
749.26        57.19416
749.68        57.30478
750.09        57.66703
750.51        57.94232
750.93         58.0349
751.35        57.88223
751.76        57.60017
752.18        57.54381
752.60        57.75734
753.01        58.06041
753.43        58.33452
753.85        58.48439
754.27        58.46935
754.68        58.43355
755.10        58.26579
755.52        58.27504
755.93        58.42511
756.35        58.65741
756.77        58.89771
757.18        59.05208
757.60        59.11048
758.02        59.10555
758.43        58.96296
758.85        59.02238
759.26        58.56449
759.68        58.50918
760.10        58.58941
760.51        59.20534
760.93        59.05798
761.34        59.09811
761.76        59.00453
762.18        58.65688
762.59        58.26869
763.01        58.47108
763.42         59.2081
763.84        59.54332
764.26        59.41233
764.67        59.14838
765.09        58.92855
765.50        59.05049
765.92        59.45063
766.33        59.40011
766.75        58.82808
767.16        58.93006
767.58         58.9662
768.00        59.03778
768.41        59.04549
768.83        59.70271
769.24        60.75811
769.66        61.28917
770.07        61.19235
770.49        60.69307
770.90        60.05564
771.32        59.97495
771.73        60.39903
772.15        60.42837
772.56        60.04805
772.97         59.8982
773.39        59.99234
773.80        60.04689
774.22          60.021
774.63        60.04296
775.05         60.0855
775.46        60.15429
775.88        60.22472
776.29        60.30547
776.70        60.37919
777.12        60.45312
777.53        60.53124
777.95        60.57242
778.36        60.59298
778.77        60.58218
779.19        60.55021
779.60        60.58112
780.02        60.61275
780.43        60.47078
780.84         60.2477
781.26        60.06171
781.67        60.01131
782.09          60.494
782.50        61.24035
782.91        61.11194
783.33        60.28165
783.74        60.10142
784.15        60.65847
784.57        61.12933
784.98        61.43771
785.39        61.80614
785.81        62.20169
786.22        62.36646
786.63         62.5881
787.04        62.60511
787.46        62.57184
787.87        62.20316
788.28         61.6305
788.70        62.24165
789.11        61.99435
789.52        62.65185
789.93        63.34309
790.35        63.26316
790.76        62.52598
791.17        62.17731
791.58        62.30945
792.00        62.27234
792.41        62.07933
792.82        61.97019
793.23        61.95434
793.65        62.15958
794.06        62.46329
794.47        62.28985
794.88        61.79998
795.29         61.6843
795.71          61.918
796.12        62.28384
796.53        62.61449
796.94        62.62486
797.35        62.30276
797.76        62.04367
798.18        61.97504
798.59        61.95046
799.00         62.0112
799.41        62.29643
799.82        62.69931
800.23         62.9384
800.64        62.94977
801.06        62.79373
801.47        62.58852
801.88        62.45298
802.29        62.43489
802.70        62.48613
803.11         62.5646
803.52        62.61219
803.93        62.62199
804.34        62.61922
804.75        62.62382
805.17        62.73282
805.58        63.00198
805.99        63.12403
806.40        63.09978
806.81        63.52689
807.22        64.12569
807.63        63.58434
808.04         62.1798
808.45        61.57615
808.86        61.93983
809.27        62.38577
809.68        62.73891
810.09        63.08321
810.50         63.3279
810.91        63.46455
811.32        63.49446
811.73        63.40104
812.14        63.20519
812.55         62.9608
812.96        62.77806
813.37        62.71353
813.78        62.86437
814.19        63.47394
814.60        64.31142
815.01        64.75271
815.42         64.7042
815.83        64.42143
816.24        64.04849
816.65        63.77957
817.05        63.72132
817.46        63.79401
817.87        63.94031
818.28        64.03839
818.69        64.04704
819.10        64.00378
819.51        63.93933
819.92        63.89864
820.33        63.89581
820.74        63.91046
821.14         63.8946
821.55        63.80766
821.96        63.63893
822.37        63.42647
822.78        63.24773
823.19        63.23226
823.60        63.42068
824.00        63.78843
824.41        64.23396
824.82        64.68448
825.23        65.07919
825.64        65.40266
826.04        65.64227
826.45        65.72072
826.86        65.65132
827.27         65.4572
827.68        65.13217
828.08        64.69247
828.49        64.14688
828.90        63.53341
829.31        63.00519
829.72        62.78254
830.12        62.93952
830.53        63.40354
830.94        63.97247
831.35        64.22773
831.75        64.07523
832.16        63.58633
832.57        63.08446
832.97        63.06444
833.38        63.60576
833.79        64.53305
834.20        65.53318
834.60        66.07508
835.01         65.9841
835.42        65.46425
835.82        64.73646
836.23        64.13271
836.64        63.77847
837.04         63.5853
837.45        63.53566
837.86        63.65911
838.26        63.93592
838.67        64.33877
839.08        64.75016
839.48        64.93487
839.89        64.82966
840.29        64.49783
840.70        64.07276
841.11        63.74439
841.51        63.59307
841.92        63.54617
842.33        63.61226
842.73        63.80721
843.14        64.06493
843.54        64.42847
843.95        64.78777
844.35        65.01412
844.76        65.04622
845.17        64.91232
845.57        64.70757
845.98          64.582
846.38        64.59492
846.79        64.69136
847.19        64.81879
847.60        64.81469
848.00        64.66393
848.41        64.40439
848.81        64.14268
849.22        64.01636
849.62        64.07291
850.03        64.24097
850.43        64.44992
850.84         64.4552
851.24        64.26383
851.65        63.92892
852.05        63.61761
852.46        63.56945
852.86        63.82211
853.27        64.24352
853.67        64.69299
854.07        65.23827
854.48        65.81677
854.88        66.14394
855.29         66.6439
855.69        66.53165
856.10         65.8811
856.50        64.84808
856.90        63.78995
857.31          63.216
857.71        63.22064
858.12         63.6291
858.52        64.26458
858.92        64.58862
859.33        64.41537
859.73        63.95945
860.13         63.3224
860.54        62.68818
860.94        62.15107
861.34        61.63879
861.75        61.27329
862.15        61.31437
862.55        61.77162
862.96        62.55569
863.36        63.42342
863.76         63.8829
864.17        63.81348
864.57        63.36227
864.97        62.74736
865.38        62.35446
865.78        62.32232
866.18         62.5046
866.58         62.8038
866.99        63.04306
867.39        63.17502
867.79        63.27961
868.19        63.29103
868.60        63.06725
869.00        62.60791
869.40        61.93404
869.80        61.31399
870.21        61.25016
870.61        61.88264
871.01        62.97955
871.41        64.09439
871.81        64.55548
872.22        64.21152
872.62        63.27953
873.02        62.08228
873.42        61.15928
873.82        60.72296
874.22        60.65865
874.63        60.85039
875.03        61.10666
875.43         61.3491
875.83        61.62296
876.23        62.00256
876.63        62.56899
877.03        63.29438
877.44        64.11928
877.84        64.83598
878.24        64.87772
878.64        64.50826
879.04        63.61498
879.44        62.61429
879.84        61.97662
880.24        61.82379
880.64        62.03093
881.04        62.40669
881.44        62.63046
881.84        62.60865
882.24        62.45079
882.65        62.23404
883.05        62.18523
883.45          62.325
883.85        62.55189
884.25        62.82112
884.65        63.09554
885.05        63.35357
885.45        63.61832
885.85        63.82456
886.25        63.85647
886.65        63.69112
887.05        63.34877
887.45        62.96453
887.85         62.7495
888.25          62.761
888.65        62.97368
889.04        63.22954
889.44        63.24083
889.84        62.96218
890.24        62.45798
890.64        61.98317
891.04        61.90626
891.44        62.28615
891.84        63.03773
892.24         63.7946
892.64         63.9374
893.04        63.34829
893.44        62.22597
893.83        61.10294
894.23        60.79028
894.63        61.41706
895.03        62.73973
895.43        64.20771
895.83        64.81129
896.23        64.29823
896.63        63.07513
897.02        61.64394
897.42         60.8034
897.82        60.68302
898.22        61.04943
898.62        61.73663
899.01         62.4943
899.41         63.1342
899.81        63.75549
900.21        64.30362
900.61        64.66946
901.00        64.82626
901.40        64.74743
901.80        64.49635
902.20        64.21049
902.59        63.95374
902.99        63.72094
903.39         63.5397
903.79        63.43179
904.18        63.38438
904.58        63.41185
904.98        63.48344
905.38        63.55763
905.77        63.60703
906.17        63.64754
906.57        63.62615
906.96        63.47885
907.36        63.19772
907.76        62.83419
908.15        62.51461
908.55        62.39463
908.95         62.5313
909.34         62.8818
909.74        63.33041
910.14        63.75883
910.53        64.08549
910.93        64.31372
911.33        64.41996
911.72        64.37095
912.12        64.19525
912.52        63.90887
912.91        63.51623
913.31        63.03632
913.70        62.52386
914.10        62.00943
914.49        61.64044
914.89        61.60859
915.29        61.93497
915.68        62.54616
916.08        63.24675
916.47        63.71029
916.87        63.83456
917.26        63.71214
917.66        63.45579
918.05        63.25196
918.45        63.16038
918.84        63.15437
919.24        63.22902
919.64        63.44086
920.03        63.78708
920.42        64.22574
920.82        64.66668
921.21        65.00378
921.61        65.16708
922.00        65.16676
922.40        64.99191
922.79        64.70576
923.19        64.34293
923.58        63.94117
923.98        63.48678
924.37        62.89612
924.77        62.20713
925.16        61.44887
925.55        60.82957
925.95        60.66846
926.34         61.0465
926.74         61.8261
927.13        62.80332
927.52        63.55504
927.92        63.93803
928.31        64.05566
928.70        64.00194
929.10        63.98118
929.49        64.07331
929.89        64.19048
930.28        64.29129
930.67        64.28219
931.07        64.13185
931.46        63.88562
931.85        63.61628
932.24          63.428
932.64        63.35183
933.03        63.40971
933.42        63.46853
933.82        63.33978
934.21        63.00075
934.60        62.48699
934.99        62.06857
935.39        62.12623
935.78        62.74728
936.17        63.85337
936.56        65.00605
936.96         65.4036
937.35        64.88538
937.74        63.65969
938.13        62.34262
938.53        61.76791
938.92        62.04515
939.31        62.95887
939.70          64.034
940.09        64.39752
940.49        63.82431
940.88        62.66576
941.27        61.38512
941.66        60.65277
942.05        60.64767
942.44        61.15005
942.84        61.96516
943.23        62.79667
943.62        63.42908
944.01        63.94468
944.40        64.28287
944.79        64.35193
945.18         64.1662
945.57        63.72849
945.97        63.16555
946.36        62.80145
946.75        62.68826
947.14        62.77706
947.53        62.98361
947.92        63.12765
948.31        63.14499
948.70        63.10081
949.09        63.03816
949.48        63.00859
949.87        63.04731
950.26        63.15501
950.65        63.32168
951.04        63.54514
951.43        63.80184
951.82        64.02749
952.21        64.28091
952.60        64.67919
952.99        65.18352
953.38        65.72166
953.77        66.01233
954.16        65.56698
954.55        64.36571
954.94        62.72031
955.33         61.0004
955.72        59.75226
956.11        59.14242
956.50        58.95166
956.89        59.27478
957.28        60.25689
957.66        61.83776
958.05        63.87759
958.44        65.65232
958.83         65.8072
959.22        64.11599
959.61        61.11349
960.00        57.90224
960.39        56.05535
960.78        55.92099
961.16        57.08451
961.55        58.96531
961.94        60.65059
962.33         61.7539
962.72        62.52714
963.11        62.97049
963.49        63.09519
963.88        62.91315
964.27        62.38129
964.66        61.68415
965.04        61.14417
965.43        60.82346
965.82         60.6824
966.21        60.68857
966.60        60.72252
966.98         60.7547
967.37        60.84652
967.76        60.93734
968.15        60.90217
968.53         60.7304
968.92        60.40127
969.31        60.11325
969.69         60.2116
970.08        60.70636
970.47        61.49486
970.86        62.23355
971.24        62.31537
971.63        61.54912
972.02        60.19874
972.40        58.65349
972.79        57.51362
973.17        56.99099
973.56        56.94016
973.95        57.21593
974.33        57.59079
974.72        57.92733
975.11        58.23782
975.49        58.68995
975.88        59.55051
976.26         60.8576
976.65        62.41407
977.04        63.62391
977.42        63.56985
977.81        62.14592
978.19         59.6721
978.58        57.34784
978.96        56.72784
979.35         58.1197
979.74        61.19655
980.12        65.03616
980.51        67.18578
980.89         66.9722
981.28        64.89791
981.66        62.16262
982.05        60.83808
982.43        61.43064
982.82        63.30523
983.20        65.73504
983.59        67.32106
983.97        67.71156
984.35        67.33714
984.74        66.45862
985.12         65.5986
985.51        64.92847
985.89        64.19526
986.28        63.61325
986.66        63.38769
987.04        63.63702
987.43        64.35565
987.81        65.14431
988.20        65.11829
988.58        64.12825
988.96        62.24501
989.35        60.30584
989.73        59.63611
990.12        60.45975
990.50        62.50391
990.88        64.53692
991.27        64.53284
991.65        62.22121
992.03        58.34169
992.42        54.50097
992.80        52.92226
993.18        54.21732
993.56        57.63234
993.95        61.92728
994.33        65.16849
994.71        66.39346
995.10        66.15298
995.48        64.86045
995.86        63.25797
996.24        61.78358
996.63         60.2322
997.01        58.81979
997.39        57.88649
997.77        57.45566
998.15        57.51501
998.54        57.94307
998.92        58.38342
999.30        58.69833
999.68        58.99594
1000.06         59.0933
1000.45        58.67872
1000.83        57.85301
1001.21        56.59757
1001.59        55.46628
1001.97         55.4512
1002.35        56.74257
1002.73        59.00616
1003.12        61.50869
1003.50         62.9486
1003.88        63.03373
1004.26        62.25145
1004.64        61.04004
1005.02        60.02983
1005.40        59.47055
1005.78        59.13808
1006.16        59.25732
1006.54        60.23092
1006.92        61.98437
1007.30        64.31837
1007.69        66.47913
1008.07        67.44339
1008.45        66.87299
1008.83         65.1314
1009.21          62.686
1009.59        60.38309
1009.97        58.61422
1010.35        57.18829
1010.73        56.42688
1011.11        56.81725
1011.49        58.47355
1011.86        61.64175
1012.24        65.31289
1012.62        67.87967
1013.00         68.7182
1013.38        67.83396
1013.76        66.50751
1014.14        67.31287
1014.52         70.8801
1014.90        76.47968
1015.28        81.79722
1015.66        82.69537
1016.04         78.7112
1016.41        72.08133
1016.79         65.6162
1017.17        61.73519
1017.55        60.52531
1017.93        61.17083
1018.31        63.17168
1018.69        64.71077
1019.06         64.6451
1019.44        63.86164
1019.82        62.77055
1020.20         61.4968
1020.58        60.05306
1020.95        58.08753
1021.33        56.07178
1021.71        55.28523
1022.09        56.43825
1022.46        59.19261
1022.84        62.72137
1023.22        66.04285
1023.60         68.7779
1023.97        71.15753
1024.35        72.55313
1024.73        71.97505
