SpectraSmart Spectrum 2.9.0.0
--------- Device Information -----------
Spectrum Name :  反射率_0
Saving Time :  2024/05/01 17:09:26
Spectro-Module Model Name : SE2030-DUVN
Spectro-Module Serial Number : OS361AC55029948
Wavelength Start : 200
Wavelength End : 1025
Wavelength Unit : Wavelength(nm)
Spectrum Unit : Reflectance(%)
-----------Spectrum Setting ------------
Integration Time : 20ms
Average : 10
Boxcar : 0
Background removal :  enabled
linearity correction :  enabled
SC :  disabled
Intensity correction :  disabled
DWT denoise :  enabled
savitzky-golay :  disabled
FFT :  disabled
Running average :  disabled
Kalman :  disabled
High pass :  disabled
---------------BEGIN--------------------
Wavelength(nm)             Reflectance(%)
200.29               0
200.75        226.7014
201.21        744.4236
201.67       -237.5753
202.13       -61.96004
202.58       -9.725022
203.04        19.78325
203.50        37.75724
203.96         46.8175
204.42        50.33366
204.88         47.9514
205.34       -37.24745
205.80         46.7706
206.26         16.0277
206.72       -47.74644
207.18       -366.3535
207.64         530.484
208.10        207.4104
208.55        123.9861
209.01        83.07306
209.47        66.58129
209.93        64.83698
210.39        69.58076
210.85        79.11078
211.31        94.88971
211.77        140.4614
212.23       -223.6903
212.69        3.611035
213.14        36.13834
213.60        89.95022
214.06       -428.5976
214.52       -63.52106
214.98       -34.15417
215.44       -17.34284
215.90         16.9117
216.36        500.3989
216.81       -249.0704
217.27       -318.9969
217.73        564.1805
218.19        89.92638
218.65        57.19161
219.11        75.56145
219.57        175.5446
220.02        646.6723
220.48        400.6581
220.94        149.7792
221.40        81.69709
221.86        59.93288
222.32        58.30795
222.77         68.6982
223.23          90.464
223.69        119.7419
224.15        131.0711
224.61        116.1152
225.06        93.04903
225.52         77.5524
225.98        74.79086
226.44        83.10712
226.90        101.6052
227.36        126.5356
227.81        138.8026
228.27        130.8013
228.73        114.6573
229.19        101.8876
229.65        99.12873
230.10          105.48
230.56        118.8426
231.02        135.7591
231.48        144.8821
231.93        140.8622
232.39         130.541
232.85        119.0902
233.31        110.8189
233.77        106.2313
234.22        103.4763
234.68           102.7
235.14        104.3076
235.60        108.4561
236.05        116.5097
236.51        128.2128
236.97        139.3298
237.43        144.5116
237.88        141.9377
238.34        134.3252
238.80         128.841
239.26        127.4152
239.71        130.0815
240.17        134.0261
240.63        129.8097
241.08        112.5411
241.54        90.26791
242.00        74.67675
242.46        72.03893
242.91         83.0161
243.37        110.2727
243.83        157.6567
244.28        191.3339
244.74        176.7422
245.20        144.0845
245.66        116.4162
246.11        97.81889
246.57        82.85413
247.03        64.06508
247.48        36.59668
247.94        4.916845
248.40       -15.88946
248.85        -20.0904
249.31       -8.767078
249.77        7.480134
250.22        21.67887
250.68        32.94431
251.14        41.05099
251.59        47.08739
252.05        53.28129
252.51        62.89864
252.96        83.47686
253.42        122.2349
253.88        139.5418
254.33        119.4896
254.79        103.2364
255.25        97.66193
255.70        96.83601
256.16        98.18154
256.62        99.07423
257.07        97.79155
257.53        95.99094
257.99        94.28171
258.44        93.22798
258.90         94.0933
259.35        96.06909
259.81        98.91188
260.27         101.631
260.72        102.9882
261.18        103.2317
261.63        102.4011
262.09        101.3412
262.55        100.2484
263.00        99.04332
263.46        97.92427
263.91        96.60033
264.37        95.34692
264.83        94.08105
265.28        92.83797
265.74        91.74606
266.19        90.48798
266.65        89.22531
267.11        87.87117
267.56        86.71492
268.02        86.35529
268.47        86.75674
268.93        87.69698
269.38        88.53667
269.84        88.22095
270.30        86.57927
270.75        83.96129
271.21        81.10911
271.66        78.97413
272.12        77.86175
272.57        77.35042
273.03        77.14216
273.48         76.6475
273.94        75.77528
274.39        74.70206
274.85        73.52824
275.31        72.20141
275.76        70.74931
276.22        69.26093
276.67        67.86287
277.13        66.99689
277.58        66.54432
278.04        66.42065
278.49        66.23213
278.95        65.58808
279.40         64.3426
279.86        62.78774
280.31        61.06113
280.77        59.55521
281.22        58.26761
281.68        57.20157
282.13        56.24366
282.59        55.41731
283.04        54.63099
283.50        53.97355
283.95        53.36757
284.41        52.79963
284.86        52.22985
285.32        51.69305
285.77         51.2021
286.22        50.87545
286.68        50.70529
287.13        50.61354
287.59        50.49213
288.04        50.12012
288.50        49.51133
288.95        48.69054
289.41        47.86778
289.86        47.19635
290.32        46.76019
290.77        46.47811
291.22        46.24517
291.68        45.88031
292.13        45.34291
292.59        44.73577
293.04         44.1799
293.50        43.92702
293.95        43.99717
294.40         44.3106
294.86        44.71671
295.31        44.98949
295.77        45.06156
296.22        44.98338
296.68        44.84106
297.13        44.73045
297.58        44.70501
298.04        44.75557
298.49        44.83133
298.95        44.90973
299.40         44.9614
299.85        44.99805
300.31        45.10135
300.76        45.36157
301.21        45.78497
301.67        46.34015
302.12        46.83538
302.58        47.01712
303.03         46.8273
303.48        46.39127
303.94        45.97635
304.39         45.8774
304.84        46.17932
305.30        46.76284
305.75        47.42419
306.20        47.87841
306.66        48.05415
307.11        48.01205
307.57        47.87498
308.02        47.74987
308.47        47.69342
308.93        47.66533
309.38        47.60535
309.83        47.49116
310.29        47.32787
310.74        47.13789
311.19        46.94591
311.65        46.76424
312.10        46.59237
312.55        46.42591
313.00        46.29601
313.46        46.25174
313.91        46.28355
314.36        46.36919
314.82        46.42709
315.27        46.34214
315.72        46.08331
316.18        45.69771
316.63         45.2491
317.08         44.8539
317.53        44.54222
317.99        44.28652
318.44        44.04783
318.89        43.77043
319.35        43.44481
319.80        43.10093
320.25        42.77078
320.70        42.49589
321.16        42.27758
321.61        42.10385
322.06        41.95066
322.51        41.78901
322.97        41.59609
323.42        41.39309
323.87        41.16466
324.32        40.90088
324.78        40.60089
325.23          40.285
325.68        39.96986
326.13        39.69196
326.59        39.45084
327.04        39.25553
327.49        39.08501
327.94        38.91367
328.39        38.73152
328.85        38.53376
329.30        38.34291
329.75        38.14895
330.20        37.95465
330.66        37.74807
331.11        37.55839
331.56        37.39184
332.01        37.25161
332.46        37.13524
332.92        37.01918
333.37        36.90397
333.82        36.77587
334.27        36.64907
334.72        36.53308
335.17        36.44836
335.63         36.3883
336.08        36.35232
336.53        36.34529
336.98        36.39482
337.43        36.49419
337.88         36.6394
338.34        36.73124
338.79        36.63227
339.24        36.31372
339.69        35.82338
340.14        35.32807
340.59        35.09226
341.05        35.16524
341.50        35.47742
341.95        35.85549
342.40        36.01365
342.85        35.88254
343.30         35.5622
343.75        35.19016
344.20        34.97911
344.66        34.98772
345.11         35.1295
345.56        35.34549
346.01        35.53831
346.46         35.6628
346.91        35.75298
347.36        35.78937
347.81        35.73829
348.26        35.60722
348.72        35.41177
349.17        35.19208
349.62        35.06038
350.07        35.03662
350.52        35.08572
350.97        35.15343
351.42        35.14374
351.87        35.03445
352.32        34.87196
352.77        34.66597
353.22        34.43189
353.67        34.18699
354.13        33.92819
354.58        33.70419
355.03        33.63387
355.48         33.7263
355.93        33.95648
356.38        34.18415
356.83        34.17195
357.28        33.87766
357.73        33.38141
358.18        32.86803
358.63        32.61325
359.08        32.66496
359.53        32.92685
359.98        33.24372
360.43        33.35438
360.88        33.18534
361.33        32.83304
361.78        32.39664
362.23         32.0154
362.68        31.73412
363.13        31.50295
363.58        31.31458
364.03        31.16833
364.48        31.04752
364.93        30.94951
365.38        30.83972
365.83        30.65333
366.28        30.37912
366.73        30.04598
367.18        29.66577
367.63        29.26767
368.08        28.88388
368.53        28.51588
368.98        28.22524
369.43        28.09848
369.88        28.13198
370.33        28.28933
370.78        28.46464
371.23        28.47014
371.68        28.25388
372.13        27.87674
372.58        27.42303
373.03         27.0213
373.48        26.71497
373.93        26.46948
374.38        26.28837
374.83        26.17827
375.28         26.1283
375.72        26.13447
376.17        26.15556
376.62        26.11315
377.07        25.98804
377.52        25.79504
377.97        25.56304
378.42        25.34564
378.87        25.16209
379.32        25.00066
379.77        24.85604
380.22        24.71764
380.67        24.58282
381.11        24.46452
381.56        24.36324
382.01        24.28156
382.46        24.22376
382.91        24.19039
383.36        24.17615
383.81        24.17677
384.26        24.18282
384.71         24.1773
385.15        24.16018
385.60        24.15666
386.05        24.15404
386.50        24.14781
386.95        24.08762
387.40        23.89823
387.85        23.58849
388.29        23.18901
388.74        22.82611
389.19        22.60535
389.64        22.54642
390.09        22.60294
390.54        22.72132
390.98        22.80872
391.43        22.83887
391.88        22.83737
392.33        22.79999
392.78        22.73177
393.23        22.64396
393.67        22.49737
394.12        22.35332
394.57        22.32843
395.02        22.39881
395.47        22.39323
395.91        22.31753
396.36        22.30246
396.81        22.35381
397.26        22.39534
397.71        22.39381
398.15        22.35376
398.60        22.30009
399.05        22.14094
399.50        21.95246
399.95         22.0034
400.39        22.23543
400.84        22.23488
401.29        21.98638
401.74        21.82049
402.18        21.75269
402.63        21.57015
403.08        21.34103
403.53        21.26842
403.97        21.36438
404.42        21.56658
404.87        21.77692
405.32        21.84142
405.76        21.72281
406.21        21.48342
406.66        21.20534
407.11        21.01927
407.55        20.96825
408.00        21.01163
408.45        21.10808
408.90        21.15361
409.34        21.12847
409.79        21.11571
410.24        21.11499
410.68        21.07281
411.13         20.9967
411.58        20.91061
412.03        20.83053
412.47        20.78039
412.92        20.76373
413.37          20.776
413.81         20.8024
414.26        20.83678
414.71        20.86592
415.15        20.90039
415.60        20.91354
416.05        20.88345
416.49        20.80936
416.94         20.6975
417.39        20.58684
417.83        20.53889
418.28        20.56659
418.73        20.65073
419.17        20.75136
419.62        20.79645
420.07        20.77307
420.51        20.70161
420.96        20.62515
421.41        20.58274
421.85        20.57828
422.30        20.60289
422.74        20.64395
423.19        20.70553
423.64        20.77673
424.08        20.86965
424.53        20.93458
424.98        20.91661
425.42        20.81275
425.87        20.64545
426.31        20.47342
426.76        20.39866
427.21        20.43519
427.65        20.54645
428.10        20.70024
428.54        20.83651
428.99        20.93659
429.44        21.04588
429.88        21.10194
430.33        21.02206
430.77        20.81517
431.22        20.53904
431.66        20.29065
432.11        20.28016
432.56        20.46819
433.00         20.6311
433.45         20.6289
433.89        20.44735
434.34        20.00274
434.78        20.01342
435.23        20.58308
435.67        20.78614
436.12        20.64126
436.57        20.59851
437.01        20.69143
437.46        20.71838
437.90        20.67714
438.35        20.65919
438.79        20.64525
439.24        20.55212
439.68        20.41214
440.13        20.38932
440.57        20.46833
441.02         20.4957
441.46        20.45648
441.91        20.42604
442.35        20.39596
442.80        20.43217
443.24         20.4971
443.69        20.46523
444.13        20.34069
444.58        20.26774
445.02        20.24509
445.47        20.20159
445.91        20.16298
446.36        20.20674
446.80        20.33237
447.24        20.51368
447.69        20.69462
448.13        20.78678
448.58        20.77179
449.02        20.66835
449.47        20.53151
449.91        20.43562
450.36        20.40808
450.80        20.42309
451.25        20.44625
451.69        20.40965
452.13        20.30423
452.58        20.16001
453.02        20.01677
453.47        19.94701
453.91        19.96201
454.36        20.04074
454.80         20.1391
455.24        20.18677
455.69        20.17092
456.13         20.1036
456.58        20.03093
457.02        19.99586
457.46        20.01448
457.91        20.06807
458.35        20.12688
458.79        20.11562
459.24        20.03304
459.68        19.95941
460.13        19.95207
460.57        19.69481
461.01        19.76915
461.46        19.72926
461.90        19.75092
462.34        19.75965
462.79        19.85917
463.23        19.95189
463.68        20.04474
464.12        20.09959
464.56        20.10874
465.01        20.11602
465.45        20.08766
465.89        20.00759
466.34        19.88648
466.78        19.72125
467.22        19.57085
467.67        19.57294
468.11        19.66576
468.55        19.88704
468.99        20.12853
469.44        20.25831
469.88         20.2482
470.32        20.13042
470.77        19.97247
471.21        19.88759
471.65        19.90638
472.10        19.99437
472.54        20.09929
472.98        20.15193
473.42        20.13652
473.87        20.09199
474.31         20.0327
474.75        19.99804
475.20        20.00478
475.64        20.02263
476.08        20.04822
476.52        20.13038
476.97        20.27287
477.41        20.36514
477.85         20.3414
478.29        20.67212
478.74        20.45944
479.18        20.39939
479.62        20.27242
480.06        20.27326
480.50        20.42719
480.95         20.3134
481.39        20.58519
481.83        20.60484
482.27        20.57417
482.72        20.51541
483.16        20.46611
483.60        20.49043
484.04        20.57488
484.48        20.67719
484.93         20.8792
485.37        21.08247
485.81        21.15641
486.25        21.65478
486.69        20.97814
487.14        20.42799
487.58        20.79649
488.02        21.19571
488.46        21.08441
488.90        21.29844
489.34        21.24573
489.79        21.03418
490.23        21.46024
490.67        21.73096
491.11        22.02744
491.55        22.03372
491.99        21.81739
492.43        21.79072
492.88        21.97866
493.32        22.11974
493.76        22.19294
494.20        22.31769
494.64        22.49568
495.08        22.66765
495.52        22.81427
495.96        22.98126
496.41        23.13862
496.85        23.11684
497.29        22.98003
497.73           23.07
498.17        23.35988
498.61        23.45972
499.05        23.37959
499.49        23.43879
499.93        23.64399
500.37        23.81698
500.82        23.94216
501.26        24.07253
501.70          24.203
502.14        24.31668
502.58        24.41032
503.02        24.48179
503.46        24.53463
503.90        24.57465
504.34        24.61721
504.78        24.68452
505.22        24.78029
505.66        24.89659
506.10        25.01634
506.54        25.10973
506.98         25.1674
507.42        25.19935
507.86        25.21116
508.30        25.21138
508.74        25.20745
509.18        25.19935
509.62            25.2
510.06        25.23098
510.50        25.29587
510.94        25.38792
511.38        25.49038
511.82        25.57498
512.26        25.63063
512.70        25.66045
513.14        25.66973
513.58        25.66949
514.02        25.66432
514.46         25.6528
514.90        25.63232
515.34        25.59886
515.78        25.55635
516.22        25.51308
516.66        25.48215
517.10         25.4811
517.54        25.51224
517.98         25.5666
518.42        25.63376
518.86        25.69618
519.30        25.74431
519.74        25.77955
520.18        25.79376
520.62        25.77692
521.06        25.72927
521.50        25.65279
521.93        25.56714
522.37        25.49971
522.81        25.46196
523.25        25.45116
523.69        25.44877
524.13        25.42243
524.57         25.3676
525.01        25.29582
525.45         25.2321
525.89        25.21542
526.32        25.25066
526.76        25.31826
527.20        25.38969
527.64        25.42085
528.08        25.39873
528.52        25.33892
528.96        25.25352
529.40        25.16149
529.83        25.07015
530.27        24.98203
530.71         24.9049
531.15        24.85759
531.59        24.84127
532.03        24.84921
532.46        24.86198
532.90        24.85217
533.34        24.81431
533.78        24.73963
534.22        24.63987
534.66         24.5764
535.09        24.53215
535.53        24.41413
535.97        24.25257
536.41        24.18266
536.85        24.21565
537.28        24.28997
537.72        24.36903
538.16        24.41739
538.60        24.42218
539.04        24.39351
539.47        24.36551
539.91         24.4065
540.35        24.52038
540.79        24.69273
541.22        24.88212
541.66        24.98594
542.10        25.05235
542.54        25.05502
542.97        25.04351
543.41        25.07963
543.85        25.17486
544.29        25.31103
544.72        25.46892
545.16        25.63189
545.60        25.78685
546.04        25.93795
546.47         26.0836
546.91        26.22402
547.35        26.35907
547.79        26.47973
548.22        26.56942
548.66        26.66267
549.10        26.76474
549.53        26.75017
549.97        26.87571
550.41        27.00048
550.84        27.19723
551.28        27.45555
551.72        27.73406
552.15        27.93591
552.59        28.05672
553.03        28.15651
553.46        28.24829
553.90        28.37134
554.34        28.53467
554.77        28.67658
555.21        28.76009
555.65        29.04106
556.08        28.96505
556.52        29.00397
556.96        29.00557
557.39        29.01663
557.83        29.05459
558.27        29.06876
558.70        29.07619
559.14        29.24592
559.57        29.31621
560.01        29.53405
560.45        29.74088
560.88        29.78736
561.32        29.72336
561.75        29.59268
562.19        29.49982
562.63        29.72972
563.06        30.16396
563.50        30.16192
563.93        29.78631
564.37         29.7201
564.80        29.97147
565.24        30.16638
565.68        30.27202
566.11        30.41418
566.55        30.59223
566.98        30.75446
567.42        30.91013
567.85        31.04942
568.29        31.18284
568.72        31.29846
569.16        31.42936
569.60        31.51749
570.03         31.5406
570.47        31.63414
570.90         31.9216
571.34        31.62526
571.77        31.97045
572.21        32.05472
572.64        32.23344
573.08        32.21098
573.51        32.69117
573.95        32.71815
574.38        32.59726
574.82        32.96595
575.25        32.96233
575.69        33.04869
576.12        32.96463
576.56        33.22551
576.99        33.24296
577.42        33.18262
577.86        33.40763
578.29        33.10093
578.73        33.39275
579.16        33.11118
579.60        32.66916
580.03        32.49714
580.47        32.81632
580.90        32.35729
581.33        32.87409
581.77        33.16164
582.20        32.96281
582.64        32.57204
583.07        32.51839
583.51        32.26695
583.94        32.14857
584.37        32.08979
584.81        32.10323
585.24        32.03454
585.68        31.89279
586.11        31.76633
586.54        31.86558
586.98        31.48747
587.41        31.37198
587.85        31.61699
588.28        31.44611
588.71        31.11168
589.15        31.53574
589.58        31.05617
590.01        31.27952
590.45        31.25031
590.88         31.3534
591.31        31.39054
591.75        31.34279
592.18        31.27657
592.61        31.21655
593.05        31.24863
593.48        31.46455
593.91        31.47661
594.35        31.54355
594.78        31.59196
595.21        31.68025
595.65         31.7684
596.08        31.86648
596.51        31.93946
596.94        32.05661
597.38        32.24272
597.81        32.56097
598.24        32.38616
598.68        33.05676
599.11        32.97385
599.54        33.59378
599.97         33.6678
600.41        34.11933
600.84          34.386
601.27        34.76001
601.70        35.27288
602.14        35.67181
602.57        35.94929
603.00        36.07531
603.43         36.2387
603.87        36.70697
604.30        37.12452
604.73        37.32193
605.16        37.64959
605.60        38.02658
606.03        38.56181
606.46        39.09456
606.89        39.39195
607.32        39.50109
607.76        39.73923
608.19        40.12827
608.62        40.72327
609.05        41.16211
609.48        41.37136
609.92        41.43423
610.35         41.4428
610.78        42.49025
611.21        43.02184
611.64        42.95854
612.07        43.27524
612.50        43.75153
612.94        44.02198
613.37         44.0766
613.80        44.18051
614.23        44.32469
614.66        44.75662
615.09        44.77004
615.52        44.99627
615.96        45.22119
616.39        45.54194
616.82        45.96562
617.25        46.08608
617.68        46.55028
618.11        46.68146
618.54        46.67469
618.97        46.62943
619.40        46.68552
619.84        46.59576
620.27        46.83654
620.70        47.34658
621.13        48.18055
621.56        47.74664
621.99        47.72918
622.42        47.90638
622.85        48.17793
623.28        48.20489
623.71        47.98592
624.14         48.1362
624.57        48.12925
625.00        48.18077
625.43        48.11363
625.86        48.07653
626.29        48.05288
626.72        47.81153
627.15        47.69049
627.58         47.3891
628.01        47.06253
628.44        46.90274
628.87         46.8253
629.30        46.67112
629.73        46.41772
630.16        46.20723
630.59        46.02674
631.02        45.78948
631.45        45.49028
631.88        45.16355
632.31        44.81305
632.74        44.42825
633.17         44.0335
633.60        43.66757
634.03        43.33799
634.46        43.04004
634.89        42.74277
635.32        42.39341
635.75         41.9839
636.18        41.53319
636.61        41.07986
637.04        40.68393
637.47        40.36051
637.89        40.08225
638.32        39.80119
638.75         39.5044
639.18        39.19069
639.61        38.71545
640.04        38.40186
640.47        38.06012
640.90           37.79
641.33        37.56418
641.76        37.36821
642.18        37.23066
642.61        37.14626
643.04        37.03204
643.47        36.84868
643.90        37.05199
644.33        36.83979
644.76        36.80179
645.18        36.74083
645.61        36.86373
646.04        37.11773
646.47        37.20081
646.90        37.14091
647.33        37.23223
647.75        37.48542
648.18        37.72155
648.61        37.94097
649.04        38.18995
649.47        38.46226
649.89        38.86117
650.32        39.32581
650.75        39.51279
651.18         39.5192
651.61        39.95793
652.03        40.81647
652.46         41.3548
652.89        41.52493
653.32        41.97375
653.74        42.85277
654.17        42.83745
654.60        43.45343
655.03        44.18695
655.46        44.44246
655.88        44.89943
656.31        50.24566
656.74        49.44497
657.16        45.86755
657.59        45.56681
658.02        47.18998
658.45        47.23417
658.87        47.73932
659.30        47.70442
659.73        48.10944
660.15         49.1875
660.58        48.97364
661.01        49.25492
661.44        49.48308
661.86         49.8106
662.29        50.23849
662.72        50.63522
663.14        51.00567
663.57        51.37695
664.00        51.72029
664.42        51.95037
664.85         52.0722
665.27        52.10478
665.70        52.11149
666.13        52.19224
666.55        52.38256
666.98        52.65196
667.41        52.97372
667.83        53.28908
668.26        53.54763
668.69         53.7983
669.11        54.05515
669.54        54.22108
669.96        54.26035
670.39         54.6377
670.82        54.61308
671.24        54.61079
671.67        54.67689
672.09        54.96586
672.52        55.43284
672.94        55.63268
673.37        55.54898
673.80        55.35968
674.22        55.18779
674.65        55.21724
675.07        55.45558
675.50        55.64907
675.92        55.78733
676.35        55.95069
676.77         56.1092
677.20        56.32339
677.62        56.64583
678.05        56.33455
678.47        56.78288
678.90        56.85498
679.32        56.95734
679.75        57.07169
680.17        57.20292
680.60         57.3415
681.02        57.47001
681.45        57.58087
681.87        57.67959
682.30        57.76393
682.72        57.85493
683.15         57.9481
683.57        58.05449
684.00        58.18296
684.42        58.31922
684.85        58.42759
685.27        58.48643
685.70        58.54813
686.12        58.60727
686.54        58.57827
686.97        58.49426
687.39        58.60558
687.82        58.84886
688.24        58.82866
688.66         58.6021
689.09        58.66076
689.51        59.01473
689.94        59.24115
690.36        59.32676
690.78        59.52713
691.21        59.84095
691.63        60.05066
692.06        60.20093
692.48        60.59293
692.90        61.11921
693.33        61.35393
693.75        61.26032
694.17        60.98524
694.60        60.69874
695.02        60.63188
695.44        60.77847
695.87         61.0359
696.29        61.29481
696.71        61.13767
697.14        60.74673
697.56        61.03459
697.98        61.87151
698.41        62.24675
698.83        62.10194
699.25        62.00754
699.68        62.02354
700.10        62.04734
700.52        62.09778
700.94        62.16082
701.37        62.23182
701.79        62.41772
702.21        62.64284
702.64        62.73564
703.06        62.70342
703.48        62.62494
703.90          62.499
704.33        62.68505
704.75        62.42466
705.17        62.47069
705.59        62.60043
706.01        62.78173
706.44        62.99915
706.86        63.25069
707.28        63.49044
707.70        63.76022
708.12        63.99849
708.55        63.92455
708.97        63.63031
709.39         63.6172
709.81        63.87198
710.23        63.94094
710.66         63.8084
711.08        63.77483
711.50        63.84428
711.92        63.89417
712.34        63.92495
712.76        63.97562
713.19        64.03085
713.61         64.1095
714.03        64.19068
714.45           64.26
714.87        64.33715
715.29        64.45837
715.71        64.62624
716.13        64.83455
716.56        65.00786
716.98        65.10228
717.40        65.07478
717.82        64.94569
718.24        64.80861
718.66        64.81496
719.08        64.99058
719.50        65.28595
719.92        65.58659
720.34        65.70392
720.76        65.59509
721.19         65.3279
721.61        65.00993
722.03        64.80219
722.45        64.76349
722.87        64.85835
723.29        65.03941
723.71        65.22705
724.13        65.38239
724.55        65.50961
724.97        65.64125
725.39        65.82093
725.81        66.04398
726.23        66.30969
726.65        66.51004
727.07        66.42703
727.49        66.07504
727.91        65.64458
728.33        65.28235
728.75         65.1152
729.17         65.2026
729.59         65.5137
730.01        65.91872
730.43        66.24769
730.85         66.4493
731.27        66.22144
731.69        66.27616
732.10        66.16006
732.52        66.10135
732.94        66.04081
733.36        66.02799
733.78        66.09382
734.20        66.22283
734.62        66.56118
735.04        66.98808
735.46         66.9451
735.88        66.57894
736.30        66.75412
736.72        67.37653
737.13        67.65682
737.55        67.47952
737.97        67.07434
738.39        66.64799
738.81        66.68367
739.23        67.15538
739.65        67.44234
740.06        67.43072
740.48        67.53608
740.90        67.71191
741.32        67.72652
741.74        67.58023
742.16        67.42621
742.57        67.29697
742.99        67.15163
743.41        67.06661
743.83        67.11722
744.25        67.32346
744.67        67.73383
745.08        68.21835
745.50        68.40632
745.92         68.2495
746.34        67.87675
746.75        67.43137
747.17        67.15369
747.59        67.10173
748.01        67.21915
748.42        67.44164
748.84        67.65609
749.26        67.83145
749.68        67.90082
750.09        67.90022
750.51        68.12647
750.93        68.47327
751.35        68.40626
751.76         68.0069
752.18        67.85735
752.60        68.00784
753.01        68.16535
753.43        68.25616
753.85         68.3371
754.27        68.39651
754.68        68.43057
755.10        68.47485
755.52        68.57956
755.93        68.72809
756.35        68.87753
756.77        69.01688
757.18        69.04497
757.60        68.96194
758.02        69.05659
758.43        69.16604
758.85        68.73225
759.26        67.92366
759.68        67.81335
760.10        68.29926
760.51        69.32536
760.93        69.74177
761.34        68.93891
761.76        69.75043
762.18        69.00401
762.59        68.01711
763.01         68.1433
763.42        69.31321
763.84        69.78564
764.26        69.43076
764.67        69.07373
765.09        68.92134
765.50        69.14895
765.92        69.63248
766.33        69.50111
766.75        68.75613
767.16         68.5723
767.58        69.00765
768.00        69.16911
768.41        69.14332
768.83        69.90063
769.24        71.13179
769.66        71.45337
770.07        70.89259
770.49        70.40035
770.90        70.18309
771.32         70.2141
771.73        70.40731
772.15        70.36849
772.56        70.09821
772.97        69.87878
773.39        69.75019
773.80         69.9924
774.22        69.99449
774.63        70.29071
775.05        70.59065
775.46         70.7773
775.88        70.78413
776.29        70.69182
776.70         70.5519
777.12        70.46243
777.53        70.46369
777.95        70.48174
778.36        70.54308
778.77        70.60065
779.19        70.63303
779.60         70.8683
780.02        71.15916
780.43        70.82908
780.84        70.10733
781.26         69.9893
781.67        70.47461
782.09        70.94838
782.50        71.17668
782.91        70.83656
783.33        70.14671
783.74        70.04173
784.15        70.60374
784.57        71.20242
784.98        71.74386
785.39        72.29288
785.81        72.77268
786.22        73.00562
786.63         73.3289
787.04         73.1096
787.46        72.60391
787.87        72.19687
788.28        72.05658
788.70        72.03829
789.11        72.14004
789.52        72.64651
789.93        73.30766
790.35        73.35246
790.76        72.81138
791.17        72.34145
791.58        72.11665
792.00         71.9301
792.41        71.85553
792.82        72.12302
793.23        72.56911
793.65        72.74962
794.06        72.60698
794.47        72.29853
794.88        72.01827
795.29        71.95495
795.71         72.0788
796.12        72.56342
796.53        73.17884
796.94        73.12981
797.35        72.44285
797.76        72.08615
798.18         72.1839
798.59        72.15836
799.00        72.04719
799.41        72.22756
799.82        72.63669
800.23        72.94408
800.64        73.08573
801.06        73.13372
801.47        73.11991
801.88        72.99965
802.29        72.78956
802.70        72.48473
803.11        72.18011
803.52        72.04174
803.93        72.12456
804.34        72.39791
804.75        72.76308
805.17        73.13195
805.58        73.50296
805.99        73.52789
806.40        73.31312
806.81        73.83237
807.22        74.74962
807.63        74.23522
808.04        72.56747
808.45        71.83912
808.86        72.23617
809.27          72.622
809.68        72.83817
810.09        73.12888
810.50        73.41899
810.91        73.65041
811.32        73.78781
811.73        73.77468
812.14        73.61533
812.55        73.32395
812.96        73.03427
813.37        72.97734
813.78        73.20506
814.19        73.65567
814.60         74.1646
815.01        74.46877
815.42        74.50423
815.83        74.34176
816.24        74.08478
816.65        73.93557
817.05        73.96951
817.46        74.08959
817.87        74.25324
818.28        74.36061
818.69        74.37771
819.10        74.33842
819.51        74.25842
819.92         74.1599
820.33        74.05826
820.74        73.94578
821.14        73.81724
821.55        73.69362
821.96        73.57208
822.37        73.47975
822.78        73.43568
823.19        73.46143
823.60        73.57168
824.00        73.77782
824.41        74.04787
824.82         74.4437
825.23         74.9362
825.64        75.46085
826.04        75.94708
826.45        76.20532
826.86        76.21358
827.27        76.03305
827.68        75.65726
828.08         75.1052
828.49        74.40079
828.90        73.58074
829.31        72.87226
829.72        72.61636
830.12        72.91399
830.53        73.66225
830.94        74.55312
831.35        74.96432
831.75           74.74
832.16        73.99474
832.57         73.1773
832.97        72.97684
833.38        73.51986
833.79        74.58324
834.20        75.74303
834.60        76.28187
835.01        75.97961
835.42        75.11188
835.82        74.03992
836.23        73.30738
836.64        73.08132
837.04        73.20309
837.45        73.51353
837.86        73.81448
838.26        74.02313
838.67        74.18247
839.08        74.28468
839.48        74.27228
839.89        74.13924
840.29        73.89175
840.70          73.619
841.11        73.44326
841.51        73.41511
841.92        73.48357
842.33        73.65311
842.73        73.92543
843.14        74.23177
843.54        74.62254
843.95        74.98277
844.35        75.20456
844.76        75.22385
845.17        75.05025
845.57        74.81258
845.98        74.71179
846.38        74.80968
846.79        75.04398
847.19        75.25743
847.60        75.09159
848.00        74.51926
848.41        73.65988
848.81        72.81731
849.22        72.42444
849.62        72.59191
850.03        73.16128
850.43        73.90572
850.84        74.27657
851.24        74.18485
851.65        73.75497
852.05        73.25172
852.46        73.07305
852.86        73.30111
853.27        73.76982
853.67        74.30723
854.07        74.88872
854.48        75.40784
854.88        76.00076
855.29        76.36961
855.69        76.23566
856.10        75.44727
856.50        74.21818
856.90         72.9546
857.31        72.24941
857.71        72.22378
858.12        72.67048
858.52        73.42408
858.92        73.93139
859.33        73.97559
859.73        73.75506
860.13        73.31517
860.54        72.76668
860.94        72.18696
861.34        71.51806
861.75        70.90687
862.15         70.6773
862.55        70.87623
862.96        71.42529
863.36        72.10657
863.76        72.45455
864.17        72.35374
864.57        71.94626
864.97        71.44896
865.38        71.23589
865.78        71.43464
866.18        71.89159
866.58        72.43758
866.99        72.77742
867.39        72.83935
867.79        72.72193
868.19        72.47202
868.60        72.11554
869.00        71.68718
869.40        71.17631
869.80        70.74434
870.21        70.69379
870.61        71.12788
871.01        71.88678
871.41        72.66479
871.81        72.99508
872.22        72.76869
872.62        72.13305
873.02        71.30247
873.42        70.63803
873.82        70.29258
874.22        70.20103
874.63        70.30782
875.03        70.51792
875.43        70.78268
875.83        71.10863
876.23        71.53524
876.63         72.1143
877.03        72.81364
877.44        73.56189
877.84        74.16818
878.24        74.28162
878.64        73.85641
879.04        73.02842
879.44        72.11353
879.84        71.59016
880.24        71.56227
880.64        71.88641
881.04        72.36462
881.44        72.65564
881.84        72.66232
882.24        72.51851
882.65         72.2475
883.05         72.0093
883.45        71.83125
883.85        71.64455
884.25        71.58134
884.65        71.85399
885.05        72.46921
885.45        73.38319
885.85        74.28876
886.25        74.64539
886.65        74.32016
887.05        73.45351
887.45        72.45424
887.85        71.97329
888.25        72.17127
888.65        72.87891
889.04        73.70825
889.44        74.00185
889.84        73.61639
890.24        72.75173
890.64        71.83192
891.04        71.45798
891.44        71.75822
891.84        72.58393
892.24        73.48344
892.64        73.70226
893.04        73.08293
893.44        71.86456
893.83        70.67709
894.23        70.47897
894.63        71.41292
895.03        73.18102
895.43        75.06689
895.83        75.77536
896.23        74.99093
896.63        73.23029
897.02         71.2058
897.42        70.01184
897.82        69.83651
898.22        70.39123
898.62         71.3721
899.01        72.29086
899.41        72.88425
899.81        73.31396
900.21        73.71113
900.61        74.27555
901.00        75.02596
901.40        75.79697
901.80        76.35469
902.20        76.39451
902.59        75.88619
902.99        74.96605
903.39        73.93106
903.79        73.24662
904.18         73.0281
904.58        73.16563
904.98        73.45947
905.38        73.59621
905.77        73.49109
906.17        73.29296
906.57        73.03513
906.96         72.7832
907.36        72.56683
907.76        72.34428
908.15        72.27605
908.55         72.5872
908.95        73.30243
909.34        74.35605
909.74        75.38747
910.14        75.88539
910.53        75.71613
910.93        75.01886
911.33        74.12749
911.72        73.57933
912.12        73.53945
912.52        73.85759
912.91        74.25974
913.31        74.28132
913.70        73.82388
914.10        73.06324
914.49        72.29852
914.89        71.95538
915.29        72.13812
915.68        72.70099
916.08        73.39693
916.47        73.83925
916.87        73.90684
917.26        73.72552
917.66        73.46478
918.05         73.3773
918.45        73.52028
918.84        73.83248
919.24        74.19834
919.64        74.50501
920.03        74.71259
920.42        74.84446
920.82        74.92731
921.21        75.01625
921.61        75.09248
922.00        75.13593
922.40        75.11517
922.79         75.0628
923.19         74.9734
923.58        74.87469
923.98        74.72083
924.37        74.37114
924.77        73.86114
925.16          73.219
925.55        72.65884
925.95        72.51412
926.34        72.88232
926.74        73.61753
927.13        74.53088
927.52        75.21488
927.92        75.53109
928.31        75.59057
928.70        75.48148
929.10        75.39136
929.49        75.40434
929.89        75.43941
930.28        75.46549
930.67         75.3959
931.07         75.2013
931.46        74.92491
931.85        74.64581
932.24        74.48365
932.64        74.46526
933.03        74.59727
933.42        74.71629
933.82        74.58819
934.21        74.18026
934.60         73.5532
934.99        73.00169
935.39        72.93791
935.78        73.46792
936.17        74.49811
936.56        75.60509
936.96        76.02207
937.35        75.58578
937.74        74.47433
938.13        73.25083
938.53        72.66535
938.92        72.81918
939.31        73.55391
939.70        74.42093
940.09        74.60905
940.49        73.93321
940.88        72.70548
941.27        71.47288
941.66        71.04148
942.05        71.59018
942.44        72.87354
942.84        74.43634
943.23        75.52181
943.62        75.78434
944.01        75.45964
944.40        74.85229
944.79        74.45753
945.18        74.43549
945.57         74.6022
945.97        74.84853
946.36        75.12193
946.75        75.34321
947.14        75.57568
947.53         75.7607
947.92        75.75903
948.31        75.54943
948.70        75.17015
949.09        74.74401
949.48        74.45995
949.87        74.38255
950.26        74.49963
950.65        74.74385
951.04        74.99059
951.43        75.17893
951.82        75.28189
952.21        75.39652
952.60        75.69368
952.99        76.15489
953.38        76.69492
953.77        77.01348
954.16        76.60027
954.55        75.42006
954.94        73.77124
955.33        72.07282
955.72        70.94069
956.11        70.55376
956.50        70.70216
956.89        71.34149
957.28        72.39143
957.66        73.76598
958.05        75.35432
958.44        76.72621
958.83        77.04399
959.22        76.15519
959.61        74.37108
960.00        72.33665
960.39        70.98662
960.78        70.54938
961.16        70.80821
961.55        71.49847
961.94        72.26595
962.33        72.91529
962.72        73.54977
963.11        74.01431
963.49        74.03191
963.88        73.52705
964.27        72.62578
964.66        71.58302
965.04        70.76948
965.43        70.27019
965.82        69.99197
966.21        69.95107
966.60        70.14176
966.98        70.53997
967.37        71.14512
967.76         71.7586
968.15        72.02556
968.53         71.8638
968.92        71.29738
969.31        70.62605
969.69        70.36057
970.08        70.56598
970.47         71.1244
970.86        71.65755
971.24        71.50036
971.63        70.46199
972.02        68.86166
972.40        67.19209
972.79        66.19611
973.17        66.07285
973.56        66.59625
973.95        67.45444
974.33        68.19336
974.72        68.60461
975.11        68.74233
975.49         68.8675
975.88        69.41328
976.26        70.51739
976.65        71.95179
977.04        73.06804
977.42        72.84702
977.81        71.17612
978.19        68.42706
978.58        65.90477
978.96        65.29744
979.35        66.92839
979.74         70.4362
980.12        74.78918
980.51         77.2589
980.89        77.10698
981.28        74.91051
981.66        72.01314
982.05        70.71701
982.43          71.593
982.82        73.86923
983.20        76.81464
983.59        79.00842
983.97        80.01735
984.35        80.25177
984.74        79.69765
985.12        78.44065
985.51        76.62717
985.89        74.19439
986.28         71.8006
986.66        70.36059
987.04        70.21899
987.43        71.23466
987.81        72.77242
988.20        73.47545
988.58        73.01293
988.96        71.54364
989.35        70.01399
989.73        69.94318
990.12         71.5658
990.50        74.47223
990.88        77.21333
991.27        77.45691
991.65        74.88673
992.03        70.38618
992.42         65.8062
992.80        63.72523
993.18        64.85123
993.56        68.31615
993.95        72.78352
994.33        76.15624
994.71         77.3832
995.10        77.10054
995.48        75.64389
995.86        73.60291
996.24         71.4519
996.63        69.06425
997.01        66.93753
997.39        65.83475
997.77        65.86468
998.15        66.92941
998.54        68.62506
998.92        70.08118
999.30        70.93488
999.68        71.34014
1000.06        71.37972
1000.45        71.23259
1000.83        71.14087
1001.21        70.94221
1001.59        70.71163
1001.97        70.65879
1002.35        70.80415
1002.73        71.05339
1003.12        71.42492
1003.50        71.82901
1003.88        72.22745
1004.26        72.72318
1004.64        72.91124
1005.02        72.17064
1005.40        70.48838
1005.78         68.0098
1006.16        65.67157
1006.54        65.16235
1006.92         66.8494
1007.30        70.19079
1007.69        73.80305
1008.07        75.62704
1008.45        75.01759
1008.83        72.65203
1009.21        69.51486
1009.59        67.27702
1009.97        66.56634
1010.35         66.9325
1010.73        68.15562
1011.11        69.84698
1011.49        71.78085
1011.86         74.2748
1012.24        76.85144
1012.62        79.02119
1013.00        80.48087
1013.38        81.01249
1013.76        80.76639
1014.14        80.28188
1014.52         79.7676
1014.90        79.23608
1015.28        78.34611
1015.66          76.578
1016.04        74.18636
1016.41        71.67833
1016.79        69.80127
1017.17         69.1188
1017.55        69.56953
1017.93        71.02759
1018.31        73.00357
1018.69        73.74276
1019.06        72.51888
1019.44        70.37196
1019.82        68.29716
1020.20        66.91879
1020.58        66.21165
1020.95        65.84597
1021.33        66.13596
1021.71        67.49003
1022.09        69.81518
1022.46        72.69266
1022.84        75.38258
1023.22        77.22314
1023.60          78.071
1023.97        78.29441
1024.35        77.32191
1024.73        74.42275
