SpectraSmart Spectrum 2.9.0.0
--------- Device Information -----------
Spectrum Name :  反射率_0
Saving Time :  2024/05/03 21:00:30
Spectro-Module Model Name : SE2030-DUVN
Spectro-Module Serial Number : OS361AC55029948
Wavelength Start : 200
Wavelength End : 1025
Wavelength Unit : Wavelength(nm)
Spectrum Unit : Reflectance(%)
-----------Spectrum Setting ------------
Integration Time : 20ms
Average : 10
Boxcar : 0
Background removal :  enabled
linearity correction :  enabled
SC :  disabled
Intensity correction :  disabled
DWT denoise :  enabled
savitzky-golay :  disabled
FFT :  disabled
Running average :  disabled
Kalman :  disabled
High pass :  disabled
---------------BEGIN--------------------
Wavelength(nm)             Reflectance(%)
200.29               0
200.75        76.81291
201.21        117.8062
201.67       -2749.414
202.13       -77.73202
202.58       -42.62405
203.04       -34.06823
203.50       -32.99427
203.96       -36.20198
204.42       -45.42737
204.88       -84.66985
205.34        1295.355
205.80        91.51599
206.26        61.99546
206.72        3646.395
207.18        14.50765
207.64        7.570258
208.10       -15.98365
208.55       -97.29136
209.01       -917.7743
209.47       -1394.489
209.93       -180.8644
210.39       -54.98193
210.85       -18.91847
211.31       -4.343888
211.77        4.630384
212.23        16.61102
212.69        39.10416
213.14         44.0355
213.60        5.614052
214.06       -15.16788
214.52       -23.19465
214.98       -27.29718
215.44       -32.05386
215.90       -46.99119
216.36        130.7002
216.81       -3.768275
217.27       -21.58723
217.73       -55.97268
218.19       -223.4845
218.65       -3855.967
219.11       -170.2731
219.57        6.812344
220.02        36.55902
220.48        44.32483
220.94        46.47421
221.40        48.52929
221.86        50.19292
222.32        52.02313
222.77        54.72934
223.23        60.06926
223.69        67.48917
224.15        69.09779
224.61        61.75851
225.06        52.12895
225.52        47.33237
225.98        50.25084
226.44        60.53969
226.90        78.28722
227.36        101.1857
227.81        116.4214
228.27        115.3931
228.73        104.5251
229.19        91.15415
229.65        81.02909
230.10        74.50426
230.56        70.23053
231.02        67.62132
231.48        66.52361
231.93        66.49377
232.39         67.6289
232.85        69.21722
233.31        70.32439
233.77         70.7295
234.22        70.46703
234.68        70.07389
235.14        70.54594
235.60        72.08977
236.05        74.56234
236.51        76.73267
236.97        76.50209
237.43        73.43923
237.88        68.63366
238.34        63.79732
238.80        60.56034
239.26        59.00951
239.71        60.35865
240.17        62.16638
240.63        64.59911
241.08         64.2084
241.54        60.78571
242.00        56.64479
242.46        53.46119
242.91         50.9674
243.37        47.53454
243.83          41.111
244.28        29.12671
244.74        14.89644
245.20         3.58347
245.66       -1.000272
246.11      -0.2887414
246.57        3.291649
247.03        8.897413
247.48         12.6193
247.94        9.934524
248.40        1.193341
248.85       -12.85364
249.31       -27.47309
249.77       -31.45751
250.22       -23.43418
250.68       -10.45951
251.14        1.741897
251.59        9.914412
252.05        15.29227
252.51        20.23442
252.96        26.40866
253.42         35.5083
253.88        45.49465
254.33        52.63435
254.79        55.69332
255.25         55.1428
255.70        53.01437
256.16        51.07978
256.62        50.14269
257.07        50.74736
257.53        52.70991
257.99        55.07701
258.44         56.8105
258.90        57.24265
259.35        56.15037
259.81        54.61764
260.27        52.92298
260.72        51.37167
261.18        50.36095
261.63        49.52391
262.09        49.02813
262.55        48.72791
263.00        48.47804
263.46        48.32089
263.91        48.14911
264.37        48.07371
264.83        48.01105
265.28        47.92433
265.74        47.70122
266.19        46.95441
266.65        45.81599
267.11        44.36863
267.56        42.98856
268.02        42.29622
268.47        42.31615
268.93        42.88457
269.38        43.55336
269.84        43.55672
270.30        42.74598
270.75        41.37996
271.21        39.97997
271.66        39.18651
272.12         39.1263
272.57        39.52259
273.03         40.0164
273.48        40.05931
273.94        39.52817
274.39        38.64079
274.85        37.62402
275.31        36.68313
275.76         35.8871
276.22        35.20663
276.67        34.65403
277.13        34.39127
277.58        34.32171
278.04        34.42461
278.49        34.44833
278.95        34.06519
279.40        33.21949
279.86        32.15461
280.31          31.052
280.77        30.26526
281.22        29.76813
281.68        29.48935
282.13        29.30955
282.59        29.13668
283.04        28.90244
283.50        28.66036
283.95        28.37388
284.41         28.0227
284.86        27.59191
285.32        27.11741
285.77        26.62012
286.22        26.20386
286.68        25.90242
287.13         25.6647
287.59        25.48821
288.04        25.30749
288.50        25.12545
288.95         24.9368
289.41        24.75002
289.86        24.53292
290.32        24.31085
290.77        24.07256
291.22        23.86365
291.68        23.74006
292.13         23.6982
292.59        23.74273
293.04        23.82659
293.50         23.8932
293.95        23.92158
294.40        23.93369
294.86         23.9884
295.31        24.16584
295.77        24.48177
296.22        24.90619
296.68        25.36158
297.13        25.72069
297.58         25.9412
298.04        26.06811
298.49        26.16124
298.95        26.34733
299.40        26.63707
299.85        26.99561
300.31         27.3844
300.76        27.71675
301.21        27.98398
301.67        28.22501
302.12        28.44265
302.58        28.65788
303.03        28.86565
303.48        29.05465
303.94        29.27496
304.39         29.5581
304.84        29.91564
305.30        30.32642
305.75        30.69739
306.20         30.9121
306.66        30.96297
307.11        30.87915
307.57        30.75296
308.02        30.66389
308.47        30.65722
308.93        30.70816
309.38        30.79176
309.83        30.90373
310.29         31.0289
310.74        31.15924
311.19        31.26193
311.65        31.27773
312.10        31.18987
312.55         31.0185
313.00        30.79924
313.46        30.59505
313.91        30.41687
314.36        30.26118
314.82        30.13196
315.27        30.02087
315.72        29.92916
316.18        29.86194
316.63        29.80495
317.08         29.7362
317.53        29.64884
317.99        29.54025
318.44        29.42732
318.89        29.32808
319.35        29.24581
319.80        29.17266
320.25        29.09415
320.70        28.99248
321.16        28.85527
321.61        28.69116
322.06        28.50207
322.51        28.29469
322.97        28.07541
323.42         27.8579
323.87         27.6383
324.32        27.41359
324.78        27.18299
325.23        26.95276
325.68        26.74905
326.13        26.61715
326.59         26.5525
327.04        26.55899
327.49        26.56713
327.94        26.47101
328.39        26.24581
328.85        25.91137
329.30        25.56171
329.75         25.3338
330.20        25.26924
330.66         25.3232
331.11        25.42856
331.56         25.4374
332.01        25.30811
332.46        25.07853
332.92         24.8111
333.37        24.64397
333.82        24.60337
334.27        24.65264
334.72        24.72552
335.17          24.712
335.63        24.57521
336.08         24.3684
336.53        24.15092
336.98        24.02818
337.43        24.02808
337.88        24.11296
338.34        24.22875
338.79        24.29279
339.24        24.27851
339.69        24.21615
340.14        24.12894
340.59        24.05409
341.05        24.00649
341.50        23.97202
341.95        23.95464
342.40        23.96893
342.85        24.01019
343.30        24.07235
343.75        24.12657
344.20        24.12338
344.66        24.06277
345.11        23.96239
345.56        23.84854
346.01        23.75996
346.46        23.71289
346.91        23.69169
347.36        23.71522
347.81        23.81371
348.26        23.97879
348.72        24.19667
349.17        24.39503
349.62        24.46558
350.07        24.38863
350.52        24.19843
350.97        23.96709
351.42        23.81375
351.87        23.76963
352.32        23.79639
352.77        23.85378
353.22        23.87614
353.67        23.84062
354.13        23.77851
354.58        23.68334
355.03        23.56055
355.48        23.42364
355.93        23.28004
356.38        23.15164
356.83        23.07662
357.28        23.06031
357.73        23.08173
358.18        23.13823
358.63        23.22192
359.08        23.31695
359.53        23.42241
359.98         23.4768
360.43        23.38918
360.88        23.14977
361.33        22.78222
361.78        22.39301
362.23        22.14862
362.68        22.08244
363.13        22.15303
363.58        22.24015
364.03         22.1468
364.48        21.83634
364.93        21.37969
365.38        20.91333
365.83        20.64527
366.28        20.62076
366.73        20.76832
367.18        20.97313
367.63         21.0493
368.08        20.94417
368.53        20.72076
368.98        20.45478
369.43        20.25896
369.88        20.16594
370.33        20.13404
370.78        20.13186
371.23        20.11363
371.68        20.05972
372.13        19.98755
372.58        19.90313
373.03        19.80928
373.48        19.70639
373.93        19.58817
374.38         19.4513
374.83        19.29796
375.28        19.13523
375.72        18.96403
376.17        18.81179
376.62        18.68168
377.07         18.5737
377.52        18.48349
377.97        18.40995
378.42        18.35219
378.87        18.30756
379.32         18.2753
379.77        18.24282
380.22        18.19108
380.67        18.11607
381.11        18.02388
381.56        17.92238
382.01        17.84362
382.46        17.79439
382.91        17.76236
383.36        17.73058
383.81        17.67148
384.26        17.57904
384.71        17.46786
385.15          17.337
385.60        17.20235
386.05        17.06758
386.50        16.92838
386.95        16.81201
387.40        16.75802
387.85        16.76789
388.29        16.82248
388.74        16.88439
389.19        16.85927
389.64        16.73501
390.09        16.53641
390.54        16.33915
390.98        16.25094
391.43        16.29711
391.88        16.46243
392.33        16.65615
392.78        16.66619
393.23        16.51322
393.67        16.40544
394.12        16.37155
394.57        16.27941
395.02        16.13783
395.47        16.02333
395.91        15.93991
396.36        15.84646
396.81         15.7553
397.26        15.68705
397.71        15.63461
398.15        15.60215
398.60        15.60698
399.05        15.54907
399.50        15.45721
399.95        15.55314
400.39        15.76099
400.84        15.63637
401.29         15.2394
401.74        15.04015
402.18        15.07511
402.63        15.10489
403.08         15.1233
403.53        15.09837
403.97        15.23247
404.42        15.32429
404.87        15.40533
405.32        15.41817
405.76        15.35391
406.21        15.23521
406.66         15.0954
407.11        14.99484
407.55        14.95258
408.00        14.94602
408.45        14.96216
408.90          14.971
409.34        14.95902
409.79        14.93794
410.24        14.90452
410.68        14.84892
411.13        14.77407
411.58        14.67913
412.03        14.58048
412.47         14.5156
412.92        14.49004
413.37        14.49408
413.81        14.50696
414.26        14.51399
414.71        14.50155
415.15        14.48114
415.60        14.44003
416.05        14.37597
416.49        14.29612
416.94        14.20775
417.39         14.1302
417.83        14.09046
418.28        14.09192
418.73        14.11997
419.17        14.16547
419.62         14.2044
420.07        14.22595
420.51        14.23143
420.96        14.20828
421.41        14.12852
421.85        13.99028
422.30        13.81651
422.74         13.6404
423.19         13.5506
423.64        13.54741
424.08        13.59194
424.53        13.64105
424.98        13.67701
425.42        13.69135
425.87         13.6485
426.31        13.57898
426.76        13.61428
427.21        13.72403
427.65         13.7059
428.10        13.59315
428.54        13.58021
428.99        13.68074
429.44        13.86658
429.88        14.03804
430.33        13.96246
430.77        13.69917
431.22        13.56827
431.66        13.61046
432.11        13.71564
432.56        13.83398
433.00        13.96053
433.45         13.9604
433.89         13.7912
434.34        13.09306
434.78        13.06474
435.23        13.57496
435.67        13.75201
436.12         13.5839
436.57        13.55975
437.01        13.69114
437.46        13.73052
437.90        13.66776
438.35        13.57425
438.79        13.47096
439.24        13.37932
439.68         13.3167
440.13        13.31099
440.57        13.32741
441.02        13.29373
441.46         13.1996
441.91         13.0678
442.35        12.93367
442.80        12.93637
443.24        13.03985
443.69          13.079
444.13        13.04144
444.58        13.04533
445.02        13.08642
445.47        13.08763
445.91        13.05657
446.36        13.05409
446.80        13.08064
447.24        13.11944
447.69        13.15893
448.13        13.18082
448.58         13.1824
449.02         13.1705
449.47        13.15351
449.91        13.13524
450.36        13.12217
450.80        13.10884
451.25         13.1015
451.69        13.10541
452.13        13.11975
452.58        13.14172
453.02        13.15789
453.47        13.15304
453.91        13.12429
454.36        13.07893
454.80        13.02223
455.24        12.98177
455.69        12.97046
456.13        12.93587
456.58        12.88643
457.02        12.98606
457.46        13.02319
457.91        13.03739
458.35        12.97418
458.79        12.98003
459.24        13.03783
459.68        12.99461
460.13         12.8875
460.57        12.83794
461.01        12.86287
461.46        12.89952
461.90          12.924
462.34        12.91282
462.79        12.85613
463.23         12.7618
463.68        12.67283
464.12        12.64587
464.56        12.68982
465.01        12.81971
465.45        12.96247
465.89        12.97501
466.34         12.8827
466.78        12.83685
467.22        12.86838
467.67        12.91285
468.11        12.96829
468.55        13.02872
468.99        13.08031
469.44        13.12057
469.88        13.14439
470.32        13.13144
470.77         13.0961
471.21        13.08304
471.65        13.09813
472.10        13.12703
472.54         13.1539
472.98        13.16217
473.42        13.14852
473.87        13.12762
474.31        13.09867
474.75        13.07164
475.20        13.05618
475.64        13.04178
476.08        13.03481
476.52        13.06425
476.97        13.13321
477.41        13.19726
477.85        13.22582
478.29        13.42214
478.74        13.33221
479.18        13.41821
479.62        13.53109
480.06        13.58103
480.50        13.56026
480.95        13.53132
481.39        13.51304
481.83         13.5165
482.27        13.55815
482.72        13.65209
483.16        13.76612
483.60        13.86001
484.04        13.93596
484.48        13.91869
484.93        13.89863
485.37        14.14937
485.81        14.61955
486.25        14.68636
486.69        14.68192
487.14        14.47501
487.58        14.82975
488.02        14.66783
488.46        14.94865
488.90        14.83945
489.34        14.48227
489.79        14.51582
490.23        14.86759
490.67        15.24531
491.11        15.51569
491.55        15.50147
491.99          15.279
492.43        15.25814
492.88        15.47006
493.32        15.64479
493.76        15.73989
494.20        15.83837
494.64        15.93683
495.08        16.01442
495.52        16.08457
495.96        16.18183
496.41        16.31074
496.85        16.43153
497.29        16.55249
497.73        16.74589
498.17        16.97747
498.61        17.12308
499.05        17.16842
499.49        17.15803
499.93        17.13533
500.37        17.19045
500.82        17.31692
501.26         17.4012
501.70        17.43823
502.14        17.51295
502.58        17.62508
503.02        17.72559
503.46        17.80902
503.90        17.88844
504.34        17.96025
504.78         18.0179
505.22        18.06175
505.66          18.089
506.10        18.09617
506.54        18.12036
506.98        18.17456
507.42         18.1811
507.86        18.12506
508.30        18.37613
508.74        18.29147
509.18        18.38437
509.62        18.46356
510.06        18.54837
510.50        18.63049
510.94        18.71217
511.38        18.78053
511.82        18.79668
512.26        18.75955
512.70        18.68573
513.14        18.60229
513.58        18.55234
514.02        18.54732
514.46        18.57187
514.90        18.62092
515.34        18.68304
515.78        18.74958
516.22        18.82781
516.66        18.89003
517.10        18.89229
517.54        18.83176
517.98        18.71908
518.42         18.6109
518.86        18.59955
519.30        18.70113
519.74        18.88686
520.18        19.08624
520.62        19.18258
521.06        19.14619
521.50        19.01228
521.93        18.84152
522.37        18.73376
522.81        18.71384
523.25        18.74889
523.69         18.7993
524.13        18.80286
524.57        18.74482
525.01        18.65426
525.45        18.55313
525.89        18.47254
526.32        18.42312
526.76        18.39252
527.20        18.38411
527.64        18.40652
528.08        18.45546
528.52        18.52923
528.96        18.59721
529.40        18.61045
529.83        18.55697
530.27        18.45145
530.71        18.33445
531.15        18.27285
531.59        18.28116
532.03        18.34424
532.46        18.41447
532.90        18.41456
533.34         18.3329
533.78        18.20044
534.22        18.07424
534.66         18.0373
535.09        18.09975
535.53        18.23049
535.97         18.3795
536.41        18.45279
536.85        18.42472
537.28        18.37583
537.72        18.32322
538.16        18.17941
538.60        18.02005
539.04        18.08215
539.47        18.32104
539.91        18.45838
540.35        18.47057
540.79        18.51817
541.22        18.60111
541.66        18.65999
542.10        18.69781
542.54        18.70334
542.97        18.70138
543.41        18.80649
543.85        18.99335
544.29         19.1098
544.72        19.15208
545.16        19.24969
545.60        19.39933
546.04        19.52705
546.47        19.63111
546.91        19.74473
547.35        19.86681
547.79        19.99417
548.22        20.12217
548.66        20.24301
549.10        20.36237
549.53        20.53118
549.97        20.72861
550.41        20.87365
550.84        20.95416
551.28        21.01428
551.72        21.06635
552.15        21.11425
552.59          21.177
553.03        21.24469
553.46        21.31943
553.90        21.43303
554.34        21.57437
554.77        21.71349
555.21        21.84283
555.65         21.9678
556.08        22.07974
556.52        22.17289
556.96        22.24327
557.39        22.30656
557.83        22.37312
558.27        22.40837
558.70        22.42878
559.14        22.51398
559.57        22.64254
560.01        22.71848
560.45        22.73831
560.88        22.77763
561.32        22.84965
561.75        22.89372
562.19         22.9359
562.63        22.99353
563.06        23.06157
563.50        23.20943
563.93        23.38824
564.37        23.36089
564.80        23.19366
565.24        23.28615
565.68        23.59245
566.11        23.74423
566.55        23.73268
566.98        23.74757
567.42        23.80868
567.85         23.9295
568.29        23.95695
568.72        24.03212
569.16        24.13346
569.60        24.27188
570.03        24.44072
570.47        24.63306
570.90         24.8168
571.34        24.94381
571.77        25.29197
572.21         25.1358
572.64        25.27987
573.08        25.21626
573.51        25.75126
573.95        25.69866
574.38        25.36862
574.82        25.40857
575.25          25.959
575.69        26.07574
576.12        25.82294
576.56        25.76553
576.99        25.98111
577.42         26.0994
577.86        26.03798
578.29        26.39778
578.73        25.97567
579.16        25.96081
579.60         25.9537
580.03        25.90941
580.47        25.79869
580.90         25.6963
581.33        25.52645
581.77        25.59907
582.20        25.97776
582.64        25.61863
583.07        25.76288
583.51         25.4775
583.94        25.24379
584.37        25.05527
584.81        24.97904
585.24         24.8986
585.68        25.25785
586.11        24.65447
586.54        24.76054
586.98        24.61538
587.41        24.67807
587.85        24.69611
588.28        24.66785
588.71        24.61412
589.15        24.46844
589.58        24.62019
590.01        24.38582
590.45        24.38881
590.88        24.42492
591.31        24.46118
591.75        24.50188
592.18        24.47771
592.61        24.38901
593.05        24.60957
593.48        25.09603
593.91         24.6426
594.35        24.87865
594.78        24.85413
595.21        25.05002
595.65        25.08947
596.08        24.95199
596.51        25.38735
596.94        25.33933
597.38        25.52643
597.81        25.64234
598.24        25.74743
598.68        25.87796
599.11         25.9334
599.54        26.69623
599.97        26.31615
600.41        26.97961
600.84         27.1328
601.27         27.3549
601.70        27.53466
602.14        27.70336
602.57        28.03413
603.00        28.47832
603.43        28.78668
603.87        28.93835
604.30         29.2938
604.73        29.57603
605.16        29.78225
605.60        29.88967
606.03        30.22925
606.46        30.80819
606.89        30.63924
607.32        31.14933
607.76        31.31151
608.19        31.56546
608.62        31.82244
609.05         32.0944
609.48        32.35482
609.92        32.67179
610.35        32.74087
610.78        33.79415
611.21        33.83495
611.64        34.19397
612.07        34.24962
612.50        34.35653
612.94        34.42457
613.37        34.48418
613.80        34.74225
614.23        34.83403
614.66        35.04626
615.09        35.26383
615.52        35.47731
615.96        35.68116
616.39        35.88671
616.82        36.09932
617.25        36.25645
617.68        36.63025
618.11         36.5719
618.54        36.30875
618.97        36.43523
619.40        36.96323
619.84        37.34084
620.27        37.48087
620.70        37.74159
621.13        38.08714
621.56        37.71856
621.99        37.51913
622.42         37.4385
622.85        37.70199
623.28        37.87149
623.71        37.87146
624.14        37.86588
624.57        37.61419
625.00        37.59237
625.43        37.65094
625.86        37.65969
626.29        37.55983
626.72        37.67752
627.15        37.54913
627.58        37.53792
628.01        37.49309
628.44        37.35587
628.87        37.14656
629.30        36.99608
629.73        36.90477
630.16         36.7565
630.59        36.54731
631.02        36.34615
631.45        36.16411
631.88        35.98729
632.31        35.81306
632.74        35.64015
633.17        35.44569
633.60        35.19388
634.03        34.87973
634.46        34.51866
634.89        34.13223
635.32        33.75437
635.75        33.39894
636.18         33.0597
636.61        32.73957
637.04        32.44236
637.47        32.16825
637.89        31.91243
638.32        31.65131
638.75        31.39696
639.18        31.15545
639.61        30.80346
640.04        30.58864
640.47        30.34863
640.90        30.15813
641.33        30.00304
641.76        29.88189
642.18        29.79262
642.61        29.71811
643.04        29.66261
643.47        29.61452
643.90        29.55464
644.33        29.47982
644.76        29.40226
645.18        29.33887
645.61        29.27964
646.04        29.22858
646.47         29.2533
646.90        29.38763
647.33        29.33248
647.75        29.64496
648.18        29.86622
648.61        30.13186
649.04        30.39398
649.47        30.64429
649.89        30.85095
650.32        31.01618
650.75        31.27383
651.18        31.60048
651.61        31.77901
652.03        31.84114
652.46        32.10947
652.89        32.55021
653.32        32.74511
653.74        32.79039
654.17        33.15781
654.60        33.13552
655.03        33.98116
655.46        34.07277
655.88        34.28163
656.31        36.02413
656.74         39.3077
657.16        37.43739
657.59        35.36068
658.02        36.11078
658.45        36.50928
658.87        37.02235
659.30        36.66136
659.73        36.48029
660.15        36.72073
660.58        36.65508
661.01        36.98224
661.44        37.30852
661.86        37.45881
662.29         37.4408
662.72        37.65591
663.14        38.07325
663.57        38.11788
664.00        37.88459
664.42        37.98469
664.85        38.42206
665.27        38.73892
665.70        38.87758
666.13        39.04669
666.55          39.235
666.98        39.31366
667.41        39.32931
667.83        39.40827
668.26        39.56681
668.69        39.78462
669.11        39.99703
669.54        40.09279
669.96        40.05566
670.39        39.93884
670.82        39.85708
671.24        39.93385
671.67          40.204
672.09        40.72072
672.52          41.353
672.94        41.53473
673.37        41.69687
673.80        41.54835
674.22        41.36147
674.65        41.31311
675.07        41.46729
675.50        41.74783
675.92        42.08378
676.35        42.34201
676.77        42.48648
677.20         42.5667
677.62        42.61133
678.05         42.6556
678.47        42.71306
678.90         42.8028
679.32        42.86478
679.75        43.01218
680.17        43.22964
680.60        43.45245
681.02        43.61749
681.45        43.89497
681.87        43.81258
682.30        43.75925
682.72        43.66561
683.15        43.64719
683.57        43.73421
684.00        43.89933
684.42         44.0897
684.85        44.21056
685.27        44.23535
685.70        44.17614
686.12        44.08155
686.54         44.1174
686.97        44.26772
687.39        44.38348
687.82        44.42434
688.24        44.46581
688.66        44.50294
689.09        44.47227
689.51         44.4226
689.94        44.51342
690.36        44.77894
690.78        45.06069
691.21        45.25059
691.63        45.83891
692.06        45.63235
692.48         45.8581
692.90        46.13427
693.33        46.26447
693.75        46.24741
694.17        46.14154
694.60        46.02218
695.02        46.30995
695.44        46.36263
695.87        46.75699
696.29         47.1808
696.71        47.24622
697.14        46.99132
697.56        46.86861
697.98        46.93571
698.41        46.94628
698.83        46.90597
699.25        47.00915
699.68        47.21542
700.10        47.41121
700.52        47.55644
700.94        47.68557
701.37        47.80124
701.79         47.9254
702.21        48.05022
702.64         48.1647
703.06        48.25114
703.48        48.29128
703.90        48.29351
704.33        48.27678
704.75        48.27553
705.17        48.33224
705.59        48.45559
706.01        48.62187
706.44        48.82767
706.86        49.06594
707.28        49.30122
707.70        49.58872
708.12        49.86213
708.55        49.87951
708.97        49.69278
709.39        49.65168
709.81        49.78387
710.23        49.85588
710.66        49.87146
711.08        50.00191
711.50        50.21804
711.92        50.39953
712.34        50.53005
712.76        50.64366
713.19        50.72023
713.61        50.77113
714.03        50.78162
714.45        50.74663
714.87         50.7033
715.29        50.71432
715.71        50.78783
716.13        50.90755
716.56        51.01532
716.98        51.06096
717.40        51.01447
717.82        50.91048
718.24        50.79543
718.66        50.74319
719.08        50.77625
719.50        50.86579
719.92        51.00909
720.34        51.20148
720.76         51.4309
721.19        51.68896
721.61        51.93124
722.03        52.08112
722.45        52.14482
722.87        52.01881
723.29        51.77427
723.71        51.88383
724.13        52.38375
724.55        52.00997
724.97        52.35485
725.39        52.32847
725.81        52.40788
726.23        52.41507
726.65        52.39383
727.07        52.45645
727.49        52.60126
727.91         52.8043
728.33        53.02969
728.75        53.21965
729.17         53.3519
729.59        53.44463
730.01        53.50798
730.43        53.55772
730.85         53.6029
731.27        53.63508
731.69        53.66679
732.10        53.72483
732.52        53.80963
732.94        53.91811
733.36        54.02312
733.78        54.07228
734.20        54.06291
734.62        54.02591
735.04         53.9907
735.46        54.00563
735.88        54.07524
736.30        54.15968
736.72        54.27628
737.13        54.44144
737.55         54.5804
737.97        54.81145
738.39        55.05325
738.81         54.7838
739.23        54.20768
739.65        54.40031
740.06        55.18862
740.48          55.423
740.90        55.03825
741.32        54.69099
741.74        54.52179
742.16        54.45746
742.57        54.55228
742.99         54.8048
743.41        55.13996
743.83        55.42194
744.25        55.60439
744.67        55.70876
745.08        55.76922
745.50        55.81116
745.92        55.86256
746.34        55.90331
746.75        55.91917
747.17        55.91103
747.59        55.87849
748.01        55.81739
748.42        55.76212
748.84        55.77918
749.26        55.84559
749.68        55.92172
750.09         55.9987
750.51        55.95794
750.93        55.89962
751.35        56.26948
751.76        56.94395
752.18        57.19701
752.60        56.96386
753.01        56.69547
753.43         56.3894
753.85        56.28611
754.27        56.38788
754.68        56.64105
755.10        56.93683
755.52        57.10444
755.93         57.1245
756.35        57.09031
756.77        57.00168
757.18         56.9614
757.60        57.02623
758.02         56.8166
758.43        56.52166
758.85         57.2314
759.26        58.68958
759.68        58.97735
760.10        58.07319
760.51        57.62632
760.93        57.89021
761.34        57.39707
761.76        58.01663
762.18        57.84404
762.59        57.53639
763.01        57.60296
763.42        58.04576
763.84        58.24451
764.26        58.12876
764.67         57.7416
765.09        57.29202
765.50        57.30499
765.92        57.73764
766.33        57.62861
766.75        57.39148
767.16        57.34764
767.58        57.61305
768.00        57.72597
768.41        57.71249
768.83        57.93891
769.24        58.29953
769.66        58.28117
770.07        57.92835
770.49         57.7039
770.90         57.6798
771.32        57.82648
771.73        58.09418
772.15        58.29287
772.56        58.41746
772.97        58.54984
773.39        58.69391
773.80        58.91986
774.22        59.16201
774.63         59.3086
775.05        59.30627
775.46        59.24511
775.88         59.1182
776.29        58.89305
776.70        58.63212
777.12        58.48682
777.53        58.50346
777.95        58.61696
778.36         58.7958
778.77        58.93547
779.19        59.01301
779.60        59.12755
780.02        59.24304
780.43        59.23402
780.84        59.18359
781.26        59.17561
781.67        59.29563
782.09        59.79755
782.50        60.50255
782.91        60.50457
783.33        60.20025
783.74        60.01941
784.15        60.09156
784.57        59.96813
784.98        59.68862
785.39         59.5305
785.81        59.52007
786.22        59.59019
786.63        59.70176
787.04        59.78321
787.46        59.83024
787.87        59.84792
788.28        59.87872
788.70        59.96465
789.11        60.08963
789.52        60.25325
789.93        60.43487
790.35        60.53728
790.76        60.60253
791.17         60.7856
791.58        61.00401
792.00        61.03294
792.41        60.88936
792.82        60.52884
793.23        60.14911
793.65        60.38628
794.06        61.14688
794.47        61.50697
794.88        61.36375
795.29        61.39735
795.71        61.30215
796.12        61.00521
796.53        60.53886
796.94        60.18003
797.35        60.08259
797.76        60.50821
798.18        61.23599
798.59        61.57985
799.00        61.40564
799.41         61.0475
799.82        60.69766
800.23        60.54589
800.64        60.66525
801.06        60.95905
801.47        61.35164
801.88        61.61119
802.29         61.6549
802.70        61.53872
803.11        61.34157
803.52        61.18756
803.93        61.12986
804.34        61.14337
804.75        61.17471
805.17        61.17845
805.58        61.17178
805.99        61.02829
806.40        60.86334
806.81        61.17234
807.22        61.80711
807.63          62.009
808.04        61.76968
808.45        61.69328
808.86         61.8007
809.27        61.70284
809.68        61.43104
810.09        61.25143
810.50        61.20083
810.91        61.20932
811.32        61.26046
811.73        61.31953
812.14        61.37207
812.55        61.44882
812.96        61.53208
813.37        61.57925
813.78        61.58582
814.19        61.55363
814.60        61.53939
815.01        61.63725
815.42        61.86274
815.83        62.19251
816.24        62.53925
816.65        62.72878
817.05        62.70722
817.46        62.49587
817.87         62.2256
818.28        62.04995
818.69        62.01374
819.10        62.07626
819.51        62.19169
819.92        62.27647
820.33        62.29164
820.74         62.2546
821.14        62.18682
821.55        62.13481
821.96        62.10145
822.37        62.09002
822.78        62.05523
823.19        61.92214
823.60        61.69531
824.00        61.42529
824.41        61.21579
824.82        61.29935
825.23        61.71202
825.64         62.3727
826.04        63.13369
826.45         63.6551
826.86        63.85694
827.27        63.81905
827.68        63.61406
828.08        63.39724
828.49        63.20051
828.90        63.00209
829.31        62.86443
829.72        62.89259
830.12        63.12095
830.53        63.48122
830.94        63.86626
831.35        64.02722
831.75        63.90867
832.16        63.53557
832.57        63.04998
832.97        62.66074
833.38        62.44514
833.79        62.35666
834.20         62.3565
834.60        62.37242
835.01        62.39426
835.42        62.45156
835.82        62.56906
836.23        62.73582
836.64        62.96044
837.04        63.24163
837.45        63.50819
837.86        63.76214
838.26        63.99232
838.67        64.14712
839.08        64.21339
839.48        64.15633
839.89        63.97533
840.29        63.67231
840.70        63.31788
841.11        62.95498
841.51        62.63142
841.92        62.36647
842.33        62.15105
842.73        61.97094
843.14        61.79433
843.54        61.63471
843.95        61.60925
844.35        61.93505
844.76        62.58336
845.17        63.49194
845.57         64.3809
845.98        64.64311
846.38        64.19519
846.79        63.23059
847.19        62.11583
847.60        61.44382
848.00        61.35962
848.41        61.66879
848.81        62.25021
849.22        62.79596
849.62        63.21881
850.03         63.5477
850.43        63.74298
850.84        63.62969
851.24        63.23867
851.65        62.58615
852.05        61.85302
852.46        61.35381
852.86        61.16041
853.27         61.2286
853.67        61.43053
854.07        61.73593
854.48        62.05832
854.88        62.47214
855.29        62.78316
855.69        62.82066
856.10        62.45692
856.50        61.81604
856.90        61.10991
857.31        60.68906
857.71        60.67078
858.12        60.92942
858.52        61.40705
858.92        61.80994
859.33        62.01406
859.73        62.12479
860.13        62.15969
860.54        62.17484
860.94        62.22031
861.34        62.23258
861.75        62.18274
862.15        62.13338
862.55        62.05313
862.96        61.95874
863.36        61.82853
863.76        61.63055
864.17        61.36577
864.57        61.09399
864.97        60.83158
865.38        60.58372
865.78        60.39967
866.18        60.24417
866.58        60.19357
866.99        60.37433
867.39         60.7962
867.79         61.3796
868.19        61.91973
868.60        62.08901
869.00        61.83462
869.40        61.26133
869.80        60.56617
870.21        60.11012
870.61         60.0421
871.01        60.23312
871.41        60.57458
871.81        60.89986
872.22        61.13107
872.62        61.36549
873.02        61.59451
873.42        61.78036
873.82        61.91876
874.22        62.00178
874.63        62.09087
875.03        62.27673
875.43         62.5746
875.83        62.91888
876.23        63.26742
876.63         63.5375
877.03        63.69675
877.44        63.81371
877.84        63.76539
878.24        63.38633
878.64        62.69587
879.04        61.74289
879.44        60.87937
879.84        60.60962
880.24        60.98244
880.64        61.86673
881.04        62.77058
881.44        62.80771
881.84        61.81276
882.24          60.157
882.65        58.48336
883.05        57.61255
883.45        57.76096
883.85        58.65778
884.25        59.98613
884.65        61.15246
885.05        61.87302
885.45        62.27801
885.85        62.42192
886.25        62.40549
886.65        62.28572
887.05        61.99831
887.45        61.58036
887.85         61.1393
888.25        60.73484
888.65        60.41034
889.04        60.17895
889.44        60.05583
889.84        60.02914
890.24         60.1031
890.64        60.28293
891.04         60.5713
891.44        60.94113
891.84        61.35902
892.24        61.76333
892.64        62.06773
893.04         62.2663
893.44        62.40355
893.83        62.53289
894.23        62.67217
894.63        62.85803
895.03        63.02007
895.43         63.2269
895.83        63.59281
896.23        64.09813
896.63        64.71819
897.02        65.15711
897.42        64.93478
897.82        64.02235
898.22        62.61671
898.62        61.20284
899.01        60.45156
899.41        60.50871
899.81        61.20516
900.21        62.16252
900.61        62.64444
901.00        62.41541
901.40        61.76349
901.80        61.08121
902.20        60.92364
902.59        61.42666
902.99        62.36315
903.39        63.47665
903.79        64.20129
904.18        64.30695
904.58        64.00424
904.98        63.54164
905.38        63.26047
905.77        63.23942
906.17        63.36771
906.57         63.5718
906.96        63.78094
907.36        63.90792
907.76        64.01154
908.15        64.05241
908.55        63.87521
908.95        63.50076
909.34         62.9663
909.74        62.41718
910.14        62.03973
910.53        61.88397
910.93        61.93119
911.33        62.11002
911.72        62.30679
912.12        62.47327
912.52        62.62676
912.91        62.81435
913.31        63.08267
913.70        63.45552
914.10        63.85472
914.49        64.20675
914.89         64.3321
915.29        64.21409
915.68        63.90749
916.08        63.54459
916.47         63.2814
916.87        63.18961
917.26        63.17796
917.66        63.22762
918.05        63.29471
918.45        63.32849
918.84        63.41209
919.24        63.38722
919.64        63.09317
920.03        62.53563
920.42        61.76306
920.82        61.10522
921.21        60.91813
921.61         61.2572
922.00        62.06598
922.40        62.98956
922.79        63.47024
923.19        63.31062
923.58        62.69326
923.98        62.02629
924.37        61.89392
924.77        62.41932
925.16         63.4309
925.55         64.5716
925.95        65.18443
926.34        65.08951
926.74         64.4716
927.13        63.61791
927.52        62.95336
927.92        62.60859
928.31        62.44918
928.70        62.38547
929.10        62.25554
929.49        62.03913
929.89        61.84557
930.28        61.72891
930.67         61.7131
931.07        61.79615
931.46        61.92594
931.85        62.18292
932.24        62.73868
932.64        63.55704
933.03        64.63989
933.42        65.60979
933.82        65.86319
934.21        65.32109
934.60        64.16656
934.99        62.93884
935.39        62.43861
935.78        62.82601
936.17        63.83797
936.56        65.04528
936.96        65.71057
937.35        65.63835
937.74        65.05493
938.13        64.13118
938.53        63.13071
938.92        62.21052
939.31        61.38601
939.70        60.82966
940.09        60.82179
940.49        61.33777
940.88        62.28048
941.27        63.50629
941.66        64.72839
942.05        65.73438
942.44        66.55775
942.84         66.8039
943.23         65.8805
943.62        63.89765
944.01        61.24057
944.40        58.77745
944.79        57.58408
945.18        57.80577
945.57        59.18772
945.97        61.13024
946.36        62.61594
946.75        63.07399
947.14        62.79177
947.53        62.19698
947.92        62.02271
948.31        62.46513
948.70        63.18398
949.09        63.97964
949.48        64.57253
949.87        64.83511
950.26        64.94048
950.65         64.7791
951.04        64.13774
951.43         63.0732
951.82        61.67376
952.21          60.384
952.60        59.87957
952.99        60.26429
953.38        61.34909
953.77        62.62561
954.16        63.19389
954.55         62.7933
954.94        61.67806
955.33        60.29694
955.72        59.40142
956.11        59.22747
956.50        59.55863
956.89        60.12884
957.28        60.50548
957.66        60.55258
958.05        60.40315
958.44        60.22331
958.83        60.25019
959.22        60.53112
959.61        60.93995
960.00        61.31131
960.39        61.38894
960.78        61.11285
961.16         60.6094
961.55        60.01212
961.94        59.50013
962.33        59.15209
962.72         58.9081
963.11         58.8473
963.49        59.11021
963.88        59.65131
964.27        60.46745
964.66        61.29828
965.04        61.72163
965.43        61.58836
965.82        61.01496
966.21        60.34544
966.60        60.17049
966.98        60.64811
967.37        61.59382
967.76        62.63478
968.15        63.14267
968.53        62.95658
968.92        62.20238
969.31        61.27429
969.69        60.81508
970.08        60.97813
970.47         61.6095
970.86         62.2983
971.24        62.38345
971.63        61.73196
972.02        60.61123
972.40        59.53757
972.79        59.33771
973.17        60.27834
973.56        61.97552
973.95        64.00029
974.33        65.75585
974.72        66.93711
975.11        67.66544
975.49        68.03574
975.88        68.14246
976.26        68.05653
976.65          67.664
977.04        66.83258
977.42         65.3398
977.81        63.29161
978.19        60.86934
978.58        58.60358
978.96        57.08431
979.35        56.48986
979.74         56.6237
980.12        57.20177
980.51        57.61298
980.89        57.73167
981.28        57.71405
981.66        57.69749
982.05         57.8735
982.43        58.31214
982.82        58.82218
983.20        59.50165
983.59        60.57359
983.97        62.10362
984.35        64.05226
984.74        65.76996
985.12        66.36147
985.51        65.47319
985.89        63.49738
986.28        61.30365
986.66        59.83004
987.04        59.36565
987.43        59.54749
987.81        60.11902
988.20        60.45234
988.58        60.39077
988.96         60.2497
989.35         59.8711
989.73        59.11291
990.12        58.00898
990.50        56.51428
990.88        55.36319
991.27        55.69614
991.65         57.6968
992.03        61.25183
992.42        64.99109
992.80        66.26771
993.18        64.10776
993.56        59.67589
993.95        55.16642
994.33        52.83622
994.71        53.14882
995.10        55.37773
995.48        58.76891
995.86        61.15533
996.24        61.50476
996.63        60.57213
997.01        59.11564
997.39        58.10703
997.77        57.86196
998.15        57.94735
998.54        58.41519
998.92        59.47693
999.30        61.07243
999.68        63.22387
1000.06        65.32372
1000.45        66.13351
1000.83        65.52831
1001.21        63.86094
1001.59         61.8758
1001.97        60.62205
1002.35         60.3419
1002.73        60.69886
1003.12        61.62868
1003.50        63.07286
1003.88        64.79308
1004.26        66.85864
1004.64        68.62178
1005.02        69.08982
1005.40        68.03471
1005.78        65.45829
1006.16        62.42125
1006.54         60.7754
1006.92        61.00366
1007.30        62.85987
1007.69        64.75531
1008.07        63.75368
1008.45        59.56652
1008.83        53.78451
1009.21         48.7775
1009.59        46.97877
1009.97        48.56093
1010.35        52.91344
1010.73        58.72777
1011.11        62.67528
1011.49        63.04808
1011.86        60.43082
1012.24        56.84089
1012.62        55.44871
1013.00         57.2383
1013.38        61.67985
1013.76        67.10292
1014.14        69.06493
1014.52        66.27543
1014.90        61.26617
1015.28        56.78536
1015.66        55.14622
1016.04        56.49801
1016.41        60.33054
1016.79        65.92667
1017.17        71.63353
1017.55        75.74563
1017.93        78.33044
1018.31        78.44916
1018.69        75.25764
1019.06        69.72643
1019.44        63.53227
1019.82        58.25069
1020.20        54.91976
1020.58        53.24068
1020.95         52.7735
1021.33        53.47998
1021.71        55.15779
1022.09        57.39178
1022.46        59.83627
1022.84         62.1222
1023.22        63.79482
1023.60        64.88423
1023.97        65.53828
1024.35        65.05099
1024.73        62.95017
