SpectraSmart Spectrum 2.9.0.0
--------- Device Information -----------
Spectrum Name :  反射率_0
Saving Time :  2024/05/03 20:46:48
Spectro-Module Model Name : SE2030-DUVN
Spectro-Module Serial Number : OS361AC55029948
Wavelength Start : 200
Wavelength End : 1025
Wavelength Unit : Wavelength(nm)
Spectrum Unit : Reflectance(%)
-----------Spectrum Setting ------------
Integration Time : 20ms
Average : 10
Boxcar : 0
Background removal :  enabled
linearity correction :  enabled
SC :  disabled
Intensity correction :  disabled
DWT denoise :  enabled
savitzky-golay :  disabled
FFT :  disabled
Running average :  disabled
Kalman :  disabled
High pass :  disabled
---------------BEGIN--------------------
Wavelength(nm)             Reflectance(%)
200.29               0
200.75       -102.2378
201.21       -169.2909
201.67        4373.943
202.13        140.1425
202.58        85.64587
203.04        73.82878
203.50        75.48522
203.96        88.50779
204.42        121.6442
204.88        248.9264
205.34       -4346.746
205.80       -395.4553
206.26       -430.5298
206.72       -95971.18
207.18        322.5269
207.64        209.3037
208.10        226.9442
208.55        400.1831
209.01        2190.794
209.47         2961.36
209.93        458.7446
210.39        209.0724
210.85        143.5739
211.31        127.2145
211.77        133.2908
212.23        167.1321
212.69        263.8466
213.14        333.0038
213.60        205.9621
214.06        122.7676
214.52        93.18227
214.98         92.2672
215.44        117.8814
215.90        235.9653
216.36       -1459.728
216.81       -274.3808
217.27       -268.6415
217.73       -448.3895
218.19       -1599.339
218.65       -32788.96
219.11       -2527.934
219.57       -744.1192
220.02       -479.2593
220.48       -825.6411
220.94        893.6558
221.40        258.7644
221.86        165.6101
222.32        142.9782
222.77        145.4816
223.23        167.4452
223.69        209.1012
224.15        238.6258
224.61        228.0239
225.06        200.1618
225.52        181.2793
225.98        181.7114
226.44        200.0281
226.90        232.9692
227.36        275.8723
227.81        305.3741
228.27        304.0782
228.73         283.885
229.19         256.915
229.65        232.1377
230.10        211.3197
230.56        194.4527
231.02        181.3524
231.48        172.7097
231.93        167.6711
232.39        165.9347
232.85        166.2296
233.31        167.3596
233.77        168.7035
234.22        169.9501
234.68        171.3045
235.14        173.2191
235.60        175.6453
236.05        178.8941
236.51        180.4581
236.97        176.6835
237.43         167.568
237.88        155.0233
238.34        143.8856
238.80        139.8107
239.26        144.3829
239.71         159.151
240.17        189.3065
240.63        220.6712
241.08        231.2113
241.54        212.2988
242.00        183.0981
242.46        166.5382
242.91        165.5777
243.37        176.5369
243.83        203.3331
244.28        235.6279
244.74         240.389
245.20        221.5678
245.66        191.2574
246.11        158.4769
246.57        128.2945
247.03        99.46327
247.48        77.28324
247.94        66.32349
248.40        65.05394
248.85        70.92461
249.31        81.18404
249.77        88.00126
250.22        88.75786
250.68        87.29687
251.14        86.98752
251.59        91.86744
252.05        103.9489
252.51        124.8384
252.96        157.1673
253.42        191.1737
253.88        209.2954
254.33        208.8448
254.79        195.4235
255.25        176.3833
255.70        158.7178
256.16        146.0183
256.62        138.0754
257.07        134.7304
257.53        135.1773
257.99        136.9856
258.44        138.7897
258.90        140.1556
259.35        140.0373
259.81        139.8782
260.27        138.7937
260.72        135.9464
261.18        132.6757
261.63        128.8557
262.09        126.1035
262.55        125.1352
263.00        125.4869
263.46        126.7571
263.91        127.8252
264.37        127.8307
264.83        126.5047
265.28        124.3298
265.74        121.8093
266.19        118.9364
266.65        116.1525
267.11        113.2531
267.56        110.6874
268.02         109.346
268.47         109.134
268.93        109.8808
269.38        110.7131
269.84        110.1452
270.30        107.9527
270.75        104.6579
271.21        101.3757
271.66        99.48125
272.12        99.23001
272.57        99.97502
273.03        101.0176
273.48         101.229
273.94        100.3298
274.39        98.74596
274.85         96.7258
275.31        94.36608
275.76        91.83609
276.22        89.28282
276.67        87.07713
277.13        86.06976
277.58        86.07647
278.04        86.86656
278.49        87.61375
278.95        87.14495
279.40         85.1986
279.86        82.47133
280.31        79.50218
280.77        77.26705
281.22        75.75012
281.68        74.77965
282.13         74.0391
282.59        73.29613
283.04        72.39168
283.50        71.47964
283.95        70.58586
284.41        69.86365
284.86        69.25274
285.32        68.76098
285.77        68.16688
286.22        67.29443
286.68        66.17476
287.13        64.82958
287.59        63.58039
288.04        62.72874
288.50        62.36506
288.95        62.32747
289.41        62.36541
289.86        61.99741
290.32        61.19017
290.77        60.06219
291.22        58.93993
291.68        58.25499
292.13        58.05192
292.59        58.22458
293.04        58.51649
293.50        58.55096
293.95        58.23368
294.40        57.71559
294.86        57.25865
295.31        57.20145
295.77        57.61125
296.22        58.32873
296.68        59.13427
297.13        59.68135
297.58        59.84739
298.04        59.79016
298.49        59.57421
298.95        59.37213
299.40        59.22289
299.85        59.10145
300.31        59.11309
300.76         59.3785
301.21        59.90978
301.67        60.66502
302.12        61.43319
302.58        61.93118
303.03        62.06261
303.48        61.93631
303.94        61.74842
304.39        61.69144
304.84        61.85293
305.30        62.15041
305.75        62.47377
306.20        62.71573
306.66        62.86073
307.11        62.91991
307.57         62.9381
308.02         62.8524
308.47        62.70994
308.93        62.53338
309.38        62.36145
309.83        62.33104
310.29        62.46136
310.74        62.69209
311.19        62.94535
311.65        63.08707
312.10         63.0578
312.55        62.88863
313.00        62.62217
313.46        62.33351
313.91        62.03308
314.36        61.73627
314.82        61.43253
315.27        61.08616
315.72        60.71665
316.18        60.34739
316.63        60.05573
317.08        59.96647
317.53        60.08803
317.99        60.36007
318.44        60.66342
318.89        60.76781
319.35        60.61061
319.80        60.25625
320.25        59.80689
320.70        59.44321
321.16        59.20679
321.61        59.05051
322.06        58.92115
322.51        58.73789
322.97        58.47114
323.42        58.17815
323.87        57.85764
324.32        57.50585
324.78        57.12783
325.23        56.73995
325.68        56.38434
326.13        56.14605
326.59        56.02297
327.04        56.01877
327.49        56.05634
327.94         56.0242
328.39        55.88293
328.85        55.63822
329.30        55.35397
329.75        55.07431
330.20        54.82565
330.66        54.57936
331.11        54.36128
331.56        54.14658
332.01        53.93712
332.46        53.75106
332.92        53.58105
333.37          53.473
333.82        53.41032
334.27        53.38015
334.72        53.37868
335.17        53.40406
335.63        53.42803
336.08        53.46801
336.53        53.47404
336.98        53.39478
337.43        53.22177
337.88        52.97535
338.34        52.69148
338.79        52.43962
339.24        52.24637
339.69        52.11187
340.14        52.03166
340.59        51.99346
341.05        51.98511
341.50        52.00313
341.95        52.05113
342.40        52.14162
342.85        52.26151
343.30        52.39533
343.75        52.47388
344.20        52.39378
344.66        52.15928
345.11        51.80943
345.56        51.45323
346.01        51.25232
346.46        51.24792
346.91        51.38839
347.36        51.61338
347.81        51.82562
348.26        51.97963
348.72        52.09384
349.17         52.1495
349.62        52.13067
350.07        52.04282
350.52        51.89525
350.97        51.70383
351.42        51.50409
351.87        51.31008
352.32        51.10711
352.77        50.93687
353.22        50.85937
353.67        50.87444
354.13         50.9813
354.58        51.04726
355.03        50.90004
355.48        50.52315
355.93        49.98242
356.38        49.44096
356.83         49.1587
357.28        49.18322
357.73        49.41509
358.18         49.7075
358.63        49.82105
359.08        49.68086
359.53        49.36546
359.98        48.92551
360.43        48.44407
360.88        47.96485
361.33         47.4599
361.78        46.98449
362.23        46.62415
362.68         46.3915
363.13        46.28462
363.58        46.20655
364.03        45.99196
364.48        45.61124
364.93        45.10673
365.38        44.61333
365.83        44.34304
366.28        44.32978
366.73        44.49898
367.18        44.68674
367.63        44.63056
368.08        44.27003
368.53        43.69503
368.98        43.06244
369.43        42.60676
369.88        42.38876
370.33        42.34029
370.78        42.35771
371.23        42.26991
371.68        42.02588
372.13        41.68153
372.58        41.32148
373.03        41.06686
373.48        40.93942
373.93         40.8896
374.38        40.83135
374.83        40.63496
375.28        40.27583
375.72        39.79629
376.17        39.31693
376.62        38.94468
377.07        38.70357
377.52        38.55456
377.97        38.44646
378.42        38.30216
378.87        38.10044
379.32        37.86832
379.77        37.63525
380.22        37.43508
380.67        37.27155
381.11        37.13768
381.56        36.99081
382.01        36.79924
382.46        36.56284
382.91        36.29884
383.36        36.05271
383.81        35.88421
384.26        35.79913
384.71        35.77925
385.15        35.76111
385.60        35.66515
386.05        35.46623
386.50        35.18697
386.95        34.89728
387.40         34.7019
387.85        34.62174
388.29        34.61227
388.74        34.62329
389.19        34.50466
389.64        34.23409
390.09        33.85102
390.54        33.47755
390.98        33.27584
391.43        33.29105
391.88        33.51907
392.33        33.80082
392.78        33.74099
393.23        33.39687
393.67        33.18372
394.12        33.15887
394.57        33.06394
395.02        32.90939
395.47        32.83771
395.91        32.84411
396.36        32.82169
396.81        32.77609
397.26        32.75317
397.71        32.70829
398.15        32.61287
398.60        32.51237
399.05        32.22224
399.50        31.87556
399.95        32.02987
400.39        32.54381
400.84         32.4738
401.29        31.86531
401.74        31.56876
402.18        31.62673
402.63        31.56974
403.08        31.43858
403.53        31.25445
403.97        31.46595
404.42        31.63497
404.87        31.80856
405.32        31.84367
405.76        31.70945
406.21        31.45886
406.66        31.16943
407.11        30.97321
407.55        30.91321
408.00        30.94887
408.45        31.02111
408.90        31.01659
409.34        30.90137
409.79        30.70981
410.24        30.52224
410.68        30.44775
411.13         30.5068
411.58        30.66406
412.03        30.81402
412.47        30.78234
412.92        30.52685
413.37        30.12335
413.81        29.71214
414.26         29.5179
414.71        29.56485
415.15        29.80738
415.60        30.10159
416.05        30.22579
416.49        30.11303
416.94         29.8398
417.39        29.53816
417.83        29.39911
418.28        29.46412
418.73        29.65812
419.17        29.89026
419.62        29.99187
420.07        29.92048
420.51        29.73357
420.96        29.50032
421.41        29.29335
421.85        29.12871
422.30        28.99632
422.74        28.88949
423.19        28.88348
423.64         28.9559
424.08         29.0597
424.53        29.13591
424.98        29.20179
425.42        29.25336
425.87        29.17029
426.31        29.03448
426.76        29.15362
427.21        29.47507
427.65         29.5741
428.10        29.41843
428.54        29.33634
428.99        29.35958
429.44        29.25406
429.88         29.0325
430.33         29.0069
430.77        29.10158
431.22         28.9098
431.66        28.52139
432.11        28.61899
432.56        29.14315
433.00        29.25755
433.45        28.80187
433.89         28.8615
434.34        28.34181
434.78        28.40528
435.23         28.6058
435.67        28.61374
436.12        28.41922
436.57        28.37957
437.01        28.50668
437.46        28.53436
437.90        28.45479
438.35        28.39349
438.79         28.3434
439.24        28.23861
439.68        28.09667
440.13        28.01682
440.57        28.00029
441.02        27.98783
441.46        27.96505
441.91        27.98463
442.35        28.01495
442.80        28.08589
443.24        28.16555
443.69        28.23661
444.13        28.26809
444.58        28.24905
445.02        28.17519
445.47        28.04531
445.91        27.90776
446.36        27.86475
446.80        27.92176
447.24        28.05552
447.69        28.20479
448.13        28.26732
448.58        28.22453
449.02        28.10506
449.47        27.96519
449.91        27.87408
450.36        27.85853
450.80        27.88263
451.25        27.92796
451.69        27.95423
452.13        27.94892
452.58        27.92689
453.02        27.88091
453.47        27.81078
453.91        27.71972
454.36        27.61069
454.80        27.49309
455.24        27.42502
455.69        27.42862
456.13        27.40306
456.58        27.34218
457.02        27.54083
457.46        27.55437
457.91          27.517
458.35        27.33955
458.79         27.3396
459.24        27.48525
459.68        27.46202
460.13        27.31233
460.57        27.23677
461.01        27.25806
461.46         27.2629
461.90        27.22579
462.34        27.14487
462.79        27.01212
463.23        26.83224
463.68        26.67047
464.12        26.60942
464.56        26.65826
465.01        26.86278
465.45          27.095
465.89        27.09272
466.34        26.91169
466.78        26.85431
467.22         26.9557
467.67        27.03011
468.11        27.06424
468.55         27.0649
468.99        27.03745
469.44        27.02742
469.88        27.03871
470.32         27.0143
470.77        26.96863
471.21        26.96931
471.65        27.01698
472.10        27.09023
472.54        27.15294
472.98        27.16336
473.42        27.11582
473.87        27.04051
474.31        26.94994
474.75        26.88785
475.20        26.87629
475.64        26.88824
476.08        26.92416
476.52        27.00836
476.97        27.13796
477.41          27.259
477.85         27.3249
478.29        27.62545
478.74        27.47976
479.18        27.63213
479.62        27.84517
480.06        27.91916
480.50        27.83868
480.95        27.73796
481.39        27.65264
481.83        27.59642
482.27         27.6014
482.72        27.70397
483.16        27.84931
483.60        27.95048
484.04        28.00916
484.48        27.91466
484.93        27.82636
485.37        28.13608
485.81        28.90394
486.25        28.96961
486.69        29.88924
487.14        29.48636
487.58        28.71936
488.02        28.95675
488.46        29.08263
488.90        28.57133
489.34        28.88858
489.79        28.91202
490.23        29.19572
490.67        29.60109
491.11        30.02357
491.55        29.99469
491.99        29.61137
492.43        29.54603
492.88        29.84833
493.32        30.15866
493.76          30.397
494.20        30.60371
494.64        30.75659
495.08         30.8772
495.52        30.98026
495.96        31.03829
496.41        31.08987
496.85        31.22733
497.29          31.439
497.73        31.65555
498.17        31.82713
498.61        31.90813
499.05        31.91097
499.49        31.85282
499.93        31.81237
500.37        31.98614
500.82        32.30807
501.26        32.46701
501.70        32.43255
502.14        32.38749
502.58        32.38304
503.02        32.41693
503.46         32.5064
503.90        32.65393
504.34        32.82219
504.78        32.94875
505.22        33.01745
505.66         33.0352
506.10        33.02602
506.54        33.09925
506.98        33.28017
507.42        33.41313
507.86        33.41862
508.30        33.85028
508.74         33.5898
509.18        33.55276
509.62        33.47057
510.06        33.46933
510.50        33.56352
510.94        33.73208
511.38         33.9244
511.82        34.02518
512.26        34.01121
512.70        33.92209
513.14        33.80548
513.58        33.73613
514.02        33.73459
514.46        33.76998
514.90        33.83022
515.34        33.89617
515.78        33.95665
516.22        34.02704
516.66        34.07745
517.10        34.05735
517.54        33.96574
517.98         33.8152
518.42        33.67717
518.86        33.66806
519.30        33.80651
519.74        34.05455
520.18        34.31992
520.62        34.45059
521.06        34.40662
521.50        34.23238
521.93        34.00373
522.37        33.84959
522.81        33.80311
523.25        33.82672
523.69        33.87225
524.13        33.86369
524.57        33.78383
525.01        33.66686
525.45        33.54785
525.89        33.47747
526.32        33.46598
526.76        33.49329
527.20        33.53989
527.64        33.58102
528.08        33.60575
528.52        33.62397
528.96         33.6231
529.40        33.58449
529.83        33.50232
530.27        33.38301
530.71        33.25949
531.15        33.18924
531.59        33.18097
532.03         33.2245
532.46        33.26194
532.90        33.19951
533.34        33.02982
533.78        32.79647
534.22        32.57729
534.66        32.48485
535.09        32.53214
535.53        32.67799
535.97        32.86501
536.41        32.97623
536.85        32.97372
537.28         32.9795
537.72         32.9846
538.16        32.77065
538.60        32.45716
539.04        32.49153
539.47        32.81321
539.91        32.95661
540.35        32.89395
540.79        32.90445
541.22        32.98771
541.66        33.03871
542.10        33.06257
542.54        33.04163
542.97        33.01864
543.41        33.18994
543.85        33.50714
544.29        33.69965
544.72        33.75409
545.16        33.88918
545.60        34.09734
546.04         34.2501
546.47         34.3535
546.91        34.48262
547.35        34.64125
547.79        34.82278
548.22        35.01053
548.66        35.17617
549.10        35.32538
549.53        35.54734
549.97        35.81881
550.41        36.02282
550.84        36.14185
551.28        36.24469
551.72        36.32612
552.15        36.35137
552.59        36.34967
553.03        36.32355
553.46        36.31227
553.90        36.42231
554.34         36.6454
554.77        36.91019
555.21         37.1809
555.65        37.42961
556.08        37.62624
556.52        37.76974
556.96        37.85316
557.39        37.90231
557.83        37.93951
558.27        37.90977
558.70        37.85343
559.14        37.92736
559.57        38.10265
560.01        38.21336
560.45        38.25258
560.88        38.34402
561.32        38.50238
561.75        38.62073
562.19        38.72548
562.63        38.82127
563.06        38.89476
563.50         39.0702
563.93        39.27701
564.37        39.14265
564.80        38.78913
565.24        38.87754
565.68        39.33438
566.11        39.55719
566.55        39.52962
566.98        39.55915
567.42        39.66884
567.85         39.8677
568.29        39.89521
568.72        39.98866
569.16         40.1023
569.60        40.26038
570.03        40.45993
570.47        40.65762
570.90        40.81227
571.34        41.04952
571.77        41.52067
572.21        41.27962
572.64        41.55004
573.08        41.44537
573.51        42.12447
573.95        42.12745
574.38        41.90802
574.82        41.59872
575.25        42.43855
575.69        42.64936
576.12        42.53477
576.56        42.05474
576.99        42.40461
577.42        42.89776
577.86        42.66947
578.29        42.78043
578.73        42.61266
579.16        42.59725
579.60        42.54956
580.03        42.46881
580.47        42.30067
580.90        42.16979
581.33        41.86409
581.77        41.98775
582.20        42.75626
582.64        42.65042
583.07        42.36095
583.51        41.90467
583.94        41.65809
584.37        41.35093
584.81        41.14925
585.24        41.05751
585.68        41.69279
586.11         41.3167
586.54         41.3243
586.98        40.80762
587.41        40.73006
587.85        41.02603
588.28        41.18624
588.71        40.84745
589.15        40.62856
589.58        40.85085
590.01        40.44926
590.45        40.25121
590.88        40.36188
591.31        40.58815
591.75         40.9629
592.18        40.82413
592.61        40.27748
593.05        40.58196
593.48        41.57049
593.91        41.09762
594.35        41.16949
594.78        41.03048
595.21        41.28717
595.65        41.36358
596.08        41.22483
596.51        41.58151
596.94        41.80438
597.38        41.80425
597.81        41.88038
598.24        42.28182
598.68        42.60244
599.11        42.14817
599.54        43.50074
599.97        43.24363
600.41        43.64609
600.84        43.78632
601.27        44.10569
601.70        44.35927
602.14        44.54486
602.57        44.89444
603.00        45.35608
603.43        45.71466
603.87        45.97022
604.30        46.29276
604.73        46.69312
605.16        46.91444
605.60        46.68627
606.03        47.01149
606.46        47.76354
606.89        47.65241
607.32        48.14978
607.76        48.21308
608.19         48.5931
608.62        48.80672
609.05        48.94906
609.48        49.30122
609.92        49.97053
610.35        49.72208
610.78        50.95601
611.21        51.24294
611.64        51.44043
612.07        51.54278
612.50        51.71301
612.94         51.6963
613.37        51.46456
613.80          52.189
614.23        52.13663
614.66         52.0398
615.09        52.27156
615.52           52.47
615.96        52.83387
616.39        53.09737
616.82        53.27244
617.25        53.27678
617.68        53.67715
618.11         53.5388
618.54        53.19273
618.97        53.23304
619.40        53.67577
619.84        54.02688
620.27        54.18948
620.70        54.40456
621.13        54.70301
621.56        54.31606
621.99        54.20367
622.42        54.34208
622.85         54.9974
623.28         54.5396
623.71        54.32629
624.14        54.70785
624.57        54.23271
625.00        54.04765
625.43        54.34839
625.86        54.35987
626.29        54.15639
626.72        54.79313
627.15        54.35342
627.58        54.32829
628.01        54.12772
628.44        54.00007
628.87        53.98807
629.30        53.45983
629.73        53.26015
630.16        53.39288
630.59        52.89517
631.02        52.75787
631.45        52.63867
631.88        52.46188
632.31        52.17736
632.74        52.27247
633.17        51.91599
633.60        51.71939
634.03         51.4345
634.46        51.09852
634.89        50.72038
635.32        50.33217
635.75        49.95594
636.18        49.57935
636.61        49.22166
637.04        48.91242
637.47        48.65688
637.89        48.43944
638.32        48.21083
638.75        47.96692
639.18        47.71086
639.61        47.26243
640.04        47.01095
640.47        46.72282
640.90         46.5196
641.33        46.37606
641.76        46.29097
642.18        46.26217
642.61        46.26057
643.04         46.2927
643.47        46.33203
643.90        46.33491
644.33        46.29081
644.76        46.21754
645.18        46.14901
645.61        46.08273
646.04        46.02794
646.47        46.08969
646.90        46.30656
647.33        46.18143
647.75        46.58799
648.18        46.81836
648.61         47.1152
649.04        47.42752
649.47        47.75187
649.89        48.08118
650.32        48.38555
650.75        48.70786
651.18        49.03822
651.61        49.28348
652.03        49.49165
652.46        49.85431
652.89        50.29927
653.32         50.5455
653.74        50.84077
654.17        50.83912
654.60        51.19367
655.03        52.27667
655.46        52.09716
655.88        51.78835
656.31        54.94406
656.74        60.50684
657.16        57.04477
657.59        53.15022
658.02        54.15295
658.45        54.88883
658.87         55.7459
659.30        54.89703
659.73        54.50638
660.15        55.51928
660.58        54.83764
661.01        55.15907
661.44        55.29945
661.86         55.3094
662.29        55.21478
662.72        55.47359
663.14        56.04984
663.57        56.21795
664.00        56.06584
664.42        56.10134
664.85        56.72393
665.27        56.93795
665.70        56.85261
666.13        56.88481
666.55        57.05323
666.98        57.13128
667.41        57.13611
667.83        57.18696
668.26        57.28665
668.69        57.42611
669.11        57.56582
669.54        57.61969
669.96        57.57742
670.39        57.50719
670.82        57.49673
671.24        57.56587
671.67        57.77287
672.09        58.30687
672.52        59.02802
672.94        59.21296
673.37         59.4415
673.80        59.08318
674.22        58.56778
674.65        58.40588
675.07         58.6982
675.50        59.19084
675.92        59.71641
676.35        60.03716
676.77        60.06812
677.20        59.93443
677.62        59.76905
678.05        59.62933
678.47        59.53675
678.90        60.05693
679.32        60.04731
679.75        60.32264
680.17        60.53524
680.60        60.65287
681.02          60.668
681.45        60.94233
681.87        60.85271
682.30        60.95722
682.72        61.04615
683.15          60.931
683.57        60.70036
684.00        60.74693
684.42         61.0279
684.85        61.18109
685.27        61.18855
685.70        61.12495
686.12        60.99746
686.54        61.34401
686.97        61.44383
687.39        61.42722
687.82        61.11398
688.24        61.00317
688.66        61.12932
689.09        60.91334
689.51        60.92864
689.94        60.98924
690.36        61.28517
690.78        61.59006
691.21        61.77163
691.63        62.46967
692.06         62.0846
692.48        62.39817
692.90        62.85335
693.33        63.02908
693.75        62.90481
694.17         62.6319
694.60        62.35942
695.02        62.68416
695.44        62.74393
695.87        63.36591
696.29        64.04881
696.71        64.01084
697.14        63.34732
697.56        63.00753
697.98         63.0896
698.41        63.07412
698.83        62.89312
699.25        63.02111
699.68        63.35004
700.10        63.59457
700.52        63.68225
700.94         63.7015
701.37        63.69487
701.79        63.74944
702.21        63.87211
702.64        64.02444
703.06        64.15475
703.48        64.19678
703.90        64.14759
704.33        64.04473
704.75        63.94764
705.17        63.93382
705.59        64.02168
706.01        64.17343
706.44        64.38005
706.86        64.61861
707.28        64.84179
707.70        65.15083
708.12        65.46237
708.55        65.41093
708.97        65.08762
709.39         65.0603
709.81        65.33458
710.23        65.44492
710.66        65.37951
711.08        65.44931
711.50        65.63873
711.92        65.79354
712.34        65.90064
712.76         65.9957
713.19        66.05896
713.61         66.1172
714.03        66.14589
714.45        66.13482
714.87        66.09064
715.29        66.02795
715.71        65.94952
716.13         65.8631
716.56        65.76653
716.98        65.66541
717.40        65.54158
717.82        65.51716
718.24        65.63596
718.66        65.39814
719.08        65.70118
719.50        65.79915
719.92        65.95237
720.34         66.1273
720.76        66.31983
721.19        66.51279
721.61        66.65623
722.03        66.69493
722.45        66.65138
722.87         66.3923
723.29        66.02054
723.71        66.14927
724.13        66.82118
724.55        66.41773
724.97        66.93958
725.39        66.94366
725.81        67.02319
726.23        66.95735
726.65         66.8285
727.07        66.82414
727.49        66.95789
727.91        67.19201
728.33        67.44724
728.75        67.63953
729.17        67.74302
729.59        67.70335
730.01        67.56609
730.43        67.84426
730.85        67.85257
731.27         68.1162
731.69        68.34827
732.10        68.45571
732.52        68.40703
732.94        68.24656
733.36        68.04666
733.78         67.9234
734.20        67.92428
734.62        67.99807
735.04          68.083
735.46        68.24911
735.88        68.19199
736.30        68.15474
736.72        68.12711
737.13        68.16911
737.55        68.23949
737.97          68.565
738.39        69.01664
738.81         68.7993
739.23        68.14013
739.65        68.44237
740.06         69.4725
740.48        69.75327
740.90        69.20119
741.32        68.63737
741.74        68.28032
742.16        68.10866
742.57        68.20934
742.99        68.60059
743.41        69.14224
743.83        69.49682
744.25        69.62605
744.67        69.77927
745.08        69.98719
745.50        70.07091
745.92        70.05618
746.34         70.0428
746.75         70.0134
747.17        69.91531
747.59        69.74883
748.01         69.5259
748.42         69.3265
748.84        69.26508
749.26        69.31831
749.68        69.49864
750.09        69.73428
750.51        69.59863
750.93        69.28088
751.35        69.75016
751.76        70.83806
752.18        71.16535
752.60        70.83971
753.01        70.40837
753.43        70.13908
753.85        69.92194
754.27        69.78343
754.68        70.29909
755.10        70.45947
755.52        70.52147
755.93        70.79075
756.35        70.89616
756.77        70.93469
757.18        70.91756
757.60        70.90547
758.02        70.44232
758.43        69.80106
758.85        70.57967
759.26        72.14384
759.68        72.58927
760.10        71.64767
760.51         71.5386
760.93        70.91441
761.34        70.83276
761.76        71.23224
762.18        71.02842
762.59        70.52275
763.01        70.45907
763.42        71.41763
763.84        71.69028
764.26         71.4229
764.67        71.06971
765.09        70.84677
765.50        71.06694
765.92        71.59895
766.33        71.47676
766.75        70.80103
767.16         70.6808
767.58         71.1706
768.00        71.39369
768.41        71.38852
768.83        71.98576
769.24        72.88897
769.66        72.84859
770.07        71.96815
770.49        71.26279
770.90        70.93665
771.32        71.02066
771.73        71.44411
772.15        71.72173
772.56        71.82724
772.97        72.11504
773.39        72.51339
773.80         72.7615
774.22        72.77893
774.63         72.6799
775.05        72.50011
775.46         72.3574
775.88        72.27549
776.29        72.25091
776.70        72.26207
777.12        72.28408
777.53        72.32555
777.95         72.3711
778.36        72.43811
778.77        72.51134
779.19        72.59822
779.60        72.71249
780.02        72.81833
780.43        72.90805
780.84        72.99441
781.26         72.9268
781.67          72.842
782.09        73.19804
782.50        73.86577
782.91        74.12759
783.33        73.93842
783.74        73.86732
784.15        73.88738
784.57        73.70715
784.98        73.39126
785.39        73.11285
785.81        72.96979
786.22        73.13393
786.63        73.49838
787.04        73.67027
787.46        73.62278
787.87        73.51843
788.28         73.4668
788.70        73.54788
789.11        73.76438
789.52        74.09584
789.93        74.44886
790.35         74.6544
790.76        74.69823
791.17        74.64082
791.58        74.54377
792.00        74.45815
792.41        74.43938
792.82         74.4917
793.23        74.60439
793.65        74.68044
794.06        74.74074
794.47        74.90462
794.88        75.08019
795.29        75.01984
795.71        74.66049
796.12        74.29412
796.53        74.01465
796.94        73.59591
797.35        73.26289
797.76        73.86946
798.18        75.11984
798.59        75.72539
799.00        75.48882
799.41        75.05429
799.82        74.66342
800.23        74.45267
800.64        74.51785
801.06        74.77402
801.47        75.14024
801.88        75.35739
802.29        75.33274
802.70        75.11571
803.11        74.82321
803.52        74.63882
803.93        74.62989
804.34        74.76798
804.75         74.9006
805.17        74.85371
805.58        74.63539
805.99        74.04727
806.40        73.39866
806.81        73.77113
807.22        74.94122
807.63        75.47034
808.04        75.25449
808.45        75.24451
808.86         75.4271
809.27        75.12995
809.68        74.49154
810.09        74.13837
810.50        74.17437
810.91        74.42445
811.32        74.76051
811.73        74.96636
812.14        74.97035
812.55        74.86217
812.96        74.71535
813.37        74.63645
813.78         74.6698
814.19         74.7737
814.60        74.91731
815.01        75.06619
815.42        75.20893
815.83        75.35993
816.24        75.52051
816.65        75.68153
817.05        75.82864
817.46        75.90533
817.87        75.93312
818.28        75.89787
818.69         75.8053
819.10        75.67741
819.51        75.51975
819.92        75.34702
820.33        75.17896
820.74        75.00848
821.14        74.90073
821.55        74.97012
821.96        75.21459
822.37        75.62405
822.78        76.04316
823.19        76.18884
823.60         75.9995
824.00        75.57114
824.41        75.10641
824.82        75.03624
825.23        75.45708
825.64        76.23457
826.04        77.15958
826.45        77.76441
826.86         77.9346
827.27        77.79187
827.68        77.44853
828.08        77.12036
828.49        76.85415
828.90        76.61147
829.31        76.43127
829.72        76.38319
830.12        76.50268
830.53        76.73302
830.94        77.00398
831.35        77.11774
831.75        77.03591
832.16         76.7505
832.57        76.38791
832.97        76.12655
833.38         76.0231
833.79        76.03374
834.20         76.0903
834.60          76.075
835.01        75.98337
835.42         75.8644
835.82        75.79804
836.23        75.85969
836.64        76.08223
837.04        76.44164
837.45        76.82961
837.86         77.2005
838.26        77.52176
838.67        77.75705
839.08        77.86109
839.48        77.74433
839.89        77.40939
840.29        76.86668
840.70        76.29578
841.11        75.90249
841.51        75.76524
841.92        75.86317
842.33        76.04847
842.73        76.06161
843.14        75.80107
843.54        75.35658
843.95        75.00937
844.35        75.25003
844.76        76.10562
845.17        77.42978
845.57        78.79834
845.98        79.32152
846.38        78.83797
846.79        77.63332
847.19        76.17976
847.60        75.23256
848.00        74.98687
848.41        75.19093
848.81        75.72614
849.22        76.27497
849.62        76.75566
850.03          77.225
850.43        77.59447
850.84        77.56193
851.24        77.15001
851.65        76.38025
852.05        75.57893
852.46        75.29881
852.86        75.60746
853.27        76.34148
853.67        77.14728
854.07        77.75201
854.48         78.0181
854.88        78.12285
855.29        77.94193
855.69        77.53966
856.10        76.87881
856.50        76.03794
856.90        75.24044
857.31        74.84781
857.71        74.95695
858.12         75.4556
858.52         76.1694
858.92        76.53622
859.33        76.37808
859.73        75.88696
860.13        75.28939
860.54        74.99452
860.94        75.14415
861.34        75.56444
861.75         76.0639
862.15        76.43765
862.55        76.54095
862.96        76.45621
863.36        76.20453
863.76        75.81856
864.17        75.34225
864.57        74.82427
864.97        74.29842
865.38        73.80581
865.78        73.41667
866.18        73.09724
866.58        72.96918
866.99        73.21664
867.39        73.84913
867.79        74.75385
868.19         75.6024
868.60        75.87565
869.00        75.48857
869.40        74.60332
869.80        73.54383
870.21        72.90384
870.61        72.89814
871.01        73.31094
871.41        73.95223
871.81        74.53571
872.22        74.94007
872.62        75.32644
873.02        75.65636
873.42        75.83392
873.82        75.85574
874.22         75.7155
874.63        75.60327
875.03        75.80046
875.43        76.34834
875.83        77.12412
876.23          77.919
876.63        78.35168
877.03        78.33392
877.44        78.06528
877.84        77.57456
878.24        76.94496
878.64        76.26093
879.04        75.43974
879.44        74.84118
879.84        74.99651
880.24        75.91364
880.64        77.47791
881.04        78.91782
881.44        78.84653
881.84         77.0401
882.24        74.06857
882.65        71.07851
883.05        69.58772
883.45        69.95045
883.85        71.70137
884.25        74.15459
884.65        76.01932
885.05        76.77927
885.45        76.78712
885.85        76.35942
886.25        75.99628
886.65        75.87312
887.05        75.76949
887.45         75.6466
887.85        75.50962
888.25        75.35109
888.65        75.25436
889.04        75.18455
889.44        75.07183
889.84        74.89932
890.24        74.70074
890.64        74.54733
891.04        74.56613
891.44        74.78102
891.84        75.13544
892.24        75.57317
892.64         76.0077
893.04        76.41162
893.44        76.81853
893.83        77.21725
894.23        77.50169
894.63        77.67391
895.03        77.68401
895.43        77.65232
895.83        77.78085
896.23        78.09718
896.63        78.58619
897.02        78.94359
897.42        78.67589
897.82        77.74723
898.22        76.33548
898.62        74.98792
899.01        74.46644
899.41        74.91686
899.81        76.15024
900.21         77.5816
900.61        78.09705
901.00        77.39664
901.40        75.93272
901.80        74.44779
902.20        73.96464
902.59        74.70638
902.99         76.3185
903.39        78.30328
903.79        79.57234
904.18        79.69483
904.58        79.05239
904.98        78.12786
905.38        77.58493
905.77        77.58594
906.17         77.9228
906.57        78.41742
906.96         78.8511
907.36        79.06431
907.76        79.14837
908.15        79.15871
908.55        79.06822
908.95        78.92408
909.34        78.72804
909.74        78.42988
910.14        77.91788
910.53        77.22159
910.93        76.43194
911.33        75.81606
911.72        75.81042
912.12        76.46577
912.52        77.60249
912.91        78.88065
913.31        79.73065
913.70        80.01057
914.10        79.81258
914.49        79.32195
914.89         78.7911
915.29        78.38247
915.68        78.04031
916.08        77.80537
916.47        77.68777
916.87        77.70693
917.26        77.81665
917.66        78.04639
918.05        78.39995
918.45        78.81832
918.84        79.35423
919.24        79.70778
919.64         79.5187
920.03        78.74966
920.42        77.52377
920.82        76.36926
921.21        75.87368
921.61        76.14409
922.00        77.07133
922.40        78.19251
922.79        78.78148
923.19        78.57314
923.58        77.81693
923.98        76.99647
924.37        76.78409
924.77        77.33418
925.16        78.44997
925.55         79.7405
925.95        80.49091
926.34        80.50871
926.74        79.98397
927.13        79.22926
927.52        78.71646
927.92        78.57523
928.31        78.63969
928.70         78.7675
929.10        78.71391
929.49        78.44302
929.89        78.09683
930.28        77.77055
930.67         77.5463
931.07        77.45608
931.46        77.45576
931.85        77.64501
932.24        78.22369
932.64        79.15041
933.03        80.42137
933.42        81.63499
933.82        82.14689
934.21        81.84715
934.60        80.89975
934.99        79.79452
935.39        79.26588
935.78        79.47032
936.17        80.16953
936.56        81.01323
936.96        81.40104
937.35        81.20467
937.74        80.63972
938.13        79.82448
938.53        78.92822
938.92        78.07033
939.31         77.2709
939.70        76.76704
940.09        76.94691
940.49        77.77382
940.88        79.10542
941.27        80.63369
941.66         81.7928
942.05        82.31507
942.44        82.36031
942.84         81.7383
943.23        80.20705
943.62        77.99999
944.01        75.39965
944.40        73.22231
944.79        72.48505
945.18        73.29032
945.57        75.40899
945.97        78.09262
946.36        80.05422
946.75        80.58734
947.14        80.03628
947.53        79.00724
947.92        78.55178
948.31        78.96272
948.70        79.80971
949.09          80.858
949.48        81.74917
949.87        82.31047
950.26        82.77068
950.65        82.91385
951.04         82.3426
951.43        81.09598
951.82        79.29462
952.21        77.60764
952.60         77.0686
952.99        77.83985
953.38         79.6338
953.77         81.6564
954.16        82.51049
954.55        81.80151
954.94        79.92599
955.33        77.64487
955.72        76.22265
956.11         76.0423
956.50        76.75179
956.89        77.83262
957.28        78.43088
957.66         78.3064
958.05        77.73752
958.44        77.12046
958.83        77.04762
959.22        77.65746
959.61        78.69072
960.00         79.7903
960.39        80.37976
960.78        80.27328
961.16        79.67657
961.55        78.82327
961.94        78.05923
962.33        77.52304
962.72        77.10854
963.11        76.85069
963.49        76.83165
963.88        76.99303
964.27        77.37794
964.66        77.81514
965.04        78.00543
965.43         77.8387
965.82        77.43726
966.21        77.02802
966.60        77.01258
966.98        77.49519
967.37        78.28156
967.76         79.2151
968.15        80.01996
968.53        80.59443
968.92        80.97536
969.31        81.11246
969.69        80.91631
970.08        80.38165
970.47         79.5558
970.86        78.71118
971.24        78.28849
971.63        78.40142
972.02        79.03742
972.40         79.9488
972.79        80.58649
973.17        80.86748
973.56        80.83548
973.95        80.90291
974.33        81.75269
974.72         83.4157
975.11         85.7262
975.49        88.16768
975.88        89.46866
976.26        89.21297
976.65        87.70292
977.04         85.5432
977.42        83.53078
977.81        81.96401
978.19        80.59605
978.58        79.43311
978.96         78.2733
979.35        77.10297
979.74        76.02008
980.12        75.11929
980.51        74.37635
980.89        73.90769
981.28         73.7213
981.66        73.80998
982.05        74.06646
982.43        74.48445
982.82        74.98891
983.20        75.80558
983.59         77.3407
983.97        79.69651
984.35        82.72388
984.74        85.57038
985.12        87.00134
985.51        86.46879
985.89        84.47731
986.28        82.01599
986.66        80.15903
987.04        79.30495
987.43        79.02817
987.81        79.27412
988.20         79.7189
988.58        80.27415
988.96        81.09689
989.35         81.7154
989.73        81.46206
990.12         80.2472
990.50        78.20318
990.88        76.20345
991.27        75.55785
991.65        76.53726
992.03        78.94739
992.42        81.64185
992.80        82.61774
993.18        80.99641
993.56        77.68542
993.95        74.37197
994.33        72.63594
994.71        72.86374
995.10        74.44511
995.48        76.78539
995.86         78.0706
996.24        77.58514
996.63        76.10358
997.01        74.45475
997.39        73.69318
997.77         74.1125
998.15        75.24398
998.54        77.07723
998.92        79.69127
999.30        82.85429
999.68        86.56551
1000.06        89.80786
1000.45        90.69547
1000.83        89.03748
1001.21        85.41084
1001.59        81.34694
1001.97        78.93612
1002.35        78.62834
1002.73        79.92819
1003.12          82.201
1003.50        84.30589
1003.88        85.65189
1004.26        86.61169
1004.64        87.28137
1005.02        87.87097
1005.40        88.36543
1005.78        88.28011
1006.16        87.79832
1006.54        87.36304
1006.92        87.02155
1007.30        86.94521
1007.69        86.07911
1008.07         82.7445
1008.45        77.28305
1008.83        70.98693
1009.21        66.07314
1009.59        64.77913
1009.97        67.18631
1010.35        72.85883
1010.73        80.26606
1011.11        85.37222
1011.49        86.06975
1011.86        82.88592
1012.24        78.34807
1012.62        76.60065
1013.00        78.90096
1013.38        84.66579
1013.76        91.49761
1014.14        93.18007
1014.52        88.20779
1014.90        80.25199
1015.28         73.4378
1015.66        71.24913
1016.04        73.85823
1016.41         80.5599
1016.79        90.14524
1017.17         99.3103
1017.55        105.1286
1017.93         107.904
1018.31         106.829
1018.69        101.9252
1019.06        94.75832
1019.44        86.84781
1019.82        80.37914
1020.20        76.95049
1020.58         76.1614
1020.95        77.78385
1021.33        80.71642
1021.71        82.21233
1022.09        81.08398
1022.46        77.80528
1022.84        74.66371
1023.22        74.55862
1023.60        78.28374
1023.97        86.19762
1024.35        95.76862
1024.73        98.47211
