SpectraSmart Spectrum 2.9.0.0
--------- Device Information -----------
Spectrum Name :  反射率_0
Saving Time :  2024/05/03 20:39:17
Spectro-Module Model Name : SE2030-DUVN
Spectro-Module Serial Number : OS361AC55029948
Wavelength Start : 200
Wavelength End : 1025
Wavelength Unit : Wavelength(nm)
Spectrum Unit : Reflectance(%)
-----------Spectrum Setting ------------
Integration Time : 20ms
Average : 10
Boxcar : 0
Background removal :  enabled
linearity correction :  enabled
SC :  disabled
Intensity correction :  disabled
DWT denoise :  enabled
savitzky-golay :  disabled
FFT :  disabled
Running average :  disabled
Kalman :  disabled
High pass :  disabled
---------------BEGIN--------------------
Wavelength(nm)             Reflectance(%)
200.29               0
200.75        15.04056
201.21         45.4148
201.67       -1951.997
202.13         -72.305
202.58       -34.67668
203.04       -16.25336
203.50       -5.533472
203.96       -3.076225
204.42       -10.83229
204.88        -50.3813
205.34         1445.16
205.80        162.8228
206.26        180.1885
206.72        35435.04
207.18       -97.78276
207.64       -59.39164
208.10       -73.41938
208.55       -158.9573
209.01       -1009.407
209.47       -1264.967
209.93       -142.1633
210.39       -35.65646
210.85       -8.113132
211.31       0.2772112
211.77        1.238862
212.23       -3.893551
212.69       -26.34811
213.14       -65.19649
213.60       -58.37329
214.06       -41.86298
214.52       -33.65456
214.98       -32.36386
215.44        -37.3765
215.90       -60.99811
216.36        264.2692
216.81        30.51012
217.27        17.96471
217.73        19.26181
218.19        53.38392
218.65         1011.05
219.11        75.64402
219.57        22.57952
220.02        13.14509
220.48        4.918177
220.94        23.93189
221.40        15.45226
221.86        14.54731
222.32        15.76422
222.77        18.62693
223.23        24.02883
223.69        31.36055
224.15        32.55059
224.61        24.10286
225.06        13.44473
225.52        6.329393
225.98         4.04577
226.44        5.440629
226.90        10.08491
227.36        16.77227
227.81         20.5211
228.27        18.93001
228.73        14.74494
229.19        11.07509
229.65        10.32483
230.10        11.97073
230.56        14.57505
231.02        17.28538
231.48        19.44639
231.93        20.98255
232.39         22.2633
232.85        23.32299
233.31        24.10241
233.77        24.64986
234.22        24.94691
234.68        25.16151
235.14        25.59012
235.60        26.31928
236.05        27.33619
236.51        28.46841
236.97        29.34503
237.43        29.75899
237.88        30.01138
238.34        30.22511
238.80        30.40139
239.26          30.611
239.71         33.1887
240.17        35.00233
240.63         39.8151
241.08        45.22461
241.54        48.81054
242.00        50.35574
242.46        52.30213
242.91        56.14616
243.37        62.04422
243.83        69.75165
244.28        70.57236
244.74        53.38641
245.20        26.34478
245.66        4.080001
246.11       -7.019604
246.57       -9.143296
247.03       -5.320532
247.48        1.030918
247.94        6.532455
248.40        11.05498
248.85        15.30811
249.31        20.00667
249.77        24.44819
250.22        27.57829
250.68         29.2673
251.14        30.38153
251.59        32.35971
252.05        35.98755
252.51        41.84465
252.96        50.41743
253.42        58.76735
253.88        62.20047
254.33        60.66275
254.79        56.47997
255.25        51.60473
255.70        47.53305
256.16        44.96677
256.62        43.61582
257.07        43.34913
257.53        44.03318
257.99        44.94191
258.44        45.73934
258.90        46.49649
259.35        46.74501
259.81        46.88577
260.27        46.46328
260.72        45.06089
261.18        43.23072
261.63        41.14197
262.09        39.42893
262.55        38.44501
263.00        38.05514
263.46        38.07116
263.91        38.14373
264.37        38.01182
264.83        37.57138
265.28        36.94345
265.74        36.24894
266.19        35.44801
266.65        34.65196
267.11        33.80184
267.56        32.99681
268.02          32.458
268.47        32.16027
268.93        32.06224
269.38        31.98057
269.84        31.60024
270.30        30.89034
270.75        29.96568
271.21        29.07957
271.66        28.51224
272.12        28.30968
272.57        28.32168
273.03        28.38197
273.48        28.25644
273.94        27.88438
274.39        27.36082
274.85        26.72729
275.31           25.96
275.76        25.09931
276.22        24.20901
276.67        23.42829
277.13          23.028
277.58        22.96242
278.04        23.16094
278.49        23.35589
278.95         23.1759
279.40        22.54399
279.86        21.68057
280.31        20.78821
280.77        20.20837
281.22        19.93255
281.68        19.87185
282.13        19.88051
282.59        19.80091
283.04        19.57806
283.50        19.29057
283.95        18.98891
284.41        18.75183
284.86        18.59423
285.32         18.5117
285.77        18.46302
286.22        18.44178
286.68        18.44515
287.13        18.44792
287.59        18.49218
288.04        18.60195
288.50        18.78423
288.95        19.00404
289.41        19.19136
289.86        19.19943
290.32        19.03577
290.77         18.7494
291.22        18.47741
291.68        18.40661
292.13        18.57232
292.59         18.9454
293.04         19.4292
293.50        19.87338
293.95        20.22337
294.40        20.52295
294.86        20.85702
295.31        21.35863
295.77        22.04809
296.22        22.85686
296.68         23.6735
297.13        24.31548
297.58        24.71999
298.04        24.96206
298.49        25.09611
298.95         25.2382
299.40         25.4226
299.85        25.62824
300.31        25.90387
300.76        26.29698
301.21        26.81025
301.67        27.43017
302.12        28.04182
302.58        28.47785
303.03        28.69116
303.48        28.73559
303.94        28.74346
304.39        28.86801
304.84        29.15837
305.30        29.55765
305.75        29.95798
306.20        30.22088
306.66          30.324
307.11        30.30395
307.57        30.24233
308.02        30.19864
308.47        30.21153
308.93        30.25648
309.38        30.30514
309.83        30.35284
310.29        30.38794
310.74        30.40353
311.19        30.38596
311.65        30.30713
312.10        30.15713
312.55        29.95024
313.00        29.69971
313.46         29.4298
313.91        29.14642
314.36        28.86275
314.82        28.60453
315.27        28.39829
315.72        28.25406
316.18        28.16145
316.63        28.09838
317.08        28.03131
317.53        27.94344
317.99         27.8329
318.44        27.69857
318.89         27.5312
319.35        27.33099
319.80          27.099
320.25        26.84674
320.70         26.5973
321.16        26.35126
321.61        26.10979
322.06        25.86082
322.51        25.58601
322.97        25.28346
323.42        24.97138
323.87         24.6591
324.32        24.36238
324.78        24.08488
325.23        23.82823
325.68        23.59375
326.13        23.38716
326.59        23.19814
327.04        23.03838
327.49        22.88657
327.94        22.71552
328.39        22.51848
328.85        22.29703
329.30        22.07558
329.75        21.87786
330.20        21.71317
330.66        21.56477
331.11         21.4388
331.56        21.31375
332.01        21.18303
332.46        21.05393
332.92        20.91068
333.37        20.75495
333.82        20.57742
334.27        20.37558
334.72        20.17688
335.17        20.03037
335.63        19.93854
336.08        19.90153
336.53        19.86543
336.98        19.74733
337.43        19.53143
337.88        19.24747
338.34        18.95201
338.79        18.73876
339.24        18.63227
339.69          18.602
340.14         18.6096
340.59        18.59358
341.05        18.52937
341.50        18.43433
341.95        18.31175
342.40        18.17108
342.85        18.01823
343.30        17.84759
343.75        17.66722
344.20        17.49375
344.66        17.34374
345.11        17.22197
345.56        17.12823
346.01        17.05334
346.46         16.9973
346.91        16.95776
347.36        16.95412
347.81        17.01895
348.26        17.14652
348.72        17.31586
349.17        17.46866
349.62        17.52135
350.07         17.4569
350.52        17.30331
350.97        17.10885
351.42        16.95297
351.87        16.86037
352.32        16.80782
352.77        16.78172
353.22         16.7583
353.67        16.72654
354.13        16.70325
354.58         16.6659
355.03        16.59236
355.48        16.48322
355.93        16.34597
356.38        16.21041
356.83        16.12662
357.28        16.10322
357.73        16.12177
358.18         16.1555
358.63        16.15953
359.08        16.11988
359.53        16.05171
359.98        15.96009
360.43        15.85452
360.88        15.74043
361.33        15.61003
361.78        15.48182
362.23        15.38464
362.68        15.32234
363.13        15.29306
363.58        15.25784
364.03        15.15363
364.48        14.97173
364.93        14.73065
365.38        14.49472
365.83        14.36236
366.28        14.35116
366.73        14.43246
367.18        14.52816
367.63        14.51048
368.08         14.3522
368.53        14.09599
368.98        13.82582
369.43        13.66978
369.88         13.6554
370.33        13.73884
370.78        13.85096
371.23        13.87651
371.68        13.78014
372.13        13.60036
372.58         13.3849
373.03        13.20355
373.48        13.07778
373.93         12.9857
374.38        12.90923
374.83        12.82272
375.28        12.72005
375.72        12.61014
376.17        12.51696
376.62        12.44752
377.07        12.40015
377.52        12.36363
377.97        12.32796
378.42        12.28044
378.87        12.21937
379.32        12.15458
379.77        12.08522
380.22        12.00762
380.67        11.92324
381.11        11.83291
381.56        11.75449
382.01        11.72789
382.46        11.75807
382.91        11.83063
383.36        11.90187
383.81        11.90774
384.26        11.83435
384.71        11.69675
385.15        11.53192
385.60        11.41749
386.05        11.36638
386.50        11.35882
386.95        11.35679
387.40        11.30013
387.85        11.18511
388.29        11.04025
388.74        10.91431
389.19        10.84724
389.64        10.84713
390.09         10.8892
390.54        10.96797
390.98        11.06543
391.43        11.16682
391.88        11.28988
392.33        11.39203
392.78        11.35681
393.23        11.21447
393.67        11.10001
394.12        11.04193
394.57        10.96671
395.02        10.88227
395.47         10.8351
395.91        10.82523
396.36        10.81392
396.81         10.8013
397.26        10.80277
397.71        10.79368
398.15        10.74886
398.60        10.68455
399.05        10.54713
399.50        10.39347
399.95        10.42379
400.39        10.59596
400.84        10.59545
401.29        10.43186
401.74        10.37377
402.18        10.42914
402.63         10.4473
403.08        10.43198
403.53        10.37751
403.97        10.43254
404.42        10.45254
404.87        10.46823
405.32        10.45604
405.76        10.41151
406.21        10.34658
406.66        10.27364
407.11         10.2144
407.55        10.17773
408.00        10.15645
408.45        10.14401
408.90        10.12592
409.34        10.09793
409.79         10.0637
410.24        10.03477
410.68        10.02518
411.13        10.03768
411.58        10.06775
412.03        10.09596
412.47         10.0912
412.92         10.0447
413.37         9.96885
413.81        9.892183
414.26        9.864833
414.71        9.889613
415.15        9.956214
415.60        10.02578
416.05        10.03859
416.49        9.978454
416.94        9.866823
417.39        9.742256
417.83        9.659442
418.28         9.62993
418.73        9.634062
419.17        9.649952
419.62        9.637222
420.07        9.587728
420.51        9.519442
420.96        9.447292
421.41        9.384215
421.85         9.33158
422.30        9.287462
422.74        9.256258
423.19        9.275784
423.64        9.337647
424.08        9.422139
424.53        9.490935
424.98        9.520435
425.42        9.503439
425.87        9.415775
426.31        9.300521
426.76        9.285757
427.21        9.359013
427.65        9.377458
428.10        9.336899
428.54        9.326138
428.99        9.346344
429.44        9.393264
429.88        9.430597
430.33        9.347649
430.77        9.190676
431.22        9.156535
431.66        9.242969
432.11        9.327016
432.56        9.360631
433.00        9.351701
433.45        9.242352
433.89        9.067106
434.34        8.609447
434.78        8.636175
435.23        9.032924
435.67        9.173569
436.12        9.036932
436.57        8.964931
437.01        8.989954
437.46         8.99114
437.90        8.974415
438.35        8.971373
438.79        8.969962
439.24        8.945821
439.68        8.902939
440.13        8.873073
440.57        8.855246
441.02        8.837325
441.46        8.817787
441.91        8.793496
442.35         8.76735
442.80        8.808312
443.24        8.886784
443.69         8.90079
444.13        8.847242
444.58        8.814713
445.02        8.806217
445.47        8.767748
445.91        8.714016
446.36        8.699214
446.80        8.725133
447.24        8.777704
447.69        8.835494
448.13        8.862499
448.58        8.851183
449.02        8.812313
449.47        8.764085
449.91        8.730793
450.36        8.720346
450.80        8.720878
451.25        8.725847
451.69        8.722436
452.13        8.707046
452.58        8.687387
453.02        8.659549
453.47        8.620641
453.91        8.572877
454.36        8.516722
454.80        8.465491
455.24        8.451176
455.69        8.481494
456.13        8.517053
456.58        8.539089
457.02        8.619234
457.46        8.611964
457.91        8.554972
458.35        8.441872
458.79        8.412434
459.24        8.463806
459.68        8.480735
460.13        8.463109
460.57        8.452295
461.01        8.452458
461.46        8.435794
461.90        8.403315
462.34        8.363441
462.79        8.318157
463.23        8.263148
463.68        8.222772
464.12        8.227955
464.56        8.278989
465.01        8.385101
465.45          8.4922
465.89        8.495806
466.34        8.412481
466.78        8.345194
467.22        8.318676
467.67        8.302426
468.11        8.300972
468.55        8.308532
468.99        8.321783
469.44        8.346178
469.88        8.377443
470.32        8.401688
470.77        8.412769
471.21        8.412265
471.65        8.399942
472.10        8.375742
472.54        8.348643
472.98        8.339807
473.42        8.352894
473.87        8.383615
474.31        8.418323
474.75        8.443676
475.20        8.458747
475.64        8.463712
476.08        8.459741
476.52        8.460054
476.97        8.469848
477.41        8.463443
477.85        8.438606
478.29        8.553693
478.74        8.524907
479.18        8.637645
479.62        8.780323
480.06        8.867746
480.50        8.884433
480.95        8.876609
481.39        8.861971
481.83        8.858349
482.27        8.882824
482.72        8.944315
483.16        9.021257
483.60        9.088994
484.04        9.138419
484.48        9.131116
484.93         9.16822
485.37        9.376822
485.81        9.649224
486.25         10.0096
486.69        9.848185
487.14        9.499355
487.58        10.04244
488.02        9.931044
488.46        10.00063
488.90        9.955537
489.34         9.89426
489.79        9.994764
490.23        10.18529
490.67        10.45507
491.11        10.70237
491.55        10.67448
491.99        10.44617
492.43        10.41623
492.88        10.61707
493.32        10.81561
493.76        10.96116
494.20        11.09161
494.64        11.19561
495.08        11.26483
495.52        11.32122
495.96        11.40847
496.41        11.53447
496.85        11.66601
497.29        11.79884
497.73        11.96558
498.17        12.14121
498.61        12.25317
499.05        12.29719
499.49        12.30572
499.93        12.31188
500.37        12.38034
500.82        12.50593
501.26        12.60327
501.70        12.66563
502.14        12.75513
502.58         12.8636
503.02        12.94223
503.46        12.98677
503.90        13.01279
504.34        13.03163
504.78         13.0617
505.22        13.11044
505.66        13.16966
506.10        13.22876
506.54        13.30158
506.98        13.39149
507.42        13.44275
507.86        13.44246
508.30        13.66265
508.74        13.62571
509.18        13.71402
509.62         13.7847
510.06        13.85304
510.50        13.91503
510.94        13.97254
511.38        14.02623
511.82         14.0625
512.26        14.08166
512.70        14.09084
513.14        14.09082
513.58        14.08373
514.02        14.07169
514.46        14.05077
514.90        14.03751
515.34        14.05758
515.78        14.11332
516.22        14.20063
516.66        14.27961
517.10        14.28641
517.54        14.21277
517.98        14.07879
518.42        13.94541
518.86        13.91011
519.30        13.99181
519.74         14.1582
520.18        14.34345
520.62        14.43958
521.06        14.41711
521.50        14.30911
521.93        14.16516
522.37        14.06522
522.81        14.03191
523.25        14.03946
523.69        14.06101
524.13        14.05532
524.57        14.01157
525.01         13.9488
525.45        13.88181
525.89        13.83051
526.32         13.8002
526.76        13.78198
527.20        13.77091
527.64         13.7624
528.08        13.75274
528.52        13.74411
528.96        13.72857
529.40        13.69376
529.83        13.63615
530.27        13.56036
530.71        13.48064
531.15        13.42089
531.59        13.38628
532.03        13.37383
532.46        13.36323
532.90        13.32172
533.34        13.24698
533.78        13.15329
534.22        13.07047
534.66        13.04154
535.09        13.06973
535.53        13.13872
535.97        13.21883
536.41        13.25251
536.85         13.2244
537.28         13.1874
537.72        13.15219
538.16        13.05345
538.60        12.94345
539.04        12.99346
539.47        13.16834
539.91        13.26191
540.35        13.25785
540.79        13.27473
541.22        13.31908
541.66        13.35897
542.10        13.39981
542.54        13.43064
542.97        13.46536
543.41        13.58129
543.85        13.75672
544.29           13.88
544.72        13.94689
545.16        14.05109
545.60        14.18976
546.04        14.30971
546.47        14.40521
546.91        14.49323
547.35        14.57539
547.79        14.65527
548.22        14.74329
548.66        14.85426
549.10        14.99608
549.53        15.19899
549.97        15.43692
550.41        15.62978
550.84        15.75872
551.28        15.85987
551.72        15.94166
552.15        16.00723
552.59        16.07374
553.03        16.13435
553.46        16.19726
553.90        16.29791
554.34        16.43118
554.77        16.57267
555.21        16.71473
555.65        16.85639
556.08        16.98821
556.52        17.10694
556.96        17.20571
557.39        17.29179
557.83        17.37261
558.27        17.42092
558.70         17.4555
559.14        17.54804
559.57        17.68394
560.01        17.78658
560.45        17.84328
560.88        17.89831
561.32        17.96074
561.75         17.9883
562.19         18.0167
562.63        18.08053
563.06        18.17972
563.50        18.36547
563.93        18.57847
564.37        18.59057
564.80        18.44853
565.24        18.48879
565.68        18.69206
566.11        18.79157
566.55        18.79052
566.98         18.8316
567.42        18.92974
567.85        19.09312
568.29        19.19058
568.72        19.33872
569.16        19.50628
569.60        19.67323
570.03        19.83296
570.47        20.06841
570.90        20.12247
571.34        20.36685
571.77        20.57116
572.21        20.43675
572.64        20.52928
573.08         20.5447
573.51        21.11561
573.95        21.20517
574.38        20.98012
574.82        21.06977
575.25        21.21892
575.69        21.32327
576.12        21.32273
576.56        21.35739
576.99        21.66985
577.42        21.70605
577.86         21.4536
578.29        21.69267
578.73        21.42226
579.16        21.46116
579.60        21.46941
580.03        21.45133
580.47        21.37996
580.90         21.2749
581.33        21.13954
581.77        21.10174
582.20        21.23039
582.64        20.77277
583.07        20.95292
583.51        20.75106
583.94        20.59266
584.37        20.38739
584.81        20.20593
585.24        20.08189
585.68        20.38454
586.11        19.92325
586.54        20.03564
586.98        19.90454
587.41        19.91269
587.85        19.85525
588.28        19.73883
588.71        19.79916
589.15        19.60687
589.58        19.65082
590.01        19.58799
590.45         19.5448
590.88        19.47761
591.31        19.54779
591.75        19.72571
592.18        19.70892
592.61        19.51728
593.05         19.6455
593.48        19.99095
593.91        19.84812
594.35        19.83921
594.78        19.83839
595.21        20.03496
595.65        20.06466
596.08        19.92518
596.51        20.31539
596.94        20.39741
597.38        20.63971
597.81        20.77414
598.24        20.94399
598.68        21.18207
599.11        21.25429
599.54        21.88573
599.97        21.76492
600.41         22.4122
600.84        22.66698
601.27        22.92607
601.70        23.12108
602.14          23.311
602.57        23.76109
603.00        24.38302
603.43        24.74855
603.87        24.88074
604.30        25.14911
604.73        25.56815
605.16        26.01721
605.60        26.08524
606.03        26.40707
606.46        26.97103
606.89        27.18057
607.32        27.78613
607.76        28.12267
608.19        28.44831
608.62        28.79221
609.05        29.16693
609.48        29.39871
609.92        29.58842
610.35        29.78259
610.78        30.72468
611.21         31.0817
611.64        31.38044
612.07        31.60302
612.50        31.88171
612.94        32.11618
613.37        32.33173
613.80        32.56194
614.23        32.80122
614.66        33.03533
615.09        33.29649
615.52        33.58181
615.96          33.848
616.39        34.26612
616.82        34.58218
617.25        34.49209
617.68        35.05632
618.11        35.05418
618.54        34.93396
618.97        35.11398
619.40        35.59431
619.84         35.9525
620.27        36.12085
620.70        36.31472
621.13        36.53279
621.56        36.50821
621.99        36.31746
622.42        36.49065
622.85        36.98368
623.28        36.80587
623.71        36.87455
624.14        36.77534
624.57        36.53655
625.00         36.7437
625.43        36.88522
625.86        37.01195
626.29        36.94074
626.72        36.94219
627.15        36.84112
627.58        36.62312
628.01        36.26744
628.44        36.07555
628.87        35.73404
629.30        35.56735
629.73        35.43517
630.16         35.2207
630.59        34.90195
631.02        34.55362
631.45        34.22317
631.88        33.91687
632.31        33.63485
632.74        33.50925
633.17        33.22221
633.60         32.9081
634.03        32.47149
634.46        31.95278
634.89        31.39403
635.32        30.86516
635.75        30.39366
636.18        29.96018
636.61        29.56278
637.04        29.19137
637.47        28.83073
637.89        28.50911
638.32        28.20829
638.75        27.84455
639.18        27.40134
639.61        27.17117
640.04        26.69659
640.47        26.39894
640.90        26.14559
641.33        25.94021
641.76        25.77426
642.18        25.64666
642.61        25.54892
643.04        25.47951
643.47        25.43364
643.90        25.40151
644.33        25.37919
644.76        25.37126
645.18        25.38437
645.61        25.39915
646.04        25.41557
646.47        25.49541
646.90        25.66928
647.33        25.67945
647.75        26.01642
648.18         26.2722
648.61        26.57364
649.04        26.90609
649.47        27.25415
649.89        27.56146
650.32        27.83822
650.75        28.20108
651.18        28.65355
651.61        29.10046
652.03        29.52487
652.46        30.04198
652.89        30.62947
653.32        30.98388
653.74        31.18505
654.17        31.83022
654.60        31.99131
655.03        32.78791
655.46        32.98034
655.88        33.56945
656.31        35.36603
656.74        38.90061
657.16         37.0156
657.59         35.1509
658.02        35.72308
658.45          36.951
658.87        37.17358
659.30        36.94063
659.73        37.16541
660.15        37.67319
660.58        37.73848
661.01        38.04998
661.44        38.28386
661.86        38.61887
662.29         39.0086
662.72        39.30824
663.14        39.54522
663.57        39.76445
664.00        39.99893
664.42        40.31765
664.85        40.70348
665.27        40.95929
665.70        41.09137
666.13        41.30681
666.55        41.61626
666.98        41.88604
667.41        42.11028
667.83        42.33236
668.26        42.54449
668.69        42.74775
669.11        42.92495
669.54         43.0275
669.96        43.05318
670.39        43.07978
670.82         43.1773
671.24        43.27765
671.67        43.46069
672.09         44.0825
672.52        44.97692
672.94        45.25936
673.37        45.39069
673.80        45.17675
674.22        44.95676
674.65        44.98764
675.07        45.31628
675.50        45.71165
675.92         46.0743
676.35        46.35878
676.77        46.52614
677.20        46.55371
677.62        46.51135
678.05        46.55357
678.47        46.71123
678.90        46.92632
679.32        47.16769
679.75        47.43254
680.17        47.70667
680.60        47.93701
681.02        48.07976
681.45        48.36058
681.87        48.27245
682.30        48.23875
682.72        48.17104
683.15        48.16813
683.57        48.26618
684.00        48.46607
684.42        48.71896
684.85         48.9229
685.27        49.04886
685.70        49.08018
686.12        49.05613
686.54        49.20736
686.97        49.47676
687.39        49.54543
687.82        49.41463
688.24         49.3896
688.66        49.49132
689.09        49.53856
689.51        49.54788
689.94        49.70102
690.36        50.02688
690.78        50.29115
691.21          50.402
691.63        51.10229
692.06        51.00032
692.48        51.11378
692.90        51.08377
693.33        51.10242
693.75        51.20079
694.17          51.228
694.60            51.2
695.02        51.57566
695.44        51.62093
695.87        51.95451
696.29        52.28474
696.71        52.35844
697.14        52.20436
697.56        52.10346
697.98        52.12475
698.41        52.20721
698.83        52.26264
699.25        52.48106
699.68        52.75397
700.10         52.9401
700.52        52.98587
700.94        52.94182
701.37        52.85488
701.79        52.81926
702.21        52.85271
702.64        52.93014
703.06        53.02432
703.48        53.09683
703.90        53.14291
704.33        53.18452
704.75        53.24069
705.17        53.32587
705.59        53.44226
706.01        53.57108
706.44        53.71872
706.86        53.90149
707.28        54.09244
707.70        54.34313
708.12        54.59598
708.55        54.61329
708.97        54.44794
709.39        54.46448
709.81        54.66125
710.23        54.73852
710.66        54.69014
711.08         54.7149
711.50        54.82294
711.92        54.95418
712.34         55.1064
712.76        55.29159
713.19        55.46199
713.61        55.58528
714.03        55.62521
714.45        55.58939
714.87        55.51515
715.29        55.46453
715.71        55.45266
716.13        55.46633
716.56        55.46722
716.98        55.44477
717.40        55.37958
717.82        55.29682
718.24         55.2354
718.66        55.22623
719.08        55.35294
719.50        55.45319
719.92        55.55378
720.34        55.70991
720.76        55.91534
721.19        56.12728
721.61         56.2954
722.03        56.35478
722.45         56.3216
722.87        56.08868
723.29        55.75894
723.71        55.87777
724.13         56.4888
724.55        56.21385
724.97        56.73849
725.39        56.82855
725.81        56.97976
726.23        57.00938
726.65        56.97546
727.07        57.01988
727.49        57.15114
727.91        57.34053
728.33        57.55486
728.75        57.73889
729.17        57.87043
729.59        57.97845
730.01        58.07542
730.43        58.14861
730.85        58.21532
731.27        58.32721
731.69        58.45553
732.10        58.50863
732.52        58.47428
732.94        58.40287
733.36        58.31878
733.78        58.23274
734.20        58.16814
734.62        58.16518
735.04        58.20611
735.46        58.21389
735.88        58.19523
736.30        58.23536
736.72        58.37069
737.13         58.5414
737.55        58.65717
737.97        58.92118
738.39        59.22405
738.81        58.83623
739.23        58.05559
739.65        58.32469
740.06        59.38221
740.48        59.75165
740.90        59.37484
741.32        58.49649
741.74        58.47004
742.16        58.28224
742.57         58.3517
742.99        58.69218
743.41         59.1823
743.83        59.48115
744.25        59.55698
744.67         59.7038
745.08        59.93808
745.50        60.04008
745.92        60.02595
746.34          60.009
746.75        60.00243
747.17        59.98038
747.59        59.94411
748.01        59.92652
748.42        59.92915
748.84        59.88082
749.26        59.78394
749.68        59.80926
750.09        59.93832
750.51        59.83778
750.93        59.63756
751.35        59.99252
751.76        60.76655
752.18        61.07094
752.60        60.82421
753.01        60.50321
753.43        60.26401
753.85         60.1124
754.27        60.08083
754.68        60.45567
755.10        60.60845
755.52        60.77103
755.93        60.79244
756.35         60.8782
756.77        60.96369
757.18        61.02063
757.60        61.11921
758.02        60.81457
758.43         60.2673
758.85        61.25044
759.26         62.5248
759.68        62.48531
760.10        61.80263
760.51        61.52596
760.93        61.46039
761.34        61.43291
761.76        61.52132
762.18         61.1294
762.59        60.55433
763.01        60.77064
763.42        61.69536
763.84        62.11344
764.26        61.90098
764.67        61.39764
765.09        60.91914
765.50        61.03329
765.92        61.62614
766.33        61.76338
766.75        61.37374
767.16        61.18879
767.58        61.30633
768.00         61.5913
768.41        62.01535
768.83        62.54341
769.24        62.95179
769.66        62.78798
770.07        62.17208
770.49        61.67128
770.90        61.44685
771.32        61.61086
771.73        62.05311
772.15         62.3188
772.56        62.37856
772.97        62.41289
773.39        62.44366
773.80        62.67344
774.22        62.96255
774.63        62.79803
775.05         62.2539
775.46        62.01664
775.88        62.13116
776.29        62.25251
776.70        62.33059
777.12        62.45114
777.53        62.60407
777.95        62.74049
778.36        62.84626
778.77          62.868
779.19        62.81548
779.60        62.72596
780.02        62.62725
780.43        62.61804
780.84        62.73591
781.26        62.77686
781.67        62.82313
782.09        63.32352
782.50        64.07845
782.91        64.22205
783.33        63.78433
783.74        63.61753
784.15        63.73852
784.57        63.70231
784.98        63.52126
785.39        63.33202
785.81        63.21082
786.22        63.36097
786.63        63.67964
787.04         63.7671
787.46         63.6059
787.87        63.37055
788.28        63.20364
788.70        63.23521
789.11        63.48159
789.52        63.90777
789.93         64.3734
790.35        64.65066
790.76        64.69979
791.17        64.53585
791.58        64.28116
792.00        64.21174
792.41        64.34795
792.82        64.42325
793.23        64.42705
793.65        64.44088
794.06        64.52577
794.47         64.8141
794.88        65.16222
795.29        65.20542
795.71        64.88033
796.12         64.4896
796.53        64.15992
796.94        63.82438
797.35        63.65877
797.76        64.18382
798.18        65.14194
798.59         65.6157
799.00        65.44353
799.41        65.06181
799.82        64.68651
800.23        64.50714
800.64          64.608
801.06        64.89178
801.47        65.26855
801.88        65.47829
802.29        65.43269
802.70        65.19603
803.11        64.88796
803.52        64.67816
803.93        64.63011
804.34        64.74136
804.75        64.91066
805.17        64.84637
805.58        64.83978
805.99        64.50129
806.40        64.11371
806.81        64.43468
807.22        65.28036
807.63        65.55265
808.04        65.22594
808.45        65.14945
808.86        65.34663
809.27        65.27195
809.68        64.96745
810.09        64.80162
810.50        64.82069
810.91        64.92025
811.32        65.07736
811.73        65.23428
812.14         65.3565
812.55        65.52575
812.96        65.70582
813.37         65.6683
813.78        65.47411
814.19        65.48727
814.60        65.66435
815.01        65.65385
815.42        65.44707
815.83        65.24026
816.24        65.11675
816.65        65.12678
817.05        65.30144
817.46        65.59167
817.87        65.90665
818.28        66.06236
818.69         66.0218
819.10        65.82536
819.51        65.57293
819.92        65.47605
820.33        65.59016
820.74        65.77935
821.14        65.95431
821.55        66.13226
821.96        66.20937
822.37        65.94967
822.78        65.43015
823.19        65.07186
823.60        64.96072
824.00        64.89658
824.41        64.87883
824.82        65.06942
825.23        65.45899
825.64        66.00006
826.04        66.58805
826.45        66.94812
826.86        67.03517
827.27        66.90728
827.68         66.6563
828.08         66.4715
828.49        66.37949
828.90        66.35168
829.31        66.39544
829.72        66.51711
830.12        66.73145
830.53        66.99843
830.94        67.25452
831.35        67.33414
831.75        67.21227
832.16        66.87539
832.57          66.476
832.97        66.23717
833.38        66.21761
833.79        66.36585
834.20        66.55158
834.60        66.55623
835.01        66.35786
835.42        66.03844
835.82        65.75232
836.23        65.70246
836.64        65.95358
837.04        66.44193
837.45        67.00339
837.86        67.47222
838.26        67.77052
838.67          67.896
839.08         67.8492
839.48        67.61786
839.89         67.2313
840.29        66.68685
840.70        66.11716
841.11        65.66468
841.51        65.39365
841.92        65.29845
842.33        65.30942
842.73        65.29606
843.14        65.18462
843.54        65.01968
843.95        64.94304
844.35        65.22024
844.76        65.83778
845.17        66.70983
845.57        67.57436
845.98        67.85225
846.38        67.46751
846.79        66.62048
847.19        65.62402
847.60        64.98493
848.00        64.83675
848.41        65.00169
848.81        65.45245
849.22        66.03697
849.62        66.70164
850.03        67.42654
850.43         68.0332
850.84        68.10419
851.24         67.6056
851.65        66.61171
852.05        65.45428
852.46        64.70502
852.86        64.50159
853.27        64.72109
853.67        65.10109
854.07        65.43386
854.48        65.59859
854.88           65.74
855.29        65.74983
855.69        65.64409
856.10          65.357
856.50        64.93678
856.90        64.52872
857.31        64.39601
857.71        64.62005
858.12        65.10459
858.52        65.73573
858.92        66.10942
859.33        66.08648
859.73         65.7952
860.13         65.4044
860.54        65.21882
860.94        65.34934
861.34        65.68652
861.75         66.0301
862.15        66.14262
862.55        65.91743
862.96        65.45986
863.36        64.94032
863.76         64.6385
864.17        64.62209
864.57        64.83427
864.97         65.1032
865.38        65.14283
865.78        64.92295
866.18        64.49911
866.58        64.06583
866.99        63.95542
867.39        64.25525
867.79        64.82024
868.19        65.39806
868.60        65.58485
869.00        65.30608
869.40        64.71566
869.80        64.01082
870.21        63.54193
870.61        63.46095
871.01        63.61918
871.41        63.95955
871.81        64.40266
872.22        64.87923
872.62        65.47806
873.02        66.07123
873.42        66.39414
873.82        66.38398
874.22        66.09644
874.63        65.78841
875.03        65.84077
875.43        66.32559
875.83        67.09413
876.23        67.91583
876.63        68.38301
877.03        68.38435
877.44        68.10608
877.84        67.60503
878.24        67.00306
878.64        66.38947
879.04        65.69481
879.44         65.1676
879.84        65.17242
880.24        65.71631
880.64        66.73205
881.04        67.69866
881.44        67.67555
881.84        66.50354
882.24         64.5532
882.65         62.6082
883.05        61.69194
883.45        62.05395
883.85        63.39326
884.25        65.19424
884.65        66.49541
885.05        66.92879
885.45        66.73872
885.85         66.2735
886.25        66.07947
886.65        66.29545
887.05        66.70766
887.45          67.063
887.85        66.98944
888.25        66.41167
888.65        65.52501
889.04        64.58544
889.44        63.97347
889.84        63.78688
890.24        63.94358
890.64         64.2962
891.04        64.60159
891.44        64.77557
891.84        64.86588
892.24         65.0025
892.64        65.38577
893.04        66.04611
893.44        66.91184
893.83        67.76242
894.23        68.16245
894.63        68.03738
895.03        67.46712
895.43        66.80141
895.83        66.59412
896.23        66.96126
896.63        67.76656
897.02        68.56177
897.42        68.61485
897.82        67.80731
898.22        66.40026
898.62        64.97615
899.01        64.34016
899.41        64.66625
899.81        65.74683
900.21        67.04622
900.61        67.55807
901.00        67.00014
901.40        65.77145
901.80        64.54833
902.20        64.26102
902.59        65.10899
902.99        66.77995
903.39        68.74689
903.79        69.88357
904.18        69.77689
904.58        68.82199
904.98        67.61916
905.38        66.99362
905.77        67.11526
906.17        67.72266
906.57        68.50145
906.96        68.98327
907.36          68.964
907.76        68.63564
908.15        68.17091
908.55        67.75992
908.95        67.51916
909.34        67.35551
909.74        67.23473
910.14        67.07849
910.53        66.87032
910.93        66.68974
911.33        66.56681
911.72        66.54743
912.12        66.63333
912.52        66.77568
912.91        66.98878
913.31        67.27434
913.70         67.6348
914.10        68.02098
914.49        68.33035
914.89        68.31957
915.29        67.97809
915.68         67.3854
916.08         66.7678
916.47        66.43001
916.87        66.47196
917.26        66.75185
917.66        67.15336
918.05        67.48585
918.45        67.65241
918.84        67.76275
919.24        67.70146
919.64        67.40182
920.03        66.89044
920.42        66.17749
920.82        65.53431
921.21        65.22511
921.61        65.29891
922.00        65.74364
922.40        66.28602
922.79        66.53291
923.19        66.34113
923.58        65.83936
923.98        65.36894
924.37        65.41026
924.77        66.05468
925.16        67.16975
925.55        68.37978
925.95        68.99372
926.34        68.83874
926.74        68.09787
927.13        67.14534
927.52        66.54588
927.92         66.4521
928.31        66.69519
928.70        67.06346
929.10         67.1891
929.49        66.99329
929.89        66.62556
930.28        66.26953
930.67        66.16156
931.07        66.35088
931.46         66.7355
931.85        67.23873
932.24        67.77521
932.64        68.25816
933.03        68.77898
933.42        69.17859
933.82        69.22665
934.21         68.9321
934.60        68.34149
934.99        67.75738
935.39        67.62245
935.78        68.00645
936.17        68.76196
936.56         69.5873
936.96        69.96608
937.35        69.79335
937.74        69.22064
938.13        68.39506
938.53        67.55181
938.92        66.80804
939.31        66.17741
939.70        65.78748
940.09        65.84018
940.49        66.28855
940.88        67.05842
941.27        68.00546
941.66        68.86128
942.05        69.45499
942.44         69.8438
942.84        69.74685
943.23        68.74384
943.62        66.96248
944.01        64.71481
944.40        62.72619
944.79        61.89621
945.18        62.33427
945.57        63.81889
945.97        65.78455
946.36        67.30874
946.75        67.83147
947.14        67.58992
947.53        66.96559
947.92        66.62815
948.31        66.76985
948.70        67.10568
949.09        67.48208
949.48        67.68568
949.87        67.63415
950.26        67.49389
950.65        67.20932
951.04         66.6428
951.43         65.8446
951.82        64.87112
952.21        64.03856
952.60        63.83154
952.99        64.31027
953.38        65.31882
953.77        66.46401
954.16        67.05647
954.55         66.8855
954.94        66.13619
955.33         65.1226
955.72        64.37908
956.11        64.09047
956.50        64.12016
956.89        64.32872
957.28        64.48312
957.66        64.51654
958.05        64.51444
958.44        64.57208
958.83        64.80817
959.22        65.23475
959.61        65.76189
960.00        66.27646
960.39        66.60468
960.78         66.6889
961.16        66.59352
961.55        66.36698
961.94        66.07611
962.33        65.77101
962.72        65.42887
963.11        65.17178
963.49        65.21604
963.88        65.54454
964.27        66.13403
964.66        66.74747
965.04        66.99406
965.43         66.7366
965.82         66.1257
966.21        65.44335
966.60        65.16373
966.98        65.43321
967.37        66.08582
967.76        66.90488
968.15        67.52308
968.53         67.8109
968.92        67.78672
969.31        67.58715
969.69        67.43356
970.08        67.35533
970.47        67.31496
970.86        67.12991
971.24        66.50742
971.63        65.44801
972.02        64.16412
972.40        63.05759
972.79        62.74759
973.17        63.45179
973.56        64.85119
973.95         66.6991
974.33        68.66605
974.72        70.49706
975.11        72.26452
975.49        73.74969
975.88        74.37696
976.26        74.02326
976.65        72.79485
977.04        71.06924
977.42         69.3517
977.81        67.86742
978.19        66.51373
978.58        65.47854
978.96        64.82448
979.35        64.55592
979.74        64.63078
980.12         64.8694
980.51        64.81754
980.89        64.44695
981.28        63.87772
981.66        63.27354
982.05        62.88196
982.43        62.82912
982.82        62.95951
983.20        63.45295
983.59        64.61823
983.97        66.50806
984.35        69.03869
984.74        71.36961
985.12        72.23682
985.51        71.16186
985.89        68.67642
986.28        65.84025
986.66        63.83479
987.04        63.03807
987.43        63.02641
987.81        63.63106
988.20         64.3574
988.58        65.03526
988.96        65.89439
989.35        66.55213
989.73        66.51327
990.12        65.70318
990.50        64.13625
990.88        62.66444
991.27        62.60787
991.65        64.23447
992.03        67.42992
992.42        70.83324
992.80        71.88142
993.18        69.63846
993.56        65.24163
993.95        60.97062
994.33        59.18372
994.71        60.35043
995.10        63.73274
995.48        68.24703
995.86        70.91257
996.24        70.43909
996.63        67.89043
997.01        64.67875
997.39        62.65721
997.77        62.32301
998.15        63.03473
998.54        64.52865
998.92        66.40054
999.30        68.34692
999.68        70.58063
1000.06        72.63107
1000.45        73.52514
1000.83        73.19414
1001.21        71.74809
1001.59        69.93699
1001.97        68.87478
1002.35        68.80885
1002.73        69.51337
1003.12        70.60377
1003.50        71.45384
1003.88        71.75566
1004.26        71.73071
1004.64        71.60876
1005.02        71.75594
1005.40        72.21752
1005.78        72.71331
1006.16        73.05827
1006.54         73.0009
1006.92        72.42938
1007.30        71.48853
1007.69        70.03101
1008.07        68.00078
1008.45        65.70229
1008.83        63.43113
1009.21        61.75217
1009.59        61.16238
1009.97        61.64784
1010.35        63.19213
1010.73         65.3102
1011.11        66.73227
1011.49        66.85185
1011.86        65.77004
1012.24        64.60332
1012.62        65.14233
1013.00        67.93394
1013.38        72.82322
1013.76        78.41298
1014.14        80.78136
1014.52        78.70702
1014.90        74.29364
1015.28        70.06014
1015.66         68.1785
1016.04        68.80041
1016.41        71.50641
1016.79        75.66886
1017.17        80.15771
1017.55        83.68698
1017.93        86.30595
1018.31        87.02662
1018.69        84.69252
1019.06        79.88481
1019.44        74.23093
1019.82        69.17638
1020.20        65.64851
1020.58        63.39937
1020.95         62.0947
1021.33        61.62313
1021.71        61.95732
1022.09        62.97319
1022.46         64.3224
1022.84        66.10931
1023.22        68.47131
1023.60        71.60754
1023.97        76.06529
1024.35        80.25157
1024.73        79.96894
