SpectraSmart Spectrum 2.9.0.0
--------- Device Information -----------
Spectrum Name :  反射率_0
Saving Time :  2024/05/03 20:53:11
Spectro-Module Model Name : SE2030-DUVN
Spectro-Module Serial Number : OS361AC55029948
Wavelength Start : 200
Wavelength End : 1025
Wavelength Unit : Wavelength(nm)
Spectrum Unit : Reflectance(%)
-----------Spectrum Setting ------------
Integration Time : 20ms
Average : 10
Boxcar : 0
Background removal :  enabled
linearity correction :  enabled
SC :  disabled
Intensity correction :  disabled
DWT denoise :  enabled
savitzky-golay :  disabled
FFT :  disabled
Running average :  disabled
Kalman :  disabled
High pass :  disabled
---------------BEGIN--------------------
Wavelength(nm)             Reflectance(%)
200.29               0
200.75        109.8893
201.21        205.3369
201.67       -5917.303
202.13       -181.6103
202.58       -86.50532
203.04       -48.73391
203.50       -29.54584
203.96       -24.31662
204.42       -33.59055
204.88       -88.55994
205.34        1983.683
205.80        192.5755
206.26        181.8771
206.72         27537.2
207.18       -43.37327
207.64       -10.90519
208.10       -14.18807
208.55       -55.06863
209.01       -508.1528
209.47       -751.6597
209.93       -90.90871
210.39       -23.56623
210.85       -6.287926
211.31       -3.623571
211.77       -9.387734
212.23       -28.01573
212.69       -81.67715
213.14       -136.1329
213.60       -84.09959
214.06       -38.78561
214.52       -19.20916
214.98       -13.56091
215.44       -16.65555
215.90       -41.79037
216.36         304.033
216.81        44.22122
217.27        13.09265
217.73       -35.87789
218.19       -261.5057
218.65       -5079.964
219.11       -161.2997
219.57        69.99559
220.02        125.7904
220.48        255.9136
220.94       -199.7708
221.40       -19.45498
221.86        8.805717
222.32        13.68055
222.77        8.367964
223.23       -5.489597
223.69        -28.5767
224.15       -43.81958
224.61        -35.8708
225.06       -18.53718
225.52       -4.247602
225.98        3.589164
226.44        7.009875
226.90        8.251882
227.36        8.472915
227.81         9.58247
228.27        11.95858
228.73        14.33774
229.19        15.28387
229.65        13.92721
230.10        11.11326
230.56        7.985725
231.02        5.909152
231.48        6.323914
231.93        8.891277
232.39        12.64961
232.85         16.4638
233.31        18.69125
233.77        19.04424
234.22        18.12779
234.68        16.59682
235.14        15.52431
235.60        15.33506
236.05        15.68555
236.51         16.5722
236.97        17.95081
237.43        19.47375
237.88        21.23395
238.34        22.76365
238.80        23.29522
239.26        22.58457
239.71        22.76475
240.17        18.90071
240.63        14.61752
241.08        9.934719
241.54        6.660309
242.00        5.646073
242.46        5.901572
242.91        6.943214
243.37        9.742394
243.83        14.26418
244.28         15.0237
244.74        5.824332
245.20       -10.86619
245.66       -25.27788
246.11       -31.34485
246.57       -30.52776
247.03       -25.30278
247.48       -19.12181
247.94       -15.62179
248.40       -14.64818
248.85       -15.52772
249.31       -15.87366
249.77       -12.36038
250.22       -5.958617
250.68       0.4339341
251.14        5.092107
251.59        7.195507
252.05        7.366198
252.51        6.479923
252.96        5.035638
253.42         5.48964
253.88        9.490652
254.33        15.19128
254.79        21.75693
255.25        28.20826
255.70        33.25896
256.16        36.97627
256.62        39.34343
257.07        40.48189
257.53        41.03598
257.99        41.06295
258.44        40.62202
258.90        40.17482
259.35        39.52462
259.81        38.98716
260.27         38.3379
260.72        37.38805
261.18        36.45094
261.63          35.489
262.09        34.78208
262.55        34.38534
263.00        34.18687
263.46        34.12049
263.91        34.01405
264.37         33.8305
264.83        33.49664
265.28         33.0392
265.74        32.45672
266.19         31.5722
266.65        30.49044
267.11         29.2502
267.56        28.04358
268.02        27.19511
268.47        26.71237
268.93        26.51128
269.38        26.40325
269.84        26.06592
270.30        25.44811
270.75        24.66489
271.21         23.9179
271.66        23.41881
272.12        23.20793
272.57        23.16724
273.03         23.1743
273.48        23.07515
273.94        22.82458
274.39        22.47903
274.85        22.07335
275.31        21.58497
275.76        21.03061
276.22        20.45548
276.67        19.93216
277.13        19.63209
277.58        19.51693
278.04        19.54898
278.49        19.56196
278.95        19.34351
279.40        18.85118
279.86        18.24145
280.31        17.62271
280.77        17.20507
281.22        16.97097
281.68        16.86896
282.13        16.82777
282.59        16.79022
283.04        16.71777
283.50        16.64323
283.95        16.54239
284.41        16.38377
284.86        16.16955
285.32        15.93527
285.77        15.71806
286.22        15.62313
286.68        15.66927
287.13        15.79578
287.59        15.97821
288.04        16.15214
288.50        16.30486
288.95        16.43455
289.41        16.52302
289.86        16.50416
290.32        16.40234
290.77        16.24302
291.22        16.11108
291.68        16.12254
292.13        16.30321
292.59        16.64624
293.04        17.11165
293.50        17.63621
293.95        18.18002
294.40        18.75458
294.86        19.37486
295.31        20.07598
295.77        20.86436
296.22        21.70867
296.68         22.5632
297.13        23.34999
297.58        24.02661
298.04          24.621
298.49        25.13243
298.95        25.60177
299.40        26.04101
299.85        26.45112
300.31        26.89432
300.76        27.43716
301.21        28.09341
301.67        28.84647
302.12         29.5852
302.58        30.15026
303.03        30.49687
303.48        30.68056
303.94        30.83954
304.39        31.13235
304.84        31.60645
305.30        32.19691
305.75        32.78053
306.20        33.19609
306.66        33.41526
307.11        33.48188
307.57         33.4812
308.02        33.47343
308.47        33.50731
308.93        33.56276
309.38        33.63431
309.83        33.75475
310.29        33.91836
310.74        34.10746
311.19        34.27573
311.65        34.34083
312.10        34.27438
312.55        34.09821
313.00        33.85392
313.46        33.61292
313.91        33.38966
314.36        33.18632
314.82        32.99169
315.27        32.77422
315.72        32.53723
316.18        32.29222
316.63        32.07523
317.08        31.94279
317.53        31.89759
317.99        31.91258
318.44        31.92335
318.89        31.81123
319.35        31.55007
319.80        31.17612
320.25        30.76599
320.70        30.44658
321.16        30.24296
321.61        30.12162
322.06         30.0187
322.51        29.83144
322.97        29.53131
323.42         29.1651
323.87        28.77096
324.32        28.41137
324.78        28.10415
325.23        27.83236
325.68        27.58754
326.13        27.36349
326.59        27.14189
327.04        26.94397
327.49        26.73903
327.94         26.4829
328.39        26.16766
328.85        25.79804
329.30        25.42303
329.75        25.10345
330.20        24.86191
330.66        24.67614
331.11        24.53269
331.56        24.37201
332.01        24.17418
332.46        23.94973
332.92        23.70644
333.37        23.48922
333.82        23.29823
334.27        23.12575
334.72        22.95287
335.17           22.75
335.63        22.50867
336.08         22.2581
336.53         22.0299
336.98        21.88281
337.43        21.82647
337.88        21.83548
338.34        21.86723
338.79         21.8555
339.24        21.77699
339.69        21.65122
340.14        21.48597
340.59        21.29849
341.05        21.10089
341.50        20.88852
341.95        20.68811
342.40         20.5467
342.85        20.47207
343.30        20.45751
343.75        20.45584
344.20        20.38626
344.66        20.24102
345.11        20.04216
345.56        19.84657
346.01        19.74179
346.46        19.74364
346.91        19.81258
347.36        19.90773
347.81        19.96726
348.26        19.96887
348.72        19.93649
349.17        19.86091
349.62        19.73336
350.07        19.56469
350.52        19.35961
350.97        19.16561
351.42        19.06043
351.87        19.05464
352.32        19.12071
352.77        19.20373
353.22        19.21299
353.67        19.12421
354.13        18.97324
354.58        18.77804
355.03        18.58411
355.48        18.41497
355.93        18.26584
356.38        18.14923
356.83        18.08629
357.28        18.07458
357.73        18.09948
358.18        18.14825
358.63        18.19677
359.08        18.22829
359.53        18.24465
359.98        18.20846
360.43        18.06777
360.88        17.82129
361.33        17.48528
361.78        17.13803
362.23        16.89986
362.68        16.79704
363.13        16.80469
363.58        16.83711
364.03        16.75224
364.48        16.52345
364.93        16.19869
365.38        15.87999
365.83         15.7236
366.28        15.75952
366.73        15.93108
367.18        16.13629
367.63        16.21207
368.08         16.1128
368.53        15.88914
368.98         15.6194
369.43        15.42176
369.88        15.32928
370.33        15.30661
370.78        15.30459
371.23        15.24533
371.68        15.10711
372.13         14.9177
372.58        14.72668
373.03        14.60265
373.48        14.55829
373.93        14.57132
374.38        14.58308
374.83        14.50092
375.28        14.30876
375.72        14.03629
376.17        13.77176
376.62         13.6156
377.07        13.58466
377.52        13.64172
377.97        13.72339
378.42        13.72762
378.87        13.62943
379.32        13.46708
379.77        13.28759
380.22         13.1545
380.67        13.08301
381.11        13.05369
381.56        13.04239
382.01        13.02043
382.46        12.97918
382.91        12.93197
383.36         12.8875
383.81        12.85633
384.26        12.83759
384.71        12.81901
385.15        12.79132
385.60        12.75803
386.05        12.71239
386.50        12.66039
386.95        12.59375
387.40        12.49804
387.85        12.38095
388.29        12.24981
388.74        12.14628
389.19        12.09955
389.64        12.11244
390.09        12.16869
390.54        12.25055
390.98         12.3166
391.43        12.35551
391.88        12.39792
392.33        12.43094
392.78        12.37827
393.23        12.27499
393.67        12.24429
394.12        12.28584
394.57        12.26935
395.02        12.18969
395.47        12.11673
395.91        12.05668
396.36        11.97887
396.81        11.89605
397.26        11.82383
397.71        11.75871
398.15        11.70834
398.60        11.68943
399.05        11.62753
399.50        11.55116
399.95        11.63494
400.39        11.82265
400.84        11.77728
401.29          11.528
401.74        11.40472
402.18        11.42784
402.63        11.42183
403.08        11.39418
403.53         11.3426
403.97        11.42695
404.42        11.49126
404.87        11.55246
405.32        11.55626
405.76        11.49304
406.21        11.38305
406.66        11.26064
407.11         11.1837
407.55        11.16933
408.00        11.19909
408.45        11.24606
408.90        11.25916
409.34        11.22158
409.79        11.14711
410.24        11.06499
410.68        11.01399
411.13        11.00321
411.58        11.02207
412.03        11.03751
412.47        10.99712
412.92        10.89019
413.37         10.7402
413.81         10.5983
414.26        10.54423
414.71         10.5841
415.15        10.69994
415.60        10.82902
416.05        10.86808
416.49        10.79024
416.94        10.63336
417.39        10.46365
417.83        10.37681
418.28        10.39386
418.73        10.47959
419.17        10.59593
419.62        10.67354
420.07        10.68812
420.51        10.66084
420.96         10.6044
421.41         10.5289
421.85        10.43897
422.30        10.33707
422.74        10.23527
423.19        10.18479
423.64        10.18105
424.08        10.20266
424.53        10.21766
424.98        10.21455
425.42        10.19059
425.87        10.11993
426.31        10.03423
426.76        10.04659
427.21        10.13594
427.65        10.14818
428.10        10.09548
428.54        10.10212
428.99        10.17234
429.44        10.29192
429.88        10.39179
430.33        10.30718
430.77        10.08702
431.22        9.965336
431.66        9.974894
432.11        10.04071
432.56        10.12699
433.00         10.2276
433.45        10.24071
433.89        10.12637
434.34        9.617781
434.78        9.599762
435.23        9.971373
435.67        10.08445
436.12        9.931437
436.57        9.869721
437.01        9.926919
437.46        9.957475
437.90        9.959419
438.35        9.974326
438.79        9.978559
439.24        9.927593
439.68        9.825872
440.13        9.713657
440.57        9.612657
441.02        9.549508
441.46        9.532711
441.91        9.547368
442.35        9.572665
442.80        9.650592
443.24        9.742288
443.69        9.744541
444.13        9.670755
444.58         9.64506
445.02        9.675194
445.47        9.689939
445.91         9.68427
446.36        9.688477
446.80        9.698475
447.24        9.708945
447.69         9.71471
448.13        9.705395
448.58        9.681528
449.02          9.6476
449.47        9.611341
449.91         9.57911
450.36        9.556414
450.80        9.539947
451.25        9.533559
451.69        9.539268
452.13        9.556013
452.58        9.582569
453.02        9.608217
453.47         9.62121
453.91        9.617702
454.36        9.598571
454.80        9.569054
455.24        9.551625
455.69         9.55407
456.13        9.536594
456.58        9.495169
457.02        9.534481
457.46        9.499876
457.91        9.430199
458.35         9.30671
458.79        9.263318
459.24        9.294564
459.68        9.283065
460.13        9.242085
460.57        9.236888
461.01        9.273118
461.46        9.307874
461.90        9.331092
462.34        9.335885
462.79        9.316813
463.23        9.275363
463.68        9.229092
464.12        9.198326
464.56        9.189242
465.01        9.222097
465.45        9.267009
465.89        9.252352
466.34        9.199789
466.78        9.205981
467.22        9.273502
467.67        9.320502
468.11        9.335294
468.55        9.328113
468.99         9.30417
469.44        9.285165
469.88        9.275881
470.32        9.253831
470.77        9.233363
471.21        9.251637
471.65        9.310233
472.10        9.398054
472.54        9.483193
472.98        9.521607
473.42        9.505877
473.87        9.455197
474.31        9.394491
474.75        9.371817
475.20        9.401939
475.64        9.463194
476.08        9.535454
476.52        9.602261
476.97        9.656286
477.41        9.675312
477.85        9.656584
478.29        9.779764
478.74        9.723136
479.18        9.815805
479.62        9.930487
480.06        9.972907
480.50        9.932314
480.95        9.864749
481.39        9.810645
481.83        9.817468
482.27        9.906273
482.72        10.07859
483.16        10.27626
483.60        10.41633
484.04         10.4781
484.48        10.42727
484.93        10.39804
485.37        10.60465
485.81        10.94767
486.25        11.32626
486.69        11.18514
487.14        10.89382
487.58        11.30736
488.02        11.30618
488.46        11.47954
488.90        11.12613
489.34         11.0849
489.79        11.17085
490.23        11.53607
490.67        11.92901
491.11        12.23143
491.55        12.26021
491.99        12.08191
492.43        12.08916
492.88        12.31266
493.32        12.50521
493.76        12.62442
494.20        12.74033
494.64         12.8492
495.08        12.93158
495.52        13.01337
495.96        13.14688
496.41        13.33698
496.85        13.54227
497.29        13.74138
497.73        13.95055
498.17        14.13483
498.61        14.20747
499.05        14.18753
499.49        14.16305
499.93        14.18298
500.37        14.30279
500.82        14.50261
501.26        14.66295
501.70         14.7656
502.14        14.88842
502.58        15.02063
503.02         15.1024
503.46        15.13151
503.90        15.12833
504.34        15.11378
504.78        15.12408
505.22        15.17225
505.66        15.24346
506.10        15.32613
506.54        15.43585
506.98        15.57236
507.42        15.67016
507.86        15.69569
508.30        15.93766
508.74        15.83526
509.18        15.84378
509.62        15.82532
510.06        15.84348
510.50        15.90562
510.94        16.00298
511.38        16.11222
511.82        16.17673
512.26        16.18494
512.70        16.15633
513.14        16.11248
513.58        16.08745
514.02        16.09136
514.46        16.11027
514.90        16.14077
515.34         16.1776
515.78        16.21574
516.22        16.26041
516.66        16.29489
517.10        16.29148
517.54        16.24801
517.98        16.17104
518.42         16.0939
518.86          16.071
519.30        16.11202
519.74        16.20021
520.18        16.29454
520.62         16.3274
521.06        16.28194
521.50        16.17901
521.93        16.05544
522.37        15.97116
522.81         15.9415
523.25        15.94842
523.69        15.96661
524.13        15.95604
524.57        15.90765
525.01        15.83857
525.45        15.76735
525.89        15.72148
526.32        15.70699
526.76        15.71255
527.20         15.7277
527.64        15.73941
528.08        15.74017
528.52        15.73235
528.96        15.70997
529.40        15.66384
529.83        15.59256
530.27        15.50369
530.71        15.40674
531.15        15.31896
531.59        15.24523
532.03        15.18223
532.46        15.12755
532.90        15.07701
533.34        15.03051
533.78        14.99327
534.22        14.95965
534.66        14.91908
535.09        14.86767
535.53        14.80796
535.97        14.75407
536.41        14.71959
536.85        14.70703
537.28        14.75055
537.72        14.82277
538.16         14.7847
538.60        14.67609
539.04        14.71334
539.47        14.87636
539.91        14.96252
540.35        14.96307
540.79        14.99819
541.22        15.07149
541.66        15.14332
542.10        15.21597
542.54        15.28037
542.97        15.34528
543.41        15.48546
543.85        15.67628
544.29        15.79629
544.72        15.85322
545.16        15.97319
545.60        16.15783
546.04        16.33983
546.47        16.50587
546.91        16.66435
547.35        16.80967
547.79        16.94558
548.22        17.08006
548.66        17.22468
549.10        17.38926
549.53         17.6124
549.97        17.86659
550.41          18.065
550.84        18.19045
551.28        18.28416
551.72        18.36634
552.15        18.45516
552.59        18.57025
553.03         18.6989
553.46        18.82997
553.90        18.97253
554.34        19.11563
554.77        19.24091
555.21        19.36108
555.65         19.5113
556.08        19.68804
556.52        19.87251
556.96         20.0403
557.39         20.1749
557.83        20.27781
558.27        20.32815
558.70        20.34806
559.14        20.42164
559.57        20.53628
560.01        20.60206
560.45        20.62289
560.88        20.67828
561.32        20.78075
561.75        20.87222
562.19        20.96595
562.63        21.05951
563.06        21.14428
563.50        21.29012
563.93        21.45836
564.37        21.44185
564.80        21.30485
565.24        21.40969
565.68        21.71729
566.11        21.89319
566.55        21.92758
566.98        21.99581
567.42        22.10809
567.85        22.25515
568.29        22.28153
568.72        22.36498
569.16        22.50274
569.60        22.63003
570.03        22.72631
570.47        23.23592
570.90        23.22761
571.34        23.59223
571.77        23.86566
572.21        23.79527
572.64        24.02108
573.08         23.8919
573.51        24.39835
573.95        24.45567
574.38        24.37749
574.82         24.1969
575.25        24.63767
575.69         24.7289
576.12         24.7034
576.56        24.69041
576.99        24.81537
577.42        25.04663
577.86        24.67312
578.29        24.83873
578.73        24.70543
579.16        24.72041
579.60        24.64037
580.03        24.56085
580.47        24.47394
580.90        24.33043
581.33        24.06735
581.77        24.08676
582.20        24.44823
582.64        24.03314
583.07        24.07265
583.51        23.66008
583.94        23.55038
584.37        23.34514
584.81        23.18483
585.24         23.0803
585.68        23.42152
586.11        22.80542
586.54        22.82133
586.98        22.62158
587.41        22.61178
587.85        22.82653
588.28        22.48078
588.71        22.50499
589.15        22.53235
589.58         22.4378
590.01        22.59628
590.45        22.40998
590.88        22.23693
591.31        22.29722
591.75        22.60745
592.18        22.60586
592.61        22.29614
593.05        22.53031
593.48        22.88424
593.91        22.75865
594.35        22.83502
594.78        22.76972
595.21         22.8409
595.65        22.92734
596.08        22.98773
596.51        23.50181
596.94        23.48191
597.38        23.74401
597.81        24.00434
598.24        24.11384
598.68        24.12496
599.11        24.58718
599.54        25.29556
599.97        25.21972
600.41         25.8544
600.84        26.11535
601.27        26.45702
601.70        26.69794
602.14        26.90551
602.57        27.34414
603.00        27.95286
603.43        28.43024
603.87        28.74233
604.30        29.08533
604.73        29.41556
605.16         29.8555
605.60        29.86588
606.03        30.38143
606.46        31.13745
606.89        31.21837
607.32        31.63151
607.76        31.68465
608.19        32.20598
608.62         32.6076
609.05        33.01937
609.48        33.25824
609.92        33.43076
610.35        33.70215
610.78        34.80352
611.21        35.06052
611.64        35.32347
612.07        35.38807
612.50        35.52563
612.94        35.64207
613.37        35.78192
613.80        36.05292
614.23        36.26826
614.66         36.5262
615.09        36.75679
615.52        36.96276
615.96        37.16716
616.39        37.37447
616.82        37.58078
617.25         37.9236
617.68        38.31388
618.11        38.24222
618.54        37.85332
618.97        37.92665
619.40         38.4765
619.84        38.73861
620.27        38.90427
620.70        39.14553
621.13        39.48925
621.56        39.49221
621.99        39.19831
622.42        39.22383
622.85        39.61118
623.28        39.36443
623.71        39.30415
624.14        39.64894
624.57        39.09211
625.00        39.13297
625.43        39.19731
625.86        39.23068
626.29        39.12599
626.72        39.26815
627.15        39.04891
627.58        38.93883
628.01        38.75634
628.44        38.50029
628.87        38.18453
629.30        37.85573
629.73         37.5584
630.16        37.27817
630.59        37.02709
631.02        36.81629
631.45        36.62407
631.88        36.40095
632.31        36.12906
632.74        35.81617
633.17        35.46133
633.60        35.06766
634.03        34.64406
634.46        34.19617
634.89        33.73656
635.32        33.28387
635.75        32.84688
636.18        32.42623
636.61        32.02847
637.04        31.66093
637.47        31.32391
637.89        31.00868
638.32        30.68859
638.75        30.37146
639.18        30.06286
639.61        29.64737
640.04          29.367
640.47        29.06928
640.90        28.82922
641.33        28.63536
641.76         28.4889
642.18        28.39137
642.61        28.32743
643.04        28.29927
643.47        28.29694
643.90        28.30303
644.33        28.31206
644.76        28.33407
645.18        28.37385
645.61        28.40456
646.04        28.42755
646.47         28.5133
646.90        28.71054
647.33        28.75213
647.75         29.1867
648.18        29.55655
648.61        29.98248
649.04        30.38565
649.47        30.75902
649.89        31.12025
650.32        31.46566
650.75        31.86868
651.18        32.33767
651.61        32.72342
652.03        33.06749
652.46        33.72854
652.89        34.56257
653.32        34.90208
653.74        34.94635
654.17         35.2409
654.60        35.45924
655.03        36.94527
655.46        36.56877
655.88        37.12441
656.31        39.55013
656.74        43.00198
657.16        41.21275
657.59        39.17864
658.02        39.96476
658.45        40.61839
658.87        41.19444
659.30        40.53443
659.73        40.61874
660.15        41.20982
660.58        41.32796
661.01        41.60843
661.44        41.60756
661.86        41.72124
662.29        41.94555
662.72        42.21156
663.14        42.50853
663.57        42.63736
664.00        42.64796
664.42        42.85516
664.85        43.23915
665.27        43.43374
665.70        43.44376
666.13        43.56543
666.55        43.80998
666.98        44.01085
667.41         44.1497
667.83        44.25771
668.26        44.32755
668.69        44.37059
669.11        44.39124
669.54        44.38186
669.96        44.34953
670.39        44.33205
670.82        44.38401
671.24        44.47549
671.67        44.64254
672.09        45.10404
672.52        45.73033
672.94        45.81245
673.37        45.83941
673.80        45.54893
674.22        45.25688
674.65        45.15217
675.07        45.30547
675.50        45.63581
675.92        46.03925
676.35        46.32344
676.77        46.43657
677.20        46.43987
677.62        46.38297
678.05        46.34558
678.47        46.35511
678.90        46.38763
679.32        46.44558
679.75        46.56133
680.17        46.72985
680.60        46.95057
681.02         47.0545
681.45        47.32666
681.87        47.21987
682.30        47.20811
682.72        47.17625
683.15        47.05291
683.57        46.92889
684.00        47.09465
684.42        47.47154
684.85        47.66765
685.27        47.64901
685.70         47.5475
686.12        47.42276
686.54        47.53044
686.97        47.85676
687.39        47.77323
687.82        47.69647
688.24        47.68316
688.66        47.92371
689.09        47.36195
689.51        47.57375
689.94        47.56918
690.36        47.82844
690.78        48.15662
691.21        48.39729
691.63        48.93568
692.06        48.49335
692.48        48.51682
692.90        48.65545
693.33        48.71273
693.75        48.70834
694.17        48.73493
694.60        48.79642
695.02        49.18339
695.44        49.19607
695.87        49.48868
696.29        49.78504
696.71        49.84392
697.14        49.66994
697.56        49.45911
697.98        49.31179
698.41        49.24685
698.83        49.27349
699.25        49.44198
699.68        49.67115
700.10        49.84711
700.52        49.91578
700.94        49.91514
701.37        49.87787
701.79        49.87713
702.21        49.92331
702.64        49.99482
703.06        50.06768
703.48        50.11247
703.90        50.12621
704.33        50.12354
704.75        50.13119
705.17        50.17761
705.59        50.26982
706.01        50.39202
706.44        50.52581
706.86        50.66057
707.28        50.76819
707.70        50.86771
708.12        50.95834
708.55        50.98475
708.97        50.94543
709.39        51.01218
709.81        50.98369
710.23        50.99746
710.66        50.99702
711.08        51.02019
711.50        51.06495
711.92        51.13503
712.34        51.23196
712.76        51.35027
713.19        51.45866
713.61        51.54926
714.03        51.59333
714.45        51.59385
714.87        51.57269
715.29        51.56566
715.71           51.58
716.13        51.60779
716.56          51.616
716.98        51.60143
717.40        51.54776
717.82        51.47486
718.24        51.41249
718.66        51.40694
719.08         51.4653
719.50        51.56078
719.92        51.68401
720.34         51.8191
720.76        51.95731
721.19        52.10174
721.61        52.21477
722.03        52.23345
722.45        52.17542
722.87        51.93443
723.29        51.61576
723.71        51.73986
724.13        52.34362
724.55        52.14857
724.97        52.67759
725.39        52.69522
725.81        52.64985
726.23        52.45147
726.65          52.241
727.07        52.02783
727.49        52.25243
727.91        52.52454
728.33        52.87189
728.75        53.12646
729.17        53.23544
729.59        53.24389
730.01        53.19466
730.43        53.16461
730.85        53.17987
731.27        53.21307
731.69        53.25079
732.10        53.28256
732.52        53.30015
732.94        53.31283
733.36          53.326
733.78        53.33792
734.20        53.35567
734.62        53.39412
735.04        53.43459
735.46        53.44631
735.88        53.41504
736.30        53.33855
736.72        53.28795
737.13        53.31292
737.55        53.37895
737.97         53.7285
738.39        54.19846
738.81         53.9183
739.23        53.11894
739.65        53.27008
740.06        54.20099
740.48        54.46836
740.90        54.00549
741.32        53.63818
741.74        53.50252
742.16        53.43497
742.57        53.48518
742.99        53.67693
743.41        53.95881
743.83        54.23124
744.25        54.45348
744.67        54.63166
745.08        54.76187
745.50        54.81022
745.92        54.79023
746.34        54.69964
746.75        54.56596
747.17        54.45578
747.59        54.38463
748.01        54.32936
748.42        54.29271
748.84        54.28793
749.26        54.28147
749.68        54.25759
750.09        54.22952
750.51        54.11727
750.93        54.02851
751.35        54.36991
751.76        55.01706
752.18        55.27716
752.60        55.07549
753.01        54.80164
753.43        54.58549
753.85        54.40098
754.27        54.26825
754.68        54.59942
755.10        54.61098
755.52        54.76255
755.93        54.83043
756.35        55.07171
756.77        55.42711
757.18        55.27918
757.60        55.63689
758.02        55.32213
758.43        54.82533
758.85         55.5728
759.26        57.38442
759.68        56.95791
760.10        56.11819
760.51        55.76698
760.93        56.23404
761.34        55.48285
761.76        55.72922
762.18        55.19296
762.59        54.74575
763.01        54.97456
763.42          55.802
763.84         56.2064
764.26        56.03067
764.67        55.59546
765.09        55.13593
765.50        55.05335
765.92        55.35214
766.33        55.40158
766.75        55.09284
767.16        55.48629
767.58        55.35257
768.00        55.68794
768.41        56.09418
768.83        56.44876
769.24          56.601
769.66        56.48463
770.07        56.14207
770.49        55.54458
770.90        54.93492
771.32        55.08185
771.73        55.85987
772.15        56.28795
772.56        56.31113
772.97        56.32004
773.39        56.63143
773.80        56.75165
774.22        56.73798
774.63         56.6741
775.05        56.56644
775.46        56.47309
775.88         56.3987
776.29        56.34864
776.70        56.32265
777.12        56.33447
777.53        56.39143
777.95         56.4607
778.36        56.53102
778.77        56.55695
779.19        56.54739
779.60        56.53858
780.02        56.50964
780.43        56.51968
780.84        56.61595
781.26        56.48169
781.67        56.26095
782.09        56.88267
782.50        58.09717
782.91        57.93346
783.33        57.48269
783.74         57.2036
784.15        57.40447
784.57        57.51086
784.98         57.5335
785.39        57.15562
785.81         56.4244
786.22        57.36275
786.63        57.56949
787.04        57.48178
787.46        57.51746
787.87        57.20095
788.28        57.00591
788.70        56.96194
789.11        57.11206
789.52        57.46111
789.93        57.86042
790.35        57.95733
790.76        57.77163
791.17         57.6516
791.58        57.65792
792.00        57.62042
792.41         57.5847
792.82        57.66945
793.23        57.85159
793.65         58.0552
794.06        58.29165
794.47        58.47186
794.88        58.47383
795.29        58.80873
795.71        58.30529
796.12        57.96931
796.53        57.57368
796.94        57.30722
797.35        57.25051
797.76        57.47621
798.18        57.86224
798.59        58.10271
799.00        58.10926
799.41        58.00622
799.82         57.8791
800.23        57.83807
800.64        57.91785
801.06        58.04316
801.47        58.21114
801.88        58.32804
802.29         58.3547
802.70        58.30724
803.11        58.20798
803.52        58.08651
803.93        57.96876
804.34        57.86751
804.75        57.76089
805.17        57.64797
805.58        57.56204
805.99        57.36926
806.40        57.18415
806.81        57.47236
807.22        58.09748
807.63        58.37919
808.04        58.26513
808.45        58.21227
808.86        58.22129
809.27        57.96148
809.68        57.54655
810.09        57.36469
810.50        57.48489
810.91        57.80518
811.32        58.19333
811.73        58.42496
812.14        58.42948
812.55        58.27085
812.96        58.05343
813.37        57.95487
813.78        58.02872
814.19        58.21608
814.60        58.41607
815.01        58.48309
815.42        58.38723
815.83        58.17762
816.24        57.94918
816.65        57.87518
817.05        58.01392
817.46        58.27788
817.87        58.58793
818.28        58.78873
818.69        58.83854
819.10        58.77559
819.51        58.66027
819.92        58.60519
820.33        58.63893
820.74        58.71032
821.14        58.76387
821.55         58.7347
821.96        58.60275
822.37        58.42537
822.78        58.22071
823.19        58.01397
823.60        57.84082
824.00        57.70686
824.41        57.67717
824.82        57.92133
825.23        58.44403
825.64        59.17936
826.04        59.95385
826.45        60.39073
826.86        60.41292
827.27        60.11546
827.68        59.63802
828.08        59.25008
828.49        59.01686
828.90         58.8891
829.31        58.88295
829.72        59.01625
830.12        59.29398
830.53        59.68188
830.94        60.07164
831.35        60.21888
831.75        60.07166
832.16        59.63297
832.57        59.09243
832.97        58.74522
833.38        58.67242
833.79        58.80598
834.20        58.99283
834.60         58.9776
835.01        58.72898
835.42        58.34662
835.82        58.00506
836.23        57.93962
836.64        58.22208
837.04         58.7743
837.45        59.41741
837.86        59.94675
838.26        60.26665
838.67        60.38158
839.08        60.30924
839.48        60.06987
839.89        59.70128
840.29        59.19795
840.70        58.65973
841.11        58.18239
841.51         57.8257
841.92        57.60263
842.33        57.50146
842.73        57.48848
843.14        57.51201
843.54        57.57619
843.95        57.74563
844.35         58.1609
844.76        58.77947
845.17        59.54738
845.57        60.24285
845.98        60.38059
846.38        59.91085
846.79        58.99824
847.19        57.95216
847.60        57.27047
848.00        57.07811
848.41        57.21898
848.81        57.61387
849.22        58.02419
849.62        58.38934
850.03        58.73118
850.43        58.99126
850.84        58.97147
851.24        58.68695
851.65        58.15611
852.05        57.57277
852.46        57.27314
852.86        57.31054
853.27        57.60294
853.67        57.97836
854.07        58.34396
854.48        58.61719
854.88         58.9013
855.29        59.03839
855.69        58.92383
856.10        58.47241
856.50        57.77787
856.90        57.08423
857.31        56.78239
857.71        56.98123
858.12        57.56108
858.52        58.32584
858.92        58.73883
859.33        58.62081
859.73          58.136
860.13        57.53413
860.54        57.24687
860.94        57.41157
861.34        57.87509
861.75         58.3745
862.15        58.55899
862.55        58.29846
862.96        57.74943
863.36        57.11723
863.76        56.74268
864.17         56.7099
864.57        56.91487
864.97        57.21666
865.38        57.38411
865.78        57.37741
866.18        57.25338
866.58        57.05735
866.99        56.86268
867.39         56.7231
867.79        56.59265
868.19        56.48503
868.60        56.41162
869.00        56.37862
869.40        56.40142
869.80        56.44804
870.21        56.45842
870.61        56.44879
871.01        56.40873
871.41        56.38622
871.81        56.45533
872.22        56.61057
872.62        56.86581
873.02         57.1681
873.42        57.40635
873.82        57.54705
874.22        57.62777
874.63        57.71465
875.03        57.89644
875.43        58.18325
875.83         58.4852
876.23        58.77928
876.63        59.02242
877.03        59.19181
877.44        59.36789
877.84        59.35975
878.24        58.89008
878.64         57.9813
879.04        56.73023
879.44        55.64051
879.84        55.43587
880.24        56.19194
880.64        57.70214
881.04         59.2922
881.44        59.73822
881.84        58.75792
882.24        56.81209
882.65         54.7061
883.05        53.50164
883.45        53.48139
883.85         54.3248
884.25        55.63413
884.65        56.67722
885.05        57.15192
885.45        57.26043
885.85        57.19377
886.25        57.23899
886.65        57.47593
887.05        57.76173
887.45        57.95929
887.85        57.89608
888.25        57.53995
888.65        56.99251
889.04        56.41124
889.44        56.03843
889.84        55.92543
890.24        56.02919
890.64        56.22969
891.04        56.32222
891.44         56.2616
891.84        56.11727
892.24         56.0271
892.64        56.20071
893.04        56.68157
893.44        57.39378
893.83        58.19954
894.23        58.79781
894.63        59.10918
895.03        59.15568
895.43        59.07145
895.83        59.08254
896.23        59.23904
896.63        59.49395
897.02        59.63565
897.42        59.32543
897.82        58.54859
898.22        57.45567
898.62        56.41848
899.01        55.93683
899.41         56.1101
899.81        56.81071
900.21        57.68261
900.61         58.0423
901.00        57.69836
901.40        56.93424
901.80        56.16851
902.20        55.99379
902.59        56.54278
902.99        57.57244
903.39        58.82875
903.79        59.73085
904.18        60.01564
904.58        59.89185
904.98         59.5117
905.38        59.08544
905.77         58.6979
906.17        58.28436
906.57        57.94971
906.96        57.92923
907.36        58.21389
907.76        58.76894
908.15        59.37116
908.55        59.54281
908.95        59.20354
909.34        58.49528
909.74        57.66183
910.14        57.04954
910.53        56.76269
910.93         56.7123
911.33        56.84917
911.72        57.10342
912.12        57.41735
912.52        57.81377
912.91        58.22054
913.31        58.48418
913.70        58.59005
914.10        58.50376
914.49        58.32902
914.89        58.20478
915.29        58.19418
915.68        58.26954
916.08        58.35279
916.47        58.25932
916.87        57.99092
917.26        57.57748
917.66        57.20367
918.05         57.1367
918.45        57.39422
918.84        57.94431
919.24        58.47651
919.64        58.53206
920.03        58.01218
920.42        57.07685
920.82        56.14256
921.21         55.6898
921.61         55.8126
922.00        56.39302
922.40        57.12955
922.79        57.55986
923.19        57.50187
923.58        57.12897
923.98        56.70038
924.37        56.56956
924.77        56.82498
925.16        57.35334
925.55        57.98479
925.95        58.41878
926.34        58.56484
926.74        58.48018
927.13        58.25044
927.52        57.99885
927.92         57.7747
928.31        57.54017
928.70        57.27898
929.10        56.95123
929.49        56.59451
929.89        56.27869
930.28        56.08624
930.67        56.09732
931.07        56.30873
931.46        56.65469
931.85        57.14922
932.24        57.84156
932.64        58.65931
933.03        59.62648
933.42        60.39559
933.82         60.4272
934.21        59.67602
934.60        58.31893
934.99        56.91872
935.39        56.30497
935.78        56.64577
936.17        57.68982
936.56        58.97929
936.96        59.71768
937.35        59.68747
937.74        59.11356
938.13        58.21306
938.53        57.33149
938.92        56.62284
939.31         56.0532
939.70        55.69427
940.09        55.67976
940.49        55.95644
940.88        56.46911
941.27        57.16928
941.66        57.94335
942.05        58.66567
942.44        59.36261
942.84        59.61396
943.23        58.75851
943.62         56.8816
944.01        54.37674
944.40        52.13028
944.79        51.26163
945.18        51.91163
945.57        53.78673
945.97        56.21053
946.36        57.97699
946.75        58.44256
947.14        57.95326
947.53        56.98375
947.92        56.34627
948.31        56.29298
948.70        56.47754
949.09        56.83326
949.48        57.29224
949.87        57.76076
950.26        58.35735
950.65        58.75993
951.04        58.39596
951.43        57.23477
951.82          55.469
952.21        53.73373
952.60        52.99982
952.99         53.4617
953.38        54.86332
953.77        56.58261
954.16        57.52762
954.55        57.36155
954.94        56.35897
955.33        55.09865
955.72        54.54132
956.11        54.94537
956.50        56.02525
956.89        57.22855
957.28        57.66683
957.66        57.14499
958.05        55.97107
958.44        54.73748
958.83        54.36862
959.22        55.07894
959.61        56.52885
960.00        58.19333
960.39        59.16671
960.78        59.14241
961.16        58.42643
961.55        57.30235
961.94        56.18808
962.33        55.29851
962.72        54.53613
963.11        54.03598
963.49        54.05465
963.88        54.55855
964.27        55.48707
964.66        56.60728
965.04        57.50027
965.43        57.96286
965.82        58.11616
966.21        57.95677
966.60        57.52893
966.98        56.93027
967.37        56.13514
967.76        55.42838
968.15         55.2702
968.53         55.7556
968.92        56.73172
969.31        57.86057
969.69        58.52693
970.08        58.51656
970.47        58.00443
970.86        57.22276
971.24        56.55871
971.63        56.17165
972.02        56.02084
972.40        56.07611
972.79        56.25185
973.17        56.56513
973.56        56.95039
973.95        57.56582
974.33        58.65877
974.72        60.15647
975.11        61.99586
975.49        63.74549
975.88         64.4433
976.26        63.81861
976.65        62.13503
977.04        60.00143
977.42        58.22905
977.81        57.05249
978.19        56.22411
978.58        55.69592
978.96        55.20212
979.35        54.67551
979.74        54.20134
980.12        53.77291
980.51        53.23246
980.89        52.65608
981.28        52.09898
981.66        51.67122
982.05        51.54217
982.43        51.77106
982.82        52.22329
983.20        53.03065
983.59        54.43014
983.97        56.45765
984.35        59.03254
984.74         61.3291
985.12        62.10549
985.51        60.90891
985.89        58.24862
986.28        55.24831
986.66        53.18186
987.04         52.4287
987.43        52.60885
987.81        53.38445
988.20        53.97594
988.58        54.15303
988.96        54.24614
989.35        54.23865
989.73        54.21803
990.12        54.17264
990.50        53.87986
990.88          53.718
991.27        54.35075
991.65        55.87449
992.03        58.30875
992.42        60.54416
992.80        60.60701
993.18        57.90359
993.56        53.43208
993.95        49.22257
994.33        47.32007
994.71        48.09561
995.10        50.95629
995.48        54.95838
995.86        57.48434
996.24        57.38963
996.63        55.56232
997.01        53.19193
997.39        51.87922
997.77        52.03798
998.15        53.03601
998.54        54.68081
998.92        56.67072
999.30         58.7294
999.68        61.05774
1000.06        62.97696
1000.45        63.16352
1000.83        61.59816
1001.21         58.6741
1001.59        55.62815
1001.97        54.18089
1002.35        54.64252
1002.73        56.54184
1003.12        59.21195
1003.50        61.39376
1003.88        62.46665
1004.26        62.80412
1004.64        62.51109
1005.02        61.80008
1005.40        60.79345
1005.78        59.25103
1006.16        57.57993
1006.54        56.52031
1006.92        56.25393
1007.30        56.80985
1007.69        57.44835
1008.07        56.76512
1008.45        54.62162
1008.83        51.70658
1009.21        49.25389
1009.59        48.55913
1009.97        49.74025
1010.35        52.59822
1010.73        56.23383
1011.11        58.40003
1011.49        58.03036
1011.86        55.43081
1012.24         52.5164
1012.62        52.25017
1013.00         55.5195
1013.38        62.09161
1013.76        69.71015
1014.14        72.27889
1014.52        68.09962
1014.90        60.45183
1015.28        53.42266
1015.66        50.54199
1016.04        51.91876
1016.41        56.71453
1016.79        63.67698
1017.17        69.56548
1017.55        71.92865
1017.93        71.47575
1018.31        68.18893
1018.69         63.0847
1019.06        57.67825
1019.44        52.45915
1019.82        48.86648
1020.20        48.12681
1020.58        49.90146
1020.95        54.14735
1021.33        59.34492
1021.71        61.28909
1022.09        58.29929
1022.46        51.51461
1022.84        44.42581
1023.22        41.26945
1023.60        43.05434
1023.97        49.67042
1024.35        59.39811
1024.73         64.5309
