SpectraSmart Spectrum 2.9.0.0
--------- Device Information -----------
Spectrum Name :  反射率_0
Saving Time :  2024/05/03 20:58:27
Spectro-Module Model Name : SE2030-DUVN
Spectro-Module Serial Number : OS361AC55029948
Wavelength Start : 200
Wavelength End : 1025
Wavelength Unit : Wavelength(nm)
Spectrum Unit : Reflectance(%)
-----------Spectrum Setting ------------
Integration Time : 20ms
Average : 10
Boxcar : 0
Background removal :  enabled
linearity correction :  enabled
SC :  disabled
Intensity correction :  disabled
DWT denoise :  enabled
savitzky-golay :  disabled
FFT :  disabled
Running average :  disabled
Kalman :  disabled
High pass :  disabled
---------------BEGIN--------------------
Wavelength(nm)             Reflectance(%)
200.29               0
200.75        71.12707
201.21        115.0366
201.67       -2777.537
202.13        -71.2799
202.58        -28.7486
203.04       -12.55976
203.50       -5.712331
203.96       -7.623203
204.42       -21.86368
204.88       -85.52053
205.34        2217.767
205.80        223.6224
206.26        208.3669
206.72        28041.52
207.18       -29.89047
207.64       -11.30202
208.10        -47.2128
208.55       -198.2088
209.01       -1720.295
209.47       -2485.004
209.93        -301.068
210.39       -79.19394
210.85       -18.65067
211.31       0.5187888
211.77        3.569316
212.23       -5.689283
212.69       -45.22099
213.14       -103.4203
213.60       -79.59996
214.06        -48.3084
214.52       -34.23584
214.98       -32.53392
215.44       -41.96166
215.90        -86.3483
216.36        505.9182
216.81        69.61083
217.27        30.85093
217.73       -11.26891
218.19       -190.9884
218.65       -4511.986
219.11       -233.7405
219.57      0.08605066
220.02        48.99208
220.48        103.2833
220.94       -54.21383
221.40         10.7122
221.86        22.32766
222.32        26.62606
222.77        28.81747
223.23        31.10453
223.69        33.29217
224.15        32.32564
224.61        28.12316
225.06        23.78659
225.52        21.55224
225.98        22.00056
226.44        24.94314
226.90        30.41869
227.36        38.96902
227.81        48.56501
228.27        55.57346
228.73        59.78597
229.19        60.63601
229.65        58.25999
230.10        53.94434
230.56        48.90957
231.02        44.90917
231.48        43.98647
231.93        45.75676
232.39         49.3124
232.85        52.99761
233.31        54.50937
233.77        53.47281
234.22        50.60328
234.68        47.27477
235.14        45.81918
235.60        46.93274
236.05        50.05244
236.51        53.87803
236.97        55.79144
237.43        54.84997
237.88        52.25534
238.34         49.2345
238.80        46.91735
239.26         45.4192
239.71        46.00318
240.17         45.9143
240.63        49.04616
241.08        54.56151
241.54        60.72174
242.00        64.96259
242.46        66.85905
242.91        67.08852
243.37        63.80704
243.83        53.71695
244.28        33.15319
244.74        8.418589
245.20       -9.626734
245.66       -17.28743
246.11       -20.25929
246.57       -21.47491
247.03       -19.93305
247.48       -17.20355
247.94       -15.54507
248.40       -14.93884
248.85       -15.78917
249.31       -16.98293
249.77       -16.62384
250.22        -14.5959
250.68       -12.03842
251.14       -9.665037
251.59       -7.776377
252.05       -5.599351
252.51       -1.731538
252.96        5.677229
253.42        18.25947
253.88        32.77887
254.33        44.56776
254.79        51.41938
255.25        53.55165
255.70        53.12362
256.16        52.11312
256.62        51.51316
257.07        52.03471
257.53        53.69488
257.99        55.64231
258.44         57.1474
258.90        57.87003
259.35        57.44637
259.81        56.70764
260.27        55.57816
260.72         54.0144
261.18        52.52034
261.63        50.94672
262.09        49.71919
262.55        48.91858
263.00        48.39094
263.46        48.08475
263.91        47.75463
264.37        47.33344
264.83        46.74896
265.28         46.0685
265.74        45.33052
266.19        44.34242
266.65        43.23397
267.11        41.99424
267.56        40.85615
268.02        40.24354
268.47        40.13388
268.93        40.40712
269.38        40.70515
269.84        40.42052
270.30        39.46108
270.75        38.06001
271.21        36.63839
271.66        35.69149
272.12        35.32934
272.57        35.33173
273.03        35.49981
273.48        35.54068
273.94        35.35531
274.39        35.03954
274.85        34.59797
275.31        33.93525
275.76        33.07306
276.22        32.09785
276.67        31.17539
277.13        30.64939
277.58        30.47529
278.04        30.57754
278.49        30.66338
278.95        30.33679
279.40        29.52243
279.86        28.47776
280.31        27.42491
280.77        26.75049
281.22        26.43054
281.68        26.36699
282.13         26.3779
282.59        26.27064
283.04        25.97531
283.50        25.59022
283.95         25.1729
284.41        24.83075
284.86        24.57441
285.32        24.38788
285.77        24.22715
286.22        24.09188
286.68        23.98262
287.13        23.87954
287.59        23.80241
288.04        23.72439
288.50        23.65976
288.95        23.58895
289.41        23.51419
289.86        23.39852
290.32        23.26364
290.77        23.10478
291.22        22.97363
291.68        22.93254
292.13        22.98455
292.59        23.14078
293.04        23.34859
293.50        23.53666
293.95         23.6849
294.40        23.82095
294.86        24.02473
295.31         24.4156
295.77        25.00724
296.22        25.73771
296.68        26.49973
297.13        27.11269
297.58        27.51164
298.04        27.77043
298.49        27.92317
298.95        28.06183
299.40         28.2193
299.85        28.38655
300.31        28.64602
300.76        29.09522
301.21        29.74594
301.67        30.56648
302.12        31.40602
302.58         32.0435
303.03        32.41191
303.48        32.57793
303.94        32.69429
304.39         32.9413
304.84        33.37717
305.30         33.9325
305.75        34.48249
306.20        34.86789
306.66        35.06092
307.11        35.10197
307.57        35.08647
308.02        35.08452
308.47        35.14218
308.93        35.23487
309.38        35.32552
309.83        35.40092
310.29        35.45134
310.74        35.47663
311.19        35.47792
311.65         35.4478
312.10        35.37813
312.55         35.2727
313.00        35.13068
313.46        34.95745
313.91         34.7478
314.36        34.51688
314.82        34.29145
315.27        34.09865
315.72         33.9531
316.18        33.85022
316.63        33.76694
317.08         33.6695
317.53        33.54587
317.99        33.39495
318.44        33.24181
318.89        33.11409
319.35        33.01437
319.80        32.92978
320.25        32.82542
320.70        32.65251
321.16        32.39492
321.61        32.07521
322.06        31.72342
322.51        31.39436
322.97        31.10743
323.42        30.86059
323.87        30.63316
324.32        30.39313
324.78        30.12716
325.23        29.85317
325.68        29.58644
326.13        29.35536
326.59        29.15549
327.04        28.99299
327.49        28.83235
327.94        28.62827
328.39        28.36905
328.85        28.05926
329.30        27.74683
329.75         27.4846
330.20        27.29029
330.66        27.14059
331.11        27.01652
331.56        26.84747
332.01         26.6179
332.46        26.35044
332.92        26.06791
333.37        25.84335
333.82        25.68344
334.27        25.56515
334.72        25.47604
335.17        25.39611
335.63        25.30454
336.08        25.22491
336.53        25.12648
336.98        24.96883
337.43        24.75097
337.88        24.48702
338.34        24.22853
338.79        24.06346
339.24        24.01204
339.69        24.05185
340.14        24.13311
340.59        24.17304
341.05         24.1437
341.50        24.06463
341.95        23.96463
342.40        23.89642
342.85        23.87253
343.30         23.8735
343.75        23.86352
344.20        23.79048
344.66        23.65283
345.11        23.46772
345.56        23.28468
346.01        23.17221
346.46        23.14768
346.91         23.1918
347.36        23.26345
347.81        23.29869
348.26         23.2795
348.72        23.22178
349.17        23.15477
349.62        23.13306
350.07        23.16456
350.52        23.22611
350.97        23.27343
351.42        23.23999
351.87        23.11373
352.32        22.92095
352.77        22.70569
353.22        22.53863
353.67        22.43915
354.13        22.38862
354.58        22.35427
355.03        22.30306
355.48        22.22484
355.93        22.14034
356.38          22.044
356.83        21.92527
357.28        21.78679
357.73        21.62312
358.18        21.47406
358.63        21.40775
359.08        21.43005
359.53          21.517
359.98        21.59137
360.43        21.53262
360.88        21.31636
361.33        20.97958
361.78        20.60561
362.23        20.32255
362.68        20.16565
363.13        20.10662
363.58        20.07868
364.03        19.97366
364.48        19.77094
364.93        19.50922
365.38        19.27037
365.83        19.17625
366.28        19.24568
366.73        19.42979
367.18        19.63064
367.63         19.6939
368.08        19.57808
368.53        19.32909
368.98        19.02955
369.43        18.80613
369.88        18.69213
370.33         18.6509
370.78         18.6278
371.23        18.53284
371.68        18.34569
372.13        18.10629
372.58        17.86755
373.03        17.70217
373.48        17.62517
373.93        17.60638
374.38        17.60794
374.83        17.57217
375.28        17.47864
375.72        17.33838
376.17        17.18406
376.62        17.03016
377.07        16.88618
377.52        16.75074
377.97         16.6237
378.42           16.51
378.87        16.41378
379.32        16.33235
379.77        16.27977
380.22        16.27375
380.67        16.30772
381.11        16.37434
381.56        16.41967
382.01        16.36723
382.46         16.2045
382.91        15.96129
383.36        15.70071
383.81        15.51358
384.26        15.42117
384.71        15.40056
385.15        15.40829
385.60        15.38874
386.05        15.31827
386.50        15.21381
386.95        15.10674
387.40        15.04204
387.85        15.02789
388.29        15.04134
388.74        15.05654
389.19        15.00362
389.64        14.87433
390.09        14.68894
390.54        14.51262
390.98        14.43477
391.43        14.47623
391.88        14.62803
392.33        14.80576
392.78        14.81455
393.23        14.67423
393.67        14.57143
394.12        14.54283
394.57        14.48921
395.02        14.41823
395.47        14.38734
395.91        14.38522
396.36        14.34823
396.81        14.27883
397.26        14.20659
397.71        14.12664
398.15        14.04568
398.60        13.98851
399.05        13.86881
399.50        13.73453
399.95        13.81329
400.39        14.04031
400.84        14.00953
401.29         13.7444
401.74        13.61752
402.18        13.64811
402.63        13.63455
403.08        13.58562
403.53        13.49914
403.97        13.56817
404.42        13.60412
404.87        13.64536
405.32        13.65709
405.76        13.62916
406.21        13.57579
406.66        13.50204
407.11        13.42085
407.55        13.34163
408.00        13.25806
408.45        13.17857
408.90        13.11564
409.34        13.07332
409.79        13.04985
410.24        13.04149
410.68        13.03731
411.13        13.03499
411.58        13.03742
412.03        13.03554
412.47        13.01801
412.92        12.97973
413.37         12.9232
413.81        12.86874
414.26        12.86035
414.71        12.89702
415.15        12.97492
415.60        13.04763
416.05        13.04623
416.49         12.9563
416.94        12.80437
417.39        12.64847
417.83        12.57165
418.28        12.59021
418.73        12.67502
419.17        12.78253
419.62        12.83202
420.07        12.80037
420.51         12.7111
420.96        12.59602
421.41        12.49198
421.85        12.40658
422.30        12.33608
422.74         12.2703
423.19        12.23263
423.64        12.21167
424.08        12.19136
424.53        12.16143
424.98        12.15626
425.42        12.18515
425.87        12.20061
426.31        12.20732
426.76        12.29104
427.21        12.41165
427.65        12.39155
428.10        12.27163
428.54        12.24499
428.99        12.32839
429.44        12.49352
429.88        12.63323
430.33        12.51322
430.77        12.19097
431.22        11.96557
431.66        11.90307
432.11        11.95761
432.56        12.09879
433.00         12.3078
433.45        12.42928
433.89        12.35235
434.34        11.72916
434.78        11.65613
435.23        12.03518
435.67        12.12522
436.12        11.93244
436.57         11.8771
437.01        11.96552
437.46        11.97826
437.90        11.90671
438.35        11.81924
438.79        11.73335
439.24        11.66275
439.68        11.62137
440.13        11.63237
440.57        11.66706
441.02        11.66581
441.46        11.61713
441.91        11.53614
442.35        11.44752
442.80        11.46772
443.24        11.56377
443.69        11.59102
444.13        11.54276
444.58        11.53051
445.02        11.55372
445.47        11.54498
445.91        11.50834
446.36        11.49217
446.80        11.49677
447.24         11.5088
447.69         11.5264
448.13         11.5465
448.58        11.56668
449.02        11.58595
449.47         11.5969
449.91        11.58081
450.36        11.53921
450.80        11.47667
451.25        11.41024
451.69        11.36257
452.13         11.3411
452.58        11.34089
453.02        11.35104
453.47        11.35889
453.91        11.35939
454.36        11.35591
454.80        11.34881
455.24        11.35412
455.69        11.37855
456.13        11.37584
456.58        11.34575
457.02        11.42351
457.46        11.42316
457.91         11.3823
458.35        11.27135
458.79        11.24367
459.24        11.28985
459.68        11.27338
460.13        11.20593
460.57        11.16012
461.01        11.14616
461.46        11.11876
461.90        11.08553
462.34        11.07102
462.79        11.07438
463.23         11.0847
463.68        11.10311
464.12        11.12062
464.56         11.1315
465.01        11.16984
465.45        11.20165
465.89        11.14388
466.34        11.02921
466.78        10.97529
467.22        10.99706
467.67        11.02161
468.11        11.04219
468.55        11.06238
468.99        11.08022
469.44        11.10589
469.88        11.13808
470.32        11.15548
470.77        11.15969
471.21        11.17222
471.65        11.19372
472.10         11.2151
472.54        11.23509
472.98        11.25973
473.42        11.28772
473.87        11.32224
474.31        11.34532
474.75        11.33952
475.20        11.30968
475.64        11.25901
476.08        11.20725
476.52        11.20031
476.97        11.24798
477.41        11.30542
477.85        11.34745
478.29        11.54948
478.74        11.51726
479.18        11.64833
479.62         11.7998
480.06        11.86971
480.50        11.84688
480.95        11.79204
481.39        11.74055
481.83        11.73115
482.27        11.78527
482.72        11.91125
483.16        12.06367
483.60        12.16668
484.04        12.19943
484.48        12.15667
484.93        12.15602
485.37        12.32035
485.81        12.60589
486.25        13.05635
486.69        12.99468
487.14        12.82551
487.58        13.11969
488.02        12.87158
488.46        13.12237
488.90        13.04277
489.34        12.78465
489.79         12.8499
490.23        13.15522
490.67        13.44101
491.11        13.61314
491.55        13.59784
491.99        13.46192
492.43        13.48016
492.88        13.67741
493.32        13.87676
493.76        14.02998
494.20        14.15967
494.64        14.25716
495.08        14.31792
495.52        14.36446
495.96        14.44478
496.41        14.56795
496.85        14.69256
497.29        14.81797
497.73        14.99664
498.17        15.19631
498.61        15.31301
499.05        15.34177
499.49        15.33403
499.93        15.33163
500.37        15.40895
500.82         15.5598
501.26        15.68191
501.70        15.76576
502.14        15.88543
502.58         16.0289
503.02        16.13277
503.46        16.19066
503.90        16.22315
504.34        16.24063
504.78        16.26112
505.22        16.29294
505.66        16.32478
506.10        16.35417
506.54         16.4149
506.98        16.51344
507.42        16.57888
507.86         16.5752
508.30        16.80401
508.74        16.67432
509.18        16.67005
509.62        16.64869
510.06        16.68051
510.50        16.77148
510.94         16.9059
511.38         17.0548
511.82         17.1526
512.26        17.18292
512.70        17.16765
513.14         17.1214
513.58        17.06813
514.02        17.02013
514.46        16.96853
514.90        16.93138
515.34         16.9384
515.78        16.99202
516.22        17.08697
516.66        17.18413
517.10        17.21871
517.54        17.17834
517.98        17.08089
518.42        16.97238
518.86        16.92776
519.30        16.96428
519.74        17.05877
520.18        17.16767
520.62        17.22026
521.06        17.19677
521.50        17.11807
521.93        17.01955
522.37        16.95831
522.81        16.94756
523.25        16.96871
523.69         16.9916
524.13        16.96968
524.57        16.89477
525.01        16.78784
525.45        16.67821
525.89        16.61036
526.32        16.59419
526.76        16.61365
527.20        16.65084
527.64        16.67954
528.08        16.68938
528.52        16.68951
528.96        16.67451
529.40         16.6363
529.83        16.57463
530.27        16.49324
530.71        16.41258
531.15        16.36787
531.59        16.36454
532.03        16.39449
532.46        16.42794
532.90        16.41583
533.34        16.35119
533.78         16.2547
534.22        16.15758
534.66        16.10519
535.09        16.10361
535.53        16.13631
535.97        16.18613
536.41        16.21348
536.85        16.20626
537.28        16.22185
537.72        16.24916
538.16        16.16738
538.60        16.03068
539.04        16.06155
539.47        16.23892
539.91        16.34443
540.35        16.36559
540.79        16.43731
541.22        16.54239
541.66        16.60157
542.10         16.6132
542.54        16.57659
542.97        16.54027
543.41        16.64557
543.85        16.87517
544.29        17.07829
544.72         17.2153
545.16        17.34873
545.60        17.46559
546.04        17.51859
546.47        17.53695
546.91        17.59963
547.35        17.72064
547.79        17.88175
548.22        18.06339
548.66        18.23576
549.10        18.39574
549.53        18.59604
549.97        18.81932
550.41        18.99285
550.84        19.10372
551.28        19.18659
551.72        19.25055
552.15        19.29847
552.59         19.3493
553.03        19.39838
553.46        19.44917
553.90         19.5317
554.34         19.6387
554.77         19.7442
555.21        19.85059
555.65        19.97665
556.08        20.11468
556.52        20.25317
556.96        20.37284
557.39        20.46362
557.83        20.53057
558.27        20.55111
558.70        20.54947
559.14        20.61359
559.57        20.72744
560.01        20.79681
560.45         20.8228
560.88        20.86865
561.32        20.94238
561.75        21.02639
562.19         21.1244
562.63        21.13322
563.06        21.08714
563.50        21.25285
563.93        21.56104
564.37        21.58294
564.80        21.37133
565.24          21.413
565.68        21.68284
566.11        21.82052
566.55        21.82373
566.98        21.87197
567.42        21.97344
567.85        22.12448
568.29        22.17814
568.72        22.26781
569.16        22.37918
569.60        22.52578
570.03         22.7023
570.47        22.91325
570.90        23.12526
571.34        23.23624
571.77         23.5393
572.21        23.39899
572.64        23.59982
573.08        23.46513
573.51        23.96512
573.95        24.05137
574.38         24.0063
574.82         23.8554
575.25        24.32577
575.69        24.36851
576.12        24.22045
576.56        24.25909
576.99         24.5096
577.42        24.56974
577.86        24.37939
578.29        24.62934
578.73        24.57581
579.16         24.5523
579.60         24.2995
580.03        24.20524
580.47        24.31455
580.90        24.05284
581.33        23.84344
581.77         24.1705
582.20        24.26012
582.64        24.00389
583.07        24.00443
583.51        23.72473
583.94        23.51941
584.37         23.3389
584.81        23.25096
585.24        23.15539
585.68        23.47185
586.11        22.94369
586.54        23.10982
586.98        22.89248
587.41        22.76909
587.85        22.79373
588.28        22.74856
588.71        22.91723
589.15        22.74931
589.58        22.47427
590.01        22.51938
590.45        22.43631
590.88        22.40993
591.31        22.48435
591.75        22.63841
592.18        22.66849
592.61         22.5553
593.05        22.75245
593.48        22.97867
593.91        22.83821
594.35        22.93324
594.78         22.9225
595.21        23.02256
595.65        23.03001
596.08        22.93302
596.51        23.37897
596.94        23.40923
597.38        23.62452
597.81        23.71004
598.24        23.94388
598.68        24.17554
599.11        24.11705
599.54        24.75729
599.97        24.68275
600.41        25.17872
600.84        25.43564
601.27        25.76519
601.70        25.80127
602.14        26.21151
602.57        26.42484
603.00        26.89811
603.43        27.17331
603.87        27.35598
604.30        27.61879
604.73        27.99406
605.16        28.25137
605.60        28.38591
606.03        28.73618
606.46        29.27844
606.89        29.30655
607.32        29.78293
607.76        30.01012
608.19        30.28678
608.62        30.56344
609.05        30.82134
609.48        31.06285
609.92        31.39671
610.35        31.40422
610.78        32.15155
611.21        32.79521
611.64        32.63259
612.07        32.76281
612.50        32.94738
612.94        33.07256
613.37        33.15356
613.80        33.48958
614.23        33.65173
614.66        33.88556
615.09        34.10314
615.52        34.16656
615.96        34.49044
616.39        34.70638
616.82        34.96581
617.25        34.90311
617.68        35.42692
618.11        35.31456
618.54        34.98853
618.97         35.0723
619.40        35.57415
619.84        35.94312
620.27        36.09098
620.70        36.32145
621.13        36.59261
621.56         36.4402
621.99        36.07746
622.42        36.15032
622.85        36.63095
623.28        36.58318
623.71        36.48114
624.14        36.29445
624.57        36.22363
625.00        36.27917
625.43        36.32055
625.86        36.40929
626.29        36.42573
626.72        36.66423
627.15        36.44782
627.58        36.34833
628.01        36.18542
628.44        35.90647
628.87        35.56847
629.30        35.38429
629.73        35.32869
630.16        35.15742
630.59        34.85767
631.02        34.56425
631.45        34.31549
631.88        34.11277
632.31        33.95975
632.74        33.84345
633.17        33.71556
633.60        33.50057
634.03        33.18067
634.46        32.78275
634.89        32.33915
635.32        31.90233
635.75        31.49574
636.18        31.10911
636.61        30.75195
637.04        30.43917
637.47        30.17064
637.89        29.93763
638.32        29.70705
638.75        29.47039
639.18        29.22613
639.61        28.86347
640.04        28.61456
640.47        28.32823
640.90        28.07963
641.33         27.8594
641.76         27.6803
642.18        27.56296
642.61        27.49862
643.04        27.48681
643.47        27.50752
643.90        27.52592
644.33        27.52886
644.76        27.52597
645.18        27.53105
645.61        27.53165
646.04        27.53258
646.47        27.60294
646.90        27.76434
647.33        27.71833
647.75        27.98648
648.18        28.13738
648.61         28.3443
649.04        28.59752
649.47        28.89927
649.89        29.31222
650.32        29.74542
650.75        29.96207
651.18        30.01786
651.61        30.17414
652.03        30.46959
652.46        30.96702
652.89        31.59762
653.32        31.82936
653.74        31.73746
654.17        32.34937
654.60        32.36292
655.03        32.86366
655.46        33.24725
655.88        33.35892
656.31         35.4799
656.74        39.22211
657.16        37.32162
657.59        35.32378
658.02        35.78767
658.45        36.30782
658.87        36.58653
659.30        36.12098
659.73        35.99104
660.15        36.51903
660.58        36.54001
661.01        36.87484
661.44        37.03093
661.86        37.02861
662.29        36.93851
662.72        37.21993
663.14        37.81234
663.57        37.94297
664.00        37.68787
664.42        37.81787
664.85        38.32904
665.27         38.6385
665.70        38.70397
666.13        38.83157
666.55        39.02178
666.98         39.1189
667.41        39.14973
667.83        39.21095
668.26        39.31378
668.69        39.45293
669.11        39.59625
669.54        39.67559
669.96        39.68042
670.39        39.66048
670.82        39.69098
671.24        39.79351
671.67         40.0072
672.09        40.49651
672.52        41.12948
672.94         41.2617
673.37        41.32747
673.80        41.08774
674.22        40.84222
674.65         40.7897
675.07        40.99763
675.50        41.38096
675.92        41.82641
676.35         42.1295
676.77        42.23565
677.20        42.21139
677.62        42.11627
678.05         42.0465
678.47        42.03695
678.90        42.05465
679.32        42.10173
679.75        42.22283
680.17        42.41773
680.60         42.6252
681.02        42.78757
681.45        43.07425
681.87        43.01894
682.30        43.00008
682.72         42.9333
683.15        42.90887
683.57        42.95577
684.00        43.05582
684.42        43.18275
684.85        43.29371
685.27        43.37236
685.70        43.38715
686.12        43.36418
686.54        43.49494
686.97        43.72365
687.39        43.77308
687.82        43.64196
688.24         43.5946
688.66        43.64524
689.09        43.63204
689.51        43.58065
689.94        43.64542
690.36        43.84991
690.78        44.06427
691.21        44.18733
691.63        44.65568
692.06        44.33665
692.48        44.52863
692.90        44.84682
693.33        44.99297
693.75        44.95182
694.17        44.83153
694.60        44.72292
695.02        45.01355
695.44        45.07467
695.87         45.5374
696.29        46.03838
696.71        45.95221
697.14        45.37789
697.56         45.1272
697.98        45.26733
698.41        45.28663
698.83        45.18909
699.25        45.33134
699.68        45.64544
700.10        45.87871
700.52        45.97186
700.94        45.99945
701.37        45.99065
701.79        46.01204
702.21         46.0719
702.64        46.14009
703.06        46.19477
703.48        46.21442
703.90        46.20064
704.33        46.17484
704.75        46.15564
705.17         46.1583
705.59        46.18964
706.01        46.23606
706.44        46.31875
706.86        46.47706
707.28        46.68995
707.70         46.9854
708.12        47.28348
708.55        47.35456
708.97        47.22395
709.39        47.16806
709.81         47.2266
710.23        47.25645
710.66        47.27108
711.08        47.39397
711.50         47.5788
711.92        47.69968
712.34        47.73879
712.76        47.73375
713.19        47.70105
713.61        47.71074
714.03         47.7583
714.45        47.81581
714.87        47.87039
715.29        47.90715
715.71        47.91833
716.13        47.91637
716.56        47.87731
716.98        47.80247
717.40        47.68367
717.82         47.5459
718.24        47.44293
718.66        47.39453
719.08        47.51719
719.50        47.69759
719.92        47.91478
720.34        48.07979
720.76        48.16882
721.19        48.19778
721.61        48.18956
722.03        48.18531
722.45        48.22301
722.87        48.17793
723.29        48.06776
723.71        48.25087
724.13        48.73579
724.55        48.36845
724.97        48.65391
725.39        48.61778
725.81        48.71292
726.23        48.75391
726.65        48.76205
727.07        48.81656
727.49        48.91063
727.91        49.03494
728.33        49.16889
728.75        49.28141
729.17        49.36481
729.59        49.41592
730.01         49.4418
730.43        49.49592
730.85        49.59322
731.27        49.55046
731.69         49.6647
732.10        49.69395
732.52        49.73653
732.94        49.74746
733.36         49.7192
733.78        49.76386
734.20        49.91396
734.62        49.64493
735.04         49.8788
735.46        49.85239
735.88        49.83099
736.30        49.78778
736.72        49.77762
737.13        49.81724
737.55         49.8597
737.97        50.12277
738.39        50.48692
738.81        50.24677
739.23        49.60813
739.65         49.8149
740.06        50.69107
740.48        50.96291
740.90        50.56203
741.32        50.20499
741.74        50.02813
742.16        49.92523
742.57        49.95194
742.99        50.12173
743.41        50.37449
743.83        50.59939
744.25        50.75684
744.67        50.85495
745.08        50.91917
745.50        50.97696
745.92        51.04136
746.34        51.06395
746.75        51.03472
747.17        50.98639
747.59        50.92442
748.01        50.83002
748.42        50.73709
748.84        50.72709
749.26        50.78342
749.68        50.83949
750.09        50.89374
750.51        50.90786
750.93        50.94113
751.35        51.25903
751.76        51.75779
752.18        51.92611
752.60        51.72137
753.01        51.40272
753.43        51.09872
753.85         50.9294
754.27        50.93744
754.68        51.09489
755.10        51.33472
755.52        51.46975
755.93        51.52088
756.35        51.73574
756.77        51.99822
757.18        52.06258
757.60        51.94929
758.02        51.44535
758.43        50.85047
758.85        51.36988
759.26        52.78408
759.68        53.10022
760.10            52.4
760.51        52.17411
760.93         52.1244
761.34         52.0435
761.76        52.62753
762.18        52.41822
762.59        51.83728
763.01        51.67675
763.42         52.0096
763.84        52.35956
764.26        52.56248
764.67        52.17496
765.09        51.49122
765.50        51.59482
765.92        52.35422
766.33         52.5333
766.75        52.06832
767.16        51.84287
767.58        51.94191
768.00        52.16427
768.41         52.4868
768.83        52.77861
769.24        52.92783
769.66        52.93477
770.07        52.77943
770.49        52.36993
770.90         51.8622
771.32        51.82803
771.73        52.23895
772.15        52.47192
772.56        52.50589
772.97        52.69144
773.39         52.9931
773.80        53.23699
774.22        53.34888
774.63        53.34599
775.05        53.20848
775.46        53.02284
775.88        52.80429
776.29        52.52403
776.70        52.27581
777.12        52.24658
777.53        52.47892
777.95        52.90334
778.36        53.37961
778.77         53.6465
779.19        53.64498
779.60        53.45515
780.02        53.19598
780.43        53.09899
780.84        53.23206
781.26        53.40363
781.67        53.57285
782.09         53.9305
782.50        54.35291
782.91        54.22358
783.33        53.55107
783.74        53.79307
784.15        53.47378
784.57        53.49803
784.98         53.4275
785.39        53.44515
785.81        53.54211
786.22        53.72783
786.63        53.90437
787.04        53.96152
787.46        53.88105
787.87        53.68093
788.28        53.48452
788.70        53.45357
789.11         53.6026
789.52        53.93514
789.93        54.32052
790.35        54.42936
790.76        54.27183
791.17        54.14115
791.58        54.11032
792.00        54.05666
792.41        54.01165
792.82        54.12399
793.23        54.36354
793.65        54.40586
794.06         54.3384
794.47        54.66475
794.88        55.18143
795.29         55.2435
795.71        54.79587
796.12        54.15418
796.53        53.54482
796.94        53.31467
797.35        53.56436
797.76        54.07298
798.18        54.69209
798.59         55.0597
799.00        55.07336
799.41        54.78222
799.82        54.36761
800.23         54.1526
800.64        54.21695
801.06        54.42738
801.47        54.71637
801.88        54.88096
802.29         54.8531
802.70        54.70521
803.11        54.50231
803.52        54.33281
803.93        54.23682
804.34        54.19045
804.75        54.18184
805.17        54.19745
805.58        54.24598
805.99        54.29795
806.40        54.36966
806.81        54.50975
807.22        54.68715
807.63        54.82777
808.04         54.8896
808.45        54.84554
808.86        54.68709
809.27        54.40787
809.68        54.10949
810.09        53.98753
810.50        54.08931
810.91        54.36084
811.32         54.6982
811.73        54.92307
812.14        54.97651
812.55        54.90512
812.96        54.76357
813.37          54.652
813.78        54.61233
814.19        54.61572
814.60        54.64193
815.01        54.66449
815.42        54.67645
815.83        54.69221
816.24         54.7329
816.65        54.82546
817.05        54.97144
817.46        55.12469
817.87        55.26476
818.28         55.3277
818.69        55.30446
819.10        55.21358
819.51        55.09948
819.92        55.04804
820.33        55.07949
820.74        55.15285
821.14         55.2362
821.55        55.29737
821.96        55.31319
822.37        55.31772
822.78         55.2701
823.19        55.09734
823.60        54.80788
824.00        54.43833
824.41          54.113
824.82        54.09562
825.23        54.43136
825.64        55.04344
826.04        55.75447
826.45        56.17786
826.86        56.22652
827.27         56.0014
827.68        55.63376
828.08        55.37347
828.49        55.27195
828.90        55.26621
829.31        55.35368
829.72        55.53273
830.12        55.80247
830.53        56.13689
830.94        56.44351
831.35        56.50887
831.75        56.30099
832.16        55.83314
832.57         55.2963
832.97        54.98426
833.38        54.97092
833.79         55.1731
834.20        55.44504
834.60        55.54523
835.01        55.42815
835.42        55.18012
835.82        54.90641
836.23        54.73601
836.64        54.72356
837.04         54.8241
837.45         54.9694
837.86        55.14335
838.26        55.32478
838.67        55.49794
839.08        55.59903
839.48        55.50423
839.89        55.20255
840.29        54.71132
840.70        54.20074
841.11        53.88196
841.51        53.82424
841.92        53.99466
842.33         54.2424
842.73        54.30508
843.14        54.09056
843.54        53.68756
843.95        53.35165
844.35        53.51902
844.76        54.22777
845.17         55.3418
845.57        56.50799
845.98        56.99822
846.38        56.66812
846.79        55.75915
847.19        54.63411
847.60        53.87416
848.00        53.63771
848.41        53.72479
848.81        54.08103
849.22        54.52406
849.62        54.99798
850.03        55.53288
850.43        55.98875
850.84        56.02368
851.24        55.61745
851.65        54.82047
852.05        53.94836
852.46        53.54887
852.86        53.71216
853.27        54.27021
853.67        54.90803
854.07        55.32983
854.48         55.4179
854.88        55.32903
855.29        55.00993
855.69        54.56335
856.10        54.00446
856.50         53.3714
856.90        52.82425
857.31        52.61631
857.71        52.81576
858.12        53.35291
858.52        54.07159
858.92        54.51154
859.33        54.51279
859.73        54.19158
860.13        53.76225
860.54        53.61017
860.94        53.85588
861.34        54.36813
861.75        54.87708
862.15        55.01986
862.55        54.66934
862.96         53.9719
863.36        53.19493
863.76        52.77772
864.17          52.827
864.57        53.23898
864.97        53.74592
865.38        53.91072
865.78        53.65608
866.18        53.07587
866.58        52.44326
866.99        52.22585
867.39        52.54689
867.79         53.2314
868.19        53.93793
868.60         54.1309
869.00        53.70561
869.40         52.8473
869.80        51.87258
870.21        51.32888
870.61        51.40453
871.01        51.88902
871.41        52.54819
871.81        53.04377
872.22        53.26221
872.62        53.34982
873.02        53.36646
873.42        53.40685
873.82        53.51509
874.22         53.6273
874.63        53.77821
875.03        54.02987
875.43         54.3764
875.83        54.77938
876.23        55.14876
876.63        55.31286
877.03         55.2412
877.44        55.03808
877.84        54.70341
878.24        54.27314
878.64         53.7971
879.04        53.24216
879.44        52.83319
879.84        52.89519
880.24        53.43432
880.64        54.37607
881.04        55.25767
881.44        55.24895
881.84        54.20964
882.24        52.47542
882.65        50.72536
883.05        49.85049
883.45        50.06559
883.85        51.09963
884.25        52.54491
884.65         53.6359
885.05        54.06859
885.45        54.04945
885.85        53.78637
886.25        53.60566
886.65        53.61275
887.05        53.66895
887.45        53.70582
887.85        53.65088
888.25        53.48481
888.65        53.28027
889.04        53.07589
889.44        52.92872
889.84        52.84688
890.24         52.8214
890.64        52.84011
891.04        52.88848
891.44         52.9572
891.84        53.04371
892.24        53.16071
892.64        53.32494
893.04         53.5417
893.44        53.81577
893.83        54.11835
894.23        54.32958
894.63        54.44596
895.03        54.45434
895.43        54.45465
895.83        54.61526
896.23        54.94738
896.63        55.39721
897.02        55.74912
897.42        55.65081
897.82        55.06757
898.22         54.1455
898.62        53.18895
899.01        52.60774
899.41        52.50607
899.81         52.7878
900.21        53.24919
900.61        53.49612
901.00        53.39454
901.40        53.09935
901.80        52.83768
902.20        52.94377
902.59        53.50015
902.99         54.3631
903.39        55.30487
903.79        55.82828
904.18        55.75158
904.58        55.25085
904.98        54.62654
905.38        54.29208
905.77        54.32844
906.17        54.62693
906.57        55.00924
906.96        55.21195
907.36        55.11711
907.76        54.82847
908.15        54.48615
908.55        54.24895
908.95        54.20093
909.34        54.27798
909.74        54.39024
910.14        54.37534
910.53        54.20395
910.93        53.95707
911.33        53.75554
911.72        53.79782
912.12        54.11714
912.52         54.6314
912.91        55.21535
913.31        55.65078
913.70        55.88794
914.10        55.92813
914.49        55.85536
914.89        55.75935
915.29        55.69842
915.68        55.65902
916.08        55.59302
916.47        55.37397
916.87        55.02307
917.26        54.55375
917.66        54.16074
918.05        54.12694
918.45        54.46045
918.84        55.11981
919.24        55.73755
919.64        55.74488
920.03        55.02744
920.42        53.79921
920.82        52.55117
921.21        51.86384
921.61        51.85649
922.00         52.3862
922.40        53.15118
922.79        53.67442
923.19        53.75266
923.58        53.54351
923.98         53.2774
924.37        53.27441
924.77        53.61198
925.16        54.18394
925.55        54.79893
925.95         55.1266
926.34        55.09192
926.74        54.78546
927.13        54.37878
927.52        54.11866
927.92        54.07113
928.31        54.14553
928.70        54.25163
929.10        54.22704
929.49        54.04461
929.89        53.78564
930.28        53.51841
930.67        53.30467
931.07        53.16811
931.46        53.08763
931.85        53.12112
932.24        53.38788
932.64        53.86097
933.03        54.54731
933.42        55.21249
933.82        55.48587
934.21        55.30466
934.60        54.76085
934.99        54.13307
935.39        53.82977
935.78        53.93934
936.17        54.32797
936.56        54.79686
936.96         55.0172
937.35        54.92142
937.74        54.60378
938.13        54.12746
938.53        53.57814
938.92        53.02032
939.31        52.51147
939.70        52.15461
940.09        52.11823
940.49         52.3753
940.88        52.84045
941.27        53.49114
941.66        54.28035
942.05        55.09509
942.44        55.94278
942.84        56.37037
943.23        55.65046
943.62         53.8383
944.01        51.34023
944.40        49.03619
944.79        48.03205
945.18        48.47372
945.57        50.07338
945.97         52.1904
946.36        53.69541
946.75         53.9959
947.14        53.42453
947.53        52.45318
947.92        51.87337
948.31        51.91653
948.70        52.24473
949.09        52.72651
949.48        53.18508
949.87        53.50887
950.26        53.84382
950.65        53.97692
951.04        53.51659
951.43        52.47671
951.82        51.00087
952.21        49.61108
952.60         49.1097
952.99        49.63982
953.38        50.96748
953.77        52.56802
954.16        53.51473
954.55        53.50898
954.94        52.79009
955.33        51.75676
955.72        51.08271
956.11        50.98449
956.50        51.26932
956.89        51.68781
957.28        51.84302
957.66        51.63984
958.05        51.23225
958.44        50.86199
958.83           50.88
959.22        51.35366
959.61        52.12249
960.00         52.9422
960.39        53.40377
960.78        53.37838
961.16        53.01679
961.55        52.45228
961.94        51.87727
962.33        51.39584
962.72        50.94755
963.11        50.67231
963.49        50.81721
963.88        51.35836
964.27        52.25341
964.66        53.19173
965.04        53.65586
965.43        53.46142
965.82        52.75493
966.21        51.85503
966.60        51.30967
966.98        51.30309
967.37        51.70059
967.76        52.25277
968.15         52.5275
968.53         52.4218
968.92        52.02336
969.31        51.64536
969.69        51.78532
970.08        52.50821
970.47        53.62769
970.86        54.70978
971.24        55.08072
971.63        54.59522
972.02        53.51526
972.40          52.264
972.79         51.5521
973.17        51.67191
973.56        52.32687
973.95        53.35549
974.33        54.51757
974.72        55.61451
975.11        56.74881
975.49        57.76855
975.88        58.26554
976.26        58.11652
976.65        57.32068
977.04        56.13093
977.42        54.89775
977.81        53.76825
978.19        52.70465
978.58         51.7594
978.96        50.81768
979.35        49.90274
979.74        49.02491
980.12        48.37349
980.51        48.13739
980.89        48.41396
981.28        49.17142
981.66        50.06945
982.05        50.47511
982.43        50.25884
982.82        49.54578
983.20        48.95155
983.59        49.46806
983.97        51.33651
984.35        54.25333
984.74        57.25387
985.12        58.73717
985.51        58.04145
985.89        55.80847
986.28        53.02437
986.66        50.76247
987.04          49.413
987.43        48.58885
987.81        48.30251
988.20        48.53746
988.58        49.25485
988.96        50.55032
989.35        51.88349
989.73        52.47933
990.12        52.13474
990.50        50.96468
990.88        49.67205
991.27         49.3672
991.65        50.29713
992.03         52.3121
992.42        54.47311
992.80        55.09231
993.18        53.53316
993.56        50.60995
993.95        47.83021
994.33        46.67895
994.71        47.46928
995.10        49.66606
995.48        52.61093
995.86        54.43996
996.24        54.30859
996.63         52.8927
997.01        50.92274
997.39        49.30412
997.77        48.32529
998.15        47.62249
998.54        47.40168
998.92        48.06456
999.30        49.65697
999.68        52.19922
1000.06        54.86502
1000.45         56.0204
1000.83        55.37252
1001.21        53.27867
1001.59        50.87318
1001.97        49.75583
1002.35        50.27731
1002.73         52.0936
1003.12        54.45193
1003.50        55.99161
1003.88        56.18827
1004.26        55.41255
1004.64        54.48627
1005.02        54.74047
1005.40        56.39722
1005.78        58.86753
1006.16        61.18661
1006.54        61.79608
1006.92        60.26183
1007.30        57.17448
1007.69        53.14899
1008.07        49.64334
1008.45         47.4894
1008.83        46.29384
1009.21        46.16172
1009.59        47.19818
1009.97        49.28681
1010.35        52.67402
1010.73        56.41666
1011.11         58.0583
1011.49        56.55238
1011.86        52.20689
1012.24         47.3252
1012.62        45.44781
1013.00        47.60011
1013.38        53.51668
1013.76        61.12195
1014.14        64.44805
1014.52        61.51981
1014.90        55.27661
1015.28        49.35846
1015.66        46.98194
1016.04        48.30866
1016.41        52.55089
1016.79        58.50469
1017.17        63.26073
1017.55         64.6207
1017.93        63.17094
1018.31        59.27407
1018.69        54.44022
1019.06        50.11368
1019.44        46.56542
1019.82        44.30362
1020.20        43.68736
1020.58        44.44858
1020.95         46.6034
1021.33         49.6083
1021.71        51.67871
1022.09        51.85217
1022.46        50.23689
1022.84        48.16602
1023.22        47.29791
1023.60        48.03665
1023.97         50.3706
1024.35        53.01605
1024.73        52.30119
