SpectraSmart Spectrum 2.9.0.0
--------- Device Information -----------
Spectrum Name :  反射率_0
Saving Time :  2024/05/03 20:53:37
Spectro-Module Model Name : SE2030-DUVN
Spectro-Module Serial Number : OS361AC55029948
Wavelength Start : 200
Wavelength End : 1025
Wavelength Unit : Wavelength(nm)
Spectrum Unit : Reflectance(%)
-----------Spectrum Setting ------------
Integration Time : 20ms
Average : 10
Boxcar : 0
Background removal :  enabled
linearity correction :  enabled
SC :  disabled
Intensity correction :  disabled
DWT denoise :  enabled
savitzky-golay :  disabled
FFT :  disabled
Running average :  disabled
Kalman :  disabled
High pass :  disabled
---------------BEGIN--------------------
Wavelength(nm)             Reflectance(%)
200.29               0
200.75        81.10478
201.21        164.1219
201.67       -5414.623
202.13       -190.1773
202.58       -103.1989
203.04       -69.49677
203.50       -54.05302
203.96       -54.26002
204.42       -74.53307
204.88       -168.0447
205.34        3244.432
205.80        295.5976
206.26        283.4229
206.72        47917.11
207.18       -109.3605
207.64       -59.80254
208.10         -81.724
208.55       -210.0207
209.01       -1516.633
209.47        -2069.76
209.93       -251.6066
210.39       -70.33936
210.85       -22.05667
211.31       -8.253024
211.77       -9.036972
212.23       -24.92787
212.69        -77.1189
213.14       -130.8168
213.60       -80.03548
214.06       -36.70105
214.52       -19.51604
214.98       -18.66435
215.44       -33.00877
215.90       -98.88798
216.36        804.8702
216.81        152.2021
217.27        115.6817
217.73        115.5667
218.19        191.2241
218.65        2418.543
219.11         274.425
219.57        149.1966
220.02        144.0118
220.48        249.5197
220.94       -180.4938
221.40       -16.03267
221.86        9.250385
222.32        15.14323
222.77        13.77496
223.23        7.465145
223.69       -3.679231
224.15       -10.60041
224.61       -5.767617
225.06        3.212239
225.52        10.63786
225.98        15.26344
226.44        18.20035
226.90          20.698
227.36        22.65821
227.81        22.91861
228.27         21.2528
228.73        18.70234
229.19        16.31241
229.65        14.81861
230.10         14.1696
230.56        14.15009
231.02        14.79567
231.48         16.2613
231.93        18.33543
232.39        20.81055
232.85        23.21221
233.31        24.82175
233.77        25.54202
234.22        25.59962
234.68        25.39159
235.14        25.58474
235.60         26.4178
236.05        27.76319
236.51         29.3931
236.97         30.8141
237.43        31.69285
237.88        32.30098
238.34          32.795
238.80        33.28798
239.26        33.90149
239.71        36.89986
240.17        39.02789
240.63        42.60775
241.08        44.33296
241.54        42.95867
242.00        40.09952
242.46        37.95512
242.91        36.69598
243.37         35.2882
243.83        32.11612
244.28        22.64486
244.74        6.951119
245.20       -8.333753
245.66       -17.24951
246.11       -19.97043
246.57       -18.80224
247.03       -14.90816
247.48       -10.89502
247.94       -9.795869
248.40       -11.36872
248.85       -15.04563
249.31       -18.84215
249.77       -19.00956
250.22       -15.24607
250.68       -10.26318
251.14       -5.251087
251.59      -0.2317514
252.05        5.969445
252.51        15.36407
252.96        28.70329
253.42        41.67492
253.88        47.66399
254.33        46.49342
254.79        42.67423
255.25        40.29621
255.70        39.63417
256.16        39.89309
256.62         40.6296
257.07        41.70754
257.53        43.25351
257.99        44.92991
258.44         46.2804
258.90        47.17332
259.35         47.2692
259.81         47.1134
260.27        46.61683
260.72        45.73957
261.18        44.87087
261.63        43.88021
262.09        43.08735
262.55        42.52139
263.00         42.0752
263.46        41.74518
263.91        41.37065
264.37         40.9659
264.83        40.47944
265.28        39.93914
265.74        39.36051
266.19        38.55287
266.65        37.62171
267.11        36.57278
267.56        35.59541
268.02        35.03511
268.47         34.8785
268.93        35.03234
269.38        35.22545
269.84        34.99702
270.30        34.27531
270.75        33.22594
271.21        32.17372
271.66        31.49314
272.12        31.25995
272.57        31.29297
273.03        31.40379
273.48         31.3256
273.94        30.97856
274.39        30.45587
274.85        29.81136
275.31        29.02655
275.76        28.14381
276.22        27.24342
276.67        26.42361
277.13        25.91128
277.58        25.66226
278.04        25.62345
278.49         25.6269
278.95        25.46587
279.40        25.06768
279.86        24.57534
280.31          24.034
280.77        23.60158
281.22        23.25119
281.68          22.975
282.13        22.73218
282.59        22.53349
283.04         22.3557
283.50        22.21232
283.95        22.08723
284.41        21.97356
284.86        21.85547
285.32        21.76475
285.77        21.66379
286.22        21.55199
286.68        21.44273
287.13        21.31161
287.59        21.22985
288.04        21.25951
288.50        21.41568
288.95        21.64854
289.41        21.87616
289.86        21.92529
290.32        21.79365
290.77        21.53522
291.22         21.2752
291.68        21.18316
292.13        21.29378
292.59        21.58166
293.04        21.98087
293.50        22.39537
293.95        22.77937
294.40        23.16005
294.86        23.58516
295.31        24.12646
295.77        24.79714
296.22        25.55571
296.68        26.32111
297.13        26.96176
297.58        27.42812
298.04        27.77028
298.49         28.0375
298.95        28.34581
299.40        28.71502
299.85        29.12217
300.31        29.57281
300.76        30.04428
301.21        30.53488
301.67        31.05954
302.12        31.56292
302.58        31.97605
303.03          32.271
303.48        32.46815
303.94        32.66133
304.39        32.94184
304.84        33.34166
305.30        33.82057
305.75        34.27165
306.20        34.56078
306.66        34.67213
307.11        34.63765
307.57        34.54975
308.02        34.47922
308.47        34.47182
308.93        34.50412
309.38        34.55075
309.83        34.61144
310.29         34.6778
310.74        34.74833
311.19        34.79539
311.65        34.76844
312.10        34.64928
312.55         34.4455
313.00        34.20527
313.46        34.00929
313.91        33.86492
314.36        33.77163
314.82        33.67533
315.27        33.47582
315.72         33.1685
316.18        32.78731
316.63        32.43095
317.08        32.25814
317.53        32.29451
317.99        32.48137
318.44        32.69955
318.89        32.73563
319.35        32.53419
319.80        32.16161
320.25         31.7233
320.70         31.3936
321.16        31.21346
321.61        31.12819
322.06        31.07409
322.51        30.95191
322.97         30.7279
323.42        30.45343
323.87        30.14101
324.32        29.80771
324.78        29.46687
325.23        29.11805
325.68        28.79531
326.13        28.56433
326.59        28.42644
327.04        28.38339
327.49        28.37088
327.94        28.28688
328.39        28.09957
328.85        27.82242
329.30        27.51473
329.75         27.2547
330.20         27.0704
330.66        26.93106
331.11         26.8159
331.56        26.65337
332.01        26.42889
332.46        26.16997
332.92         25.9064
333.37        25.71841
333.82        25.61335
334.27         25.5649
334.72        25.54736
335.17        25.51918
335.63        25.45235
336.08        25.37318
336.53        25.26405
336.98        25.10803
337.43        24.91095
337.88        24.68209
338.34        24.45894
338.79        24.30627
339.24        24.24038
339.69        24.24784
340.14        24.29916
340.59        24.34269
341.05        24.35756
341.50        24.35357
341.95        24.33682
342.40        24.32442
342.85        24.31821
343.30        24.30564
343.75        24.27089
344.20        24.19491
344.66        24.08339
345.11        23.94334
345.56        23.79921
346.01         23.6816
346.46        23.60241
346.91        23.55747
347.36        23.53957
347.81        23.53513
348.26         23.5398
348.72        23.55846
349.17        23.58559
349.62        23.62132
350.07        23.65785
350.52        23.67886
350.97        23.68053
351.42        23.66244
351.87        23.61891
352.32        23.55167
352.77        23.43693
353.22        23.23728
353.67        22.96281
354.13           22.65
354.58        22.34909
355.03        22.15353
355.48        22.08359
355.93        22.10934
356.38        22.19397
356.83        22.27788
357.28        22.33225
357.73        22.36464
358.18        22.36182
358.63        22.30475
359.08        22.19664
359.53        22.04623
359.98        21.87436
360.43        21.72016
360.88         21.5941
361.33        21.47945
361.78        21.38835
362.23        21.33496
362.68        21.31179
363.13         21.3185
363.58        21.29022
364.03        21.12358
364.48        20.81079
364.93        20.39075
365.38        19.97459
365.83         19.7333
366.28        19.70324
366.73        19.83465
367.18        20.02422
367.63        20.09971
368.08        20.01099
368.53        19.80604
368.98        19.56254
369.43        19.40008
369.88        19.34759
370.33        19.36417
370.78        19.38658
371.23        19.31567
371.68        19.12769
372.13        18.86155
372.58        18.58586
373.03        18.39745
373.48        18.31809
373.93        18.31854
374.38        18.33817
374.83        18.27906
375.28         18.1178
375.72        17.88083
376.17        17.64528
376.62        17.49084
377.07         17.4312
377.52        17.43437
377.97        17.44885
378.42        17.39474
378.87        17.25671
379.32        17.07011
379.77        16.87815
380.22        16.73761
380.67        16.65979
381.11        16.62552
381.56        16.61155
382.01        16.59272
382.46        16.55926
382.91        16.52372
383.36        16.48114
383.81        16.42208
384.26        16.34611
384.71        16.24964
385.15        16.14901
385.60        16.09082
386.05         16.0734
386.50        16.08189
386.95        16.08255
387.40        16.02143
387.85        15.89681
388.29        15.73335
388.74        15.57546
389.19        15.44835
389.64        15.36063
390.09        15.29344
390.54        15.26874
390.98        15.30619
391.43        15.40184
391.88        15.57179
392.33        15.73578
392.78        15.70003
393.23        15.49801
393.67        15.32331
394.12         15.2333
394.57        15.15712
395.02        15.10629
395.47        15.13022
395.91        15.19296
396.36        15.18379
396.81        15.09224
397.26         14.9642
397.71        14.80686
398.15        14.64655
398.60         14.5195
399.05        14.33367
399.50        14.14682
399.95        14.20308
400.39         14.4363
400.84        14.42941
401.29        14.19597
401.74        14.10101
402.18        14.15834
402.63        14.15952
403.08        14.12156
403.53        14.05738
403.97        14.16934
404.42        14.25414
404.87        14.33588
405.32        14.35481
405.76        14.29784
406.21        14.19045
406.66        14.05796
407.11        13.94391
407.55        13.86559
408.00        13.80773
408.45        13.76648
408.90        13.73077
409.34        13.69625
409.79        13.66958
410.24        13.65109
410.68        13.63589
411.13        13.62398
411.58        13.61278
412.03        13.59819
412.47        13.57977
412.92        13.55201
413.37        13.51373
413.81        13.47086
414.26        13.44605
414.71        13.43567
415.15        13.44481
415.60        13.44196
416.05        13.38798
416.49         13.2816
416.94        13.14228
417.39        13.02165
417.83        12.99301
418.28        13.06675
418.73        13.21349
419.17        13.38193
419.62        13.47709
420.07        13.46912
420.51        13.38135
420.96        13.24811
421.41        13.11188
421.85        12.98563
422.30        12.86964
422.74        12.75898
423.19        12.68402
423.64        12.63527
424.08        12.59541
424.53        12.55656
424.98        12.55816
425.42        12.60732
425.87        12.64962
426.31        12.68068
426.76        12.77505
427.21        12.88836
427.65        12.84404
428.10        12.68485
428.54        12.61275
428.99        12.65043
429.44        12.76669
429.88        12.87467
430.33        12.76871
430.77        12.50504
431.22        12.37724
431.66        12.41481
432.11        12.50382
432.56        12.59478
433.00         12.6831
433.45        12.65712
433.89        12.49947
434.34        11.88648
434.78         11.8972
435.23        12.39603
435.67        12.55866
436.12        12.36896
436.57        12.28335
437.01        12.33523
437.46        12.34184
437.90        12.30642
438.35        12.28159
438.79        12.25957
439.24        12.21935
439.68        12.16697
440.13         12.1376
440.57        12.12347
441.02         12.0979
441.46        12.05717
441.91        12.00523
442.35        11.94292
442.80        11.95748
443.24        12.00992
443.69        11.96234
444.13        11.83549
444.58        11.78742
445.02        11.82689
445.47        11.86973
445.91        11.89427
446.36        11.91127
446.80         11.9121
447.24         11.8972
447.69        11.87978
448.13        11.88102
448.58        11.90566
449.02        11.94166
449.47        11.97843
449.91        11.99294
450.36         11.9831
450.80        11.95627
451.25        11.91817
451.69        11.87293
452.13        11.82561
452.58        11.77446
453.02        11.73006
453.47        11.71473
453.91        11.73035
454.36        11.77209
454.80          11.812
455.24        11.82123
455.69        11.79907
456.13        11.71403
456.58        11.60173
457.02        11.65292
457.46        11.68794
457.91        11.72683
458.35        11.70426
458.79        11.72808
459.24        11.77714
459.68        11.72414
460.13         11.6084
460.57        11.54582
461.01        11.55462
461.46        11.57366
461.90        11.58643
462.34        11.58022
462.79        11.54642
463.23        11.49032
463.68        11.43699
464.12        11.41471
464.56        11.42804
465.01        11.49754
465.45        11.57527
465.89        11.55838
466.34        11.47323
466.78        11.44658
467.22        11.49145
467.67        11.52454
468.11        11.53905
468.55        11.54263
468.99         11.5386
469.44        11.54748
469.88        11.57194
470.32        11.58572
470.77        11.59862
471.21        11.64552
471.65        11.72349
472.10        11.81533
472.54        11.89301
472.98        11.92149
473.42        11.89489
473.87        11.83499
474.31        11.75082
474.75        11.66723
475.20        11.60246
475.64        11.54713
476.08        11.51614
476.52        11.54774
476.97        11.64452
477.41        11.76174
477.85        11.85818
478.29        12.09219
478.74        12.04651
479.18        12.14306
479.62        12.24856
480.06        12.28673
480.50        12.25398
480.95        12.20288
481.39        12.16454
481.83        12.17184
482.27          12.245
482.72         12.3939
483.16        12.56271
483.60        12.68504
484.04        12.75718
484.48        12.68015
484.93        12.58724
485.37        12.87073
485.81         13.4382
486.25        13.54473
486.69        13.43321
487.14        13.15187
487.58        13.69739
488.02        13.51809
488.46        13.58911
488.90        13.45653
489.34        13.25761
489.79        13.30286
490.23        13.52823
490.67        13.89305
491.11        14.26175
491.55        14.30444
491.99        14.08739
492.43        14.08692
492.88        14.33321
493.32        14.52596
493.76        14.63027
494.20         14.7527
494.64        14.89173
495.08        15.01885
495.52        15.13826
495.96         15.2684
496.41        15.40894
496.85        15.52768
497.29        15.63647
497.73        15.80872
498.17        16.01654
498.61        16.14487
499.05        16.18263
499.49        16.17511
499.93        16.16414
500.37        16.23267
500.82        16.37871
501.26        16.50046
501.70           16.59
502.14        16.72375
502.58        16.88478
503.02        17.00036
503.46        17.06174
503.90        17.09068
504.34        17.10501
504.78        17.13441
505.22        17.19028
505.66        17.26031
506.10        17.32712
506.54        17.40352
506.98        17.49279
507.42        17.52393
507.86        17.48661
508.30        17.74386
508.74        17.67783
509.18        17.78448
509.62        17.87057
510.06         17.9425
510.50        17.99341
510.94        18.03014
511.38        18.06565
511.82        18.10345
512.26        18.14555
512.70        18.18881
513.14        18.22087
513.58        18.22326
514.02        18.19367
514.46        18.13942
514.90        18.07889
515.34        18.04069
515.78        18.03493
516.22         18.0587
516.66        18.09559
517.10        18.11822
517.54        18.12028
517.98        18.10691
518.42         18.1011
518.86        18.14001
519.30        18.22611
519.74        18.34229
520.18        18.44796
520.62        18.47921
521.06        18.42227
521.50        18.29916
521.93        18.14903
522.37        18.03653
522.81        17.97917
523.25        17.95863
523.69        17.95661
524.13         17.9416
524.57        17.90561
525.01        17.86602
525.45         17.8236
525.89        17.77786
526.32        17.72962
526.76        17.67232
527.20        17.62598
527.64        17.62671
528.08        17.67418
528.52        17.75601
528.96        17.82084
529.40        17.78673
529.83        17.64018
530.27        17.41669
530.71        17.17944
531.15        17.02794
531.59        16.98581
532.03        17.02235
532.46        17.09428
532.90        17.13064
533.34         17.1102
533.78        17.05898
534.22        16.99215
534.66        16.92985
535.09        16.87703
535.53        16.82447
535.97         16.7793
536.41        16.74479
536.85        16.72098
537.28        16.75474
537.72        16.82119
538.16        16.77068
538.60        16.64992
539.04        16.69914
539.47        16.89323
539.91        16.99923
540.35        17.00526
540.79        17.05032
541.22        17.13265
541.66        17.19783
542.10        17.24858
542.54        17.27701
542.97        17.30867
543.41        17.45166
543.85        17.68125
544.29        17.85254
544.72        17.95228
545.16         18.0893
545.60        18.25826
546.04        18.39295
546.47        18.49909
546.91        18.62012
547.35        18.75907
547.79        18.91059
548.22        19.06667
548.66        19.21427
549.10        19.35816
549.53        19.54947
549.97        19.77247
550.41        19.95547
550.84        20.08586
551.28        20.20105
551.72        20.30701
552.15         20.3989
552.59        20.49396
553.03        20.58807
553.46        20.68485
553.90        20.81754
554.34        20.97889
554.77        21.13942
555.21        21.30165
555.65        21.48647
556.08        21.68344
556.52        21.87644
556.96        22.04205
557.39        22.16733
557.83        22.25613
558.27        22.28401
558.70        22.27611
559.14        22.32645
559.57        22.42344
560.01        22.47184
560.45        22.47781
560.88        22.52906
561.32        22.63921
561.75        22.74375
562.19        22.85702
562.63         22.9769
563.06        23.09151
563.50        23.27411
563.93        23.47715
564.37        23.46597
564.80        23.30968
565.24        23.40925
565.68        23.72381
566.11        23.89173
566.55        23.90575
566.98        23.95473
567.42        24.05495
567.85        24.21357
568.29        24.27238
568.72        24.37569
569.16        24.50349
569.60        24.65998
570.03        24.83086
570.47        25.04591
570.90        25.28089
571.34        25.38124
571.77        25.67082
572.21        25.70465
572.64        25.74168
573.08        25.73313
573.51         26.1796
573.95        26.27698
574.38        26.22191
574.82         26.0944
575.25        26.47043
575.69        26.68837
576.12        26.47753
576.56        26.49158
576.99        26.58581
577.42        26.96386
577.86        26.67651
578.29        26.86932
578.73        26.60197
579.16        26.57397
579.60        26.48337
580.03        26.43078
580.47        26.44486
580.90        26.05376
581.33        25.71514
581.77        26.17883
582.20        26.17063
582.64        25.82915
583.07        25.98917
583.51        25.70435
583.94        25.42329
584.37         25.1903
584.81        25.10459
585.24        24.88725
585.68        25.01978
586.11        24.64619
586.54        24.83899
586.98        24.70256
587.41        24.50241
587.85        24.64143
588.28        24.51038
588.71        24.49802
589.15        24.27338
589.58        24.54942
590.01         24.4008
590.45        24.32356
590.88        24.11685
591.31         24.1325
591.75         24.3634
592.18        24.39157
592.61        24.18884
593.05        24.49011
593.48        24.78475
593.91        24.54101
594.35        24.68567
594.78        24.73117
595.21         24.9805
595.65        25.04862
596.08        24.91344
596.51        25.35859
596.94         25.3688
597.38        25.60706
597.81        25.73651
598.24        26.00769
598.68         26.4918
599.11        26.27786
599.54        27.23369
599.97        27.18925
600.41        27.64134
600.84        27.87083
601.27         28.1622
601.70        28.41496
602.14        28.66543
602.57        29.07949
603.00        29.56558
603.43        30.19464
603.87        30.27488
604.30        30.67035
604.73        31.14617
605.16        31.61803
605.60         31.6765
606.03        32.00829
606.46        32.51344
606.89        32.69704
607.32        33.33216
607.76         33.6637
608.19         33.9748
608.62        34.32056
609.05        34.70818
609.48        34.95121
609.92        35.16528
610.35        35.31654
610.78        36.27605
611.21         36.7424
611.64        36.89273
612.07        37.06305
612.50        37.28386
612.94        37.43616
613.37        37.54308
613.80        37.78843
614.23        37.91178
614.66        38.15683
615.09        38.43775
615.52        38.75141
615.96        39.06758
616.39        39.32451
616.82        39.50242
617.25        39.71296
617.68        39.95411
618.11        39.96806
618.54        39.84353
618.97        40.21022
619.40        40.61132
619.84        40.99541
620.27        41.16789
620.70        41.26801
621.13        41.32996
621.56         41.2557
621.99        41.11424
622.42         41.2618
622.85        41.65877
623.28        41.48159
623.71        41.44175
624.14        41.47304
624.57        41.17822
625.00         41.2416
625.43         41.1987
625.86        41.24319
626.29        41.22414
626.72        41.30869
627.15        41.15182
627.58        40.99374
628.01        40.73911
628.44        40.59657
628.87        40.30669
629.30        39.98914
629.73         39.8033
630.16         39.5469
630.59        39.28849
631.02        39.04048
631.45        38.79897
631.88        38.53424
632.31        38.23614
632.74        37.90938
633.17        37.55374
633.60        37.17409
634.03        36.77896
634.46        36.36952
634.89        35.94831
635.32        35.53273
635.75        35.13066
636.18        34.67979
636.61         34.3042
637.04        33.93319
637.47        33.60335
637.89        33.29879
638.32        32.98885
638.75        32.67621
639.18        32.36431
639.61        31.93272
640.04        31.64226
640.47        31.32891
640.90        31.07375
641.33        30.86304
641.76         30.7005
642.18        30.59209
642.61        30.52187
643.04        30.49247
643.47        30.48649
643.90        30.47387
644.33          30.448
644.76          30.424
645.18        30.41972
645.61        30.42695
646.04        30.44995
646.47        30.55551
646.90        30.78331
647.33        30.82475
647.75        31.26389
648.18        31.62099
648.61        32.02483
649.04        32.39552
649.47        32.72424
649.89        33.00461
650.32        33.26044
650.75        33.63367
651.18        34.11507
651.61        34.52483
652.03        34.85579
652.46        35.34271
652.89        35.94418
653.32         36.2491
653.74        36.40533
654.17        37.04193
654.60        37.10412
655.03        38.28358
655.46        38.31633
655.88        38.26569
656.31        41.03872
656.74        44.30506
657.16        42.14531
657.59        40.19449
658.02         40.9063
658.45         41.9455
658.87        42.33634
659.30        41.84607
659.73        41.69148
660.15        42.29549
660.58        42.38799
661.01        42.77686
661.44        42.92746
661.86        43.06189
662.29        43.19618
662.72        43.45067
663.14        43.82342
663.57        43.97634
664.00        43.96052
664.42        44.16739
664.85        44.57884
665.27        44.80299
665.70        44.82741
666.13        44.92905
666.55        45.11845
666.98        45.23866
667.41         45.3059
667.83         45.4066
668.26        45.54051
668.69        45.69703
669.11        45.84604
669.54        45.91237
669.96        45.88713
670.39        45.86425
670.82        45.90438
671.24        45.92403
671.67        46.00669
672.09        46.49708
672.52        47.26356
672.94        47.50434
673.37        47.68002
673.80        47.45541
674.22        47.15057
674.65        47.02183
675.07        47.13179
675.50        47.38597
675.92        47.70475
676.35        47.83442
676.77        47.71249
677.20        47.96125
677.62        47.67014
678.05        47.75124
678.47        47.93481
678.90        48.19464
679.32        48.46959
679.75        48.72422
680.17         48.9459
680.60        49.09056
681.02        49.13767
681.45        49.33041
681.87        49.17717
682.30        49.16122
682.72        49.16269
683.15        49.18276
683.57        49.23652
684.00        49.35324
684.42        49.50636
684.85        49.62984
685.27        49.70687
685.70        49.70582
686.12        49.64728
686.54        49.74873
686.97        49.94908
687.39        49.90707
687.82        49.65687
688.24        49.61607
688.66         49.7826
689.09        49.82473
689.51        49.75021
689.94        49.82222
690.36        50.06543
690.78        50.26448
691.21        50.34367
691.63        50.90607
692.06        50.66785
692.48        51.06516
692.90         51.6096
693.33        51.87659
693.75        51.82982
694.17        51.63227
694.60        51.40687
695.02        51.63503
695.44        51.65228
695.87        52.06556
696.29        52.52069
696.71        52.57257
697.14        52.25369
697.56        52.05308
697.98        52.06488
698.41        52.07675
698.83        52.09702
699.25        52.30962
699.68        52.63057
700.10        52.87634
700.52        52.98557
700.94        53.01704
701.37        53.00361
701.79        53.01935
702.21        53.07464
702.64        53.14274
703.06        53.20665
703.48        53.24745
703.90        53.26873
704.33        53.29516
704.75        53.33538
705.17        53.38477
705.59        53.44286
706.01        53.49691
706.44        53.58752
706.86        53.76988
707.28         54.0189
707.70        54.41213
708.12        54.82983
708.55        54.83672
708.97        54.51798
709.39         54.5024
709.81        54.78999
710.23        54.86237
710.66        54.71179
711.08        54.67844
711.50        54.78056
711.92        54.90173
712.34        55.03931
712.76        55.22059
713.19        55.40187
713.61        55.55458
714.03        55.63878
714.45        55.65477
714.87        55.62042
715.29        55.57008
715.71        55.51399
716.13        55.45516
716.56        55.39452
716.98        55.31506
717.40        55.19606
717.82        55.19705
718.24        55.37806
718.66        55.07897
719.08        55.48967
719.50        55.62624
719.92        55.81689
720.34        55.99125
720.76        56.14138
721.19        56.25739
721.61        56.31263
722.03        56.29863
722.45        56.24611
722.87        56.03715
723.29        55.74636
723.71        55.87106
724.13         56.4408
724.55        56.09174
724.97        56.53065
725.39          56.564
725.81        56.69715
726.23        56.73804
726.65        56.71952
727.07        56.74619
727.49        56.81827
727.91        56.91467
728.33        57.03731
728.75        57.19312
729.17        57.37378
729.59        57.58147
730.01        57.77422
730.43         57.8799
730.85        57.88851
731.27        57.81931
731.69        57.72837
732.10        57.71832
732.52        57.81198
732.94        57.94703
733.36        58.06472
733.78        58.13983
734.20          58.178
734.62        57.89508
735.04        58.02493
735.46        57.85016
735.88        57.67559
736.30        57.79161
736.72         58.1951
737.13        58.58607
737.55        58.79295
737.97        58.97892
738.39        59.08664
738.81        58.65408
739.23        57.94572
739.65         58.1163
740.06        58.97517
740.48        59.23925
740.90        58.83328
741.32        58.51301
741.74        58.40178
742.16        58.34064
742.57        58.37676
742.99        58.53242
743.41         58.7728
743.83        59.02562
744.25         59.2586
744.67        59.47146
745.08        59.65755
745.50         59.7719
745.92        59.82056
746.34        59.80043
746.75        59.72725
747.17         59.6501
747.59        59.58313
748.01        59.51118
748.42        59.44604
748.84        59.41741
749.26        59.39495
749.68        59.35802
750.09        59.33765
750.51          59.256
750.93        59.23556
751.35        59.75161
751.76        60.61122
752.18        60.92504
752.60        60.60478
753.01         60.0999
753.43        59.62549
753.85        59.38221
754.27        59.45059
754.68        59.75307
755.10        60.17817
755.52        60.47572
755.93        60.58223
756.35        60.72613
756.77        60.91298
757.18        60.54288
757.60        60.81119
758.02         60.4671
758.43        59.98897
758.85        60.61394
759.26        61.72273
759.68        61.93143
760.10         60.9892
760.51        61.38106
760.93        61.43828
761.34        60.75628
761.76         61.2953
762.18        60.84711
762.59        60.34327
763.01        60.55962
763.42        61.41047
763.84        61.67174
764.26         61.2674
764.67        60.67987
765.09        60.20225
765.50        60.39872
765.92         61.1271
766.33        61.17959
766.75        60.47097
767.16        60.76204
767.58        60.72578
768.00        61.19981
768.41        61.68547
768.83        62.21612
769.24        62.57272
769.66        62.34567
770.07        61.68842
770.49        61.17184
770.90        60.94197
771.32        61.04155
771.73        61.39423
772.15          61.637
772.56         61.7556
772.97        61.93098
773.39        62.09075
773.80        62.23119
774.22        62.34333
774.63        61.78375
775.05        61.85039
775.46        61.67572
775.88        61.65246
776.29        61.73151
776.70        61.88278
777.12        62.03245
777.53        62.16017
777.95        62.28506
778.36        62.39309
778.77        62.43141
779.19        62.40245
779.60        62.31857
780.02        62.23865
780.43        62.27189
780.84         62.4416
781.26        62.67664
781.67        62.94518
782.09        63.15525
782.50         63.2602
782.91        63.22776
783.33        63.07278
783.74        62.95644
784.15        62.88051
784.57        62.79113
784.98        62.71782
785.39        62.72127
785.81         62.8093
786.22         62.9756
786.63        63.15718
787.04        63.24284
787.46        63.22382
787.87         63.1008
788.28        62.98021
788.70        62.98302
789.11           63.11
789.52        63.42144
789.93         63.8008
790.35        63.82621
790.76        63.57904
791.17        63.61428
791.58        63.92156
792.00        64.02766
792.41        63.94992
792.82        63.93115
793.23        63.99143
793.65        64.17946
794.06        64.51066
794.47        64.64081
794.88        64.43214
795.29        64.97583
795.71        64.24993
796.12        63.95658
796.53        63.61537
796.94        63.23428
797.35        62.98377
797.76        63.46668
798.18         64.4385
798.59        64.86115
799.00        64.57481
799.41        64.08787
799.82        63.62731
800.23        63.37093
800.64         63.4113
801.06        63.65384
801.47        64.04034
801.88        64.36272
802.29        64.53456
802.70        64.59801
803.11        64.58416
803.52        64.54137
803.93        64.49766
804.34        64.44027
804.75        64.34902
805.17        64.22453
805.58        64.10533
805.99        63.90749
806.40        63.72907
806.81        63.90839
807.22        64.35509
807.63        64.60428
808.04        64.60591
808.45        64.62549
808.86        64.64935
809.27        64.47578
809.68        64.17731
810.09        64.00841
810.50          64.021
810.91        64.14084
811.32        64.32747
811.73        64.51148
812.14        64.65685
812.55        64.78856
812.96        64.88209
813.37        64.88705
813.78        64.80455
814.19        64.65519
814.60        64.48968
815.01        64.38783
815.42        64.37103
815.83        64.41623
816.24        64.52116
816.65        64.67104
817.05         64.8438
817.46        65.00529
817.87        65.12846
818.28         65.1282
818.69        65.00205
819.10         64.7731
819.51        64.51833
819.92        64.42147
820.33        64.53014
820.74        64.67934
821.14        64.81902
821.55        65.12163
821.96        65.44105
822.37        65.29076
822.78        64.72218
823.19         64.3371
823.60        64.22373
824.00        64.05232
824.41         63.8624
824.82        63.95371
825.23        64.33909
825.64        64.93835
826.04        65.59769
826.45        65.95631
826.86        65.94545
827.27        65.65382
827.68         65.2284
828.08        64.94444
828.49        64.85662
828.90        64.91608
829.31         65.0817
829.72        65.28094
830.12        65.50488
830.53        65.73043
830.94        65.94692
831.35        66.08002
831.75        66.12209
832.16        66.02644
832.57        65.85603
832.97        65.69707
833.38        65.58079
833.79        65.50008
834.20        65.42341
834.60        65.28621
835.01        65.10046
835.42        64.89966
835.82        64.75519
836.23        64.73447
836.64        64.86601
837.04        65.13348
837.45        65.43731
837.86        65.72041
838.26        65.95037
838.67        66.09888
839.08        66.14091
839.48        66.02325
839.89         65.7523
840.29        65.32986
840.70        64.88905
841.11        64.57289
841.51        64.44277
841.92         64.4892
842.33        64.61074
842.73         64.6306
843.14        64.46684
843.54        64.17213
843.95        63.95805
844.35        64.19764
844.76        64.90424
845.17        65.97956
845.57        67.06233
845.98        67.39471
846.38        66.85962
846.79        65.70752
847.19        64.40531
847.60        63.69558
848.00        63.74853
848.41        64.30686
848.81        65.16906
849.22        65.89064
849.62        66.34378
850.03        66.60795
850.43        66.66605
850.84        66.37802
851.24        65.80643
851.65        64.94437
852.05        64.05444
852.46        63.58592
852.86        63.60648
853.27        64.01504
853.67         64.5223
854.07        64.88301
854.48        64.97425
854.88        64.93124
855.29        64.67642
855.69        64.30968
856.10        63.82105
856.50        63.27436
856.90        62.79234
857.31        62.57945
857.71        62.70584
858.12        63.09136
858.52        63.69154
858.92        64.22513
859.33        64.55721
859.73        64.74475
860.13        64.80275
860.54        64.80396
860.94        64.80371
861.34        64.76257
861.75         64.5965
862.15        64.27383
862.55        63.77207
862.96        63.15055
863.36         62.5686
863.76         62.2779
864.17        62.32227
864.57        62.66309
864.97        63.07471
865.38        63.17644
865.78        62.91315
866.18        62.34611
866.58        61.73229
866.99        61.52393
867.39        61.84655
867.79        62.53814
868.19        63.26982
868.60        63.51868
869.00        63.18266
869.40        62.43552
869.80        61.59054
870.21        61.18904
870.61        61.40891
871.01        62.03516
871.41        62.80779
871.81        63.35448
872.22        63.55563
872.62        63.57261
873.02        63.50943
873.42        63.54481
873.82        63.74372
874.22        64.01655
874.63        64.34062
875.03         64.6831
875.43        65.01969
875.83        65.33449
876.23        65.58296
876.63        65.66901
877.03        65.59087
877.44        65.44305
877.84        65.17854
878.24        64.75723
878.64        64.21476
879.04        63.53463
879.44        63.02482
879.84        63.13197
880.24          63.871
880.64        65.12703
881.04        66.30085
881.44        66.32082
881.84        65.00223
882.24         62.7851
882.65        60.52563
883.05        59.34615
883.45        59.52008
883.85        60.70176
884.25        62.41031
884.65        63.74179
885.05        64.32364
885.45        64.39777
885.85        64.16122
886.25        63.92515
886.65        63.80375
887.05        63.65335
887.45        63.45645
887.85        63.23779
888.25        63.00993
888.65        62.83621
889.04        62.71175
889.44        62.62041
889.84        62.55246
890.24        62.52305
890.64        62.56181
891.04         62.7211
891.44        62.99787
891.84         63.3495
892.24        63.73294
892.64        64.08955
893.04        64.39858
893.44        64.67855
893.83        64.92712
894.23        65.06091
894.63        65.10159
895.03         65.0407
895.43        64.96693
895.83        65.02515
896.23        65.23578
896.63        65.56618
897.02        65.85506
897.42        65.83482
897.82         65.4636
898.22        64.82111
898.62        64.13533
899.01        63.71613
899.41        63.63891
899.81        63.83775
900.21        64.08994
900.61        63.98402
901.00        63.43955
901.40        62.67822
901.80        62.03791
902.20        61.98724
902.59        62.62578
902.99        63.75849
903.39        65.11765
903.79        66.08117
904.18        66.37086
904.58        66.17359
904.98        65.71572
905.38        65.32896
905.77        65.10949
906.17          64.972
906.57        64.89513
906.96        64.89723
907.36        64.92834
907.76        65.03134
908.15        65.17319
908.55        65.19501
908.95        65.08808
909.34        64.86718
909.74        64.59792
910.14         64.3521
910.53        64.15802
910.93        64.02927
911.33        63.95697
911.72        63.93671
912.12        63.96783
912.52        64.05502
912.91        64.23617
913.31        64.53823
913.70        64.97066
914.10        65.44967
914.49        65.91054
914.89        66.17852
915.29        66.22285
915.68        66.09061
916.08        65.83289
916.47        65.48683
916.87        65.12511
917.26        64.70884
917.66        64.37004
918.05        64.28867
918.45        64.46029
918.84         64.9089
919.24        65.34483
919.64        65.35241
920.03         64.8461
920.42        63.94626
920.82        63.08246
921.21        62.75037
921.61         63.0376
922.00        63.83064
922.40        64.74274
922.79        65.17355
923.19         64.9142
923.58        64.19279
923.98        63.41281
924.37        63.13018
924.77        63.47614
925.16        64.28688
925.55        65.28296
925.95        65.94933
926.34        66.12835
926.74        65.94233
927.13         65.5586
927.52        65.22668
927.92        65.03556
928.31        64.90252
928.70        64.78374
929.10        64.60408
929.49          64.373
929.89        64.15382
930.28        64.03147
930.67        64.07933
931.07        64.29733
931.46        64.65021
931.85        65.09921
932.24        65.61045
932.64        66.11825
933.03        66.67613
933.42        67.13311
933.82        67.28445
934.21        67.12529
934.60        66.68843
934.99        66.22066
935.39        66.07622
935.78         66.3157
936.17        66.83137
936.56         67.3765
936.96        67.53288
937.35         67.2374
937.74        66.61667
938.13        65.83027
938.53        65.12619
938.92        64.59846
939.31        64.24203
939.70        64.09937
940.09        64.24565
940.49        64.60348
940.88        65.11538
941.27        65.70951
941.66        66.26406
942.05        66.66531
942.44        66.94868
942.84        66.78549
943.23        65.66342
943.62        63.70583
944.01        61.28507
944.40         59.1751
944.79        58.32907
945.18         58.8643
945.57        60.52971
945.97        62.75191
946.36        64.56797
946.75        65.37746
947.14        65.40495
947.53        64.97995
947.92        64.70893
948.31        64.78049
948.70        64.92433
949.09        65.05448
949.48        65.08098
949.87        64.96247
950.26         64.8411
950.65        64.62477
951.04        64.10468
951.43        63.30918
951.82         62.3252
952.21        61.47577
952.60        61.25027
952.99        61.71944
953.38        62.72394
953.77        63.88953
954.16        64.56799
954.55        64.54451
954.94        63.96951
955.33        63.13638
955.72        62.54285
956.11        62.36058
956.50        62.48528
956.89        62.71459
957.28        62.71658
957.66        62.42859
958.05        61.95554
958.44        61.58852
958.83        61.77081
959.22        62.55472
959.61         63.7368
960.00        64.90263
960.39        65.34679
960.78        64.88048
961.16        63.77178
961.55         62.3384
961.94        61.06485
962.33        60.15899
962.72        59.49242
963.11        59.19871
963.49        59.49952
963.88        60.33043
964.27        61.66666
964.66        63.08117
965.04        63.85323
965.43        63.74191
965.82        62.92091
966.21        61.84076
966.60        61.29947
966.98        61.53314
967.37        62.30763
967.76        63.24927
968.15         63.7148
968.53        63.54816
968.92        62.93018
969.31        62.21654
969.69        61.97001
970.08        62.30785
970.47         63.0267
970.86        63.82833
971.24        64.25285
971.63        64.17755
972.02        63.82308
972.40        63.36007
972.79        63.03378
973.17        63.01267
973.56        63.09788
973.95        63.43967
974.33        64.29507
974.72        65.58555
975.11        67.33134
975.49        69.08864
975.88        69.79434
976.26        69.16734
976.65        67.46147
977.04        65.40065
977.42        63.97916
977.81        63.42103
978.19        63.37272
978.58        63.54855
978.96        63.31458
979.35        62.53315
979.74        61.40786
980.12        60.16777
980.51        59.05128
980.89        58.27299
981.28        57.79158
981.66         57.5827
982.05        57.55359
982.43        57.68205
982.82        57.92302
983.20        58.50126
983.59        59.77732
983.97        61.82603
984.35        64.52364
984.74        66.97141
985.12        67.82175
985.51        66.58389
985.89        63.81599
986.28        60.74502
986.66        58.77197
987.04        58.31827
987.43        58.97201
987.81        60.30337
988.20         61.3257
988.58        61.69955
988.96        61.71816
989.35        61.49997
989.73        61.35547
990.12        61.32568
990.50        61.18336
990.88        61.01197
991.27        61.00317
991.65        61.18457
992.03        61.64249
992.42        61.90913
992.80        61.44605
993.18        60.04386
993.56        58.10015
993.95        56.51365
994.33        56.01958
994.71        56.82136
995.10        58.61956
995.48        60.97358
995.86        62.44229
996.24        62.38888
996.63        61.28224
997.01        59.80322
997.39        58.86027
997.77        58.70119
998.15        58.99186
998.54        59.67665
998.92         60.6807
999.30        61.88628
999.68        63.39963
1000.06         64.7552
1000.45        65.04066
1000.83        64.24873
1001.21        62.59043
1001.59        60.84672
1001.97         60.1182
1002.35        60.61504
1002.73        62.05285
1003.12         63.9634
1003.50        65.52839
1003.88        66.32854
1004.26        66.60201
1004.64        66.52142
1005.02        66.39761
1005.40        66.31972
1005.78        66.04973
1006.16        65.65011
1006.54        65.27438
1006.92        64.92741
1007.30        64.68256
1007.69        64.16891
1008.07        62.80927
1008.45        60.69511
1008.83        58.25354
1009.21        56.23608
1009.59        55.34234
1009.97         55.6072
1010.35        56.97787
1010.73        58.88454
1011.11        59.94448
1011.49        59.54571
1011.86        57.81086
1012.24        56.15646
1012.62        56.78355
1013.00        60.32502
1013.38        66.64769
1013.76        73.74576
1014.14        76.16727
1014.52        72.42136
1014.90        65.50346
1015.28        59.02752
1015.66        56.07759
1016.04        56.76191
1016.41        60.32655
1016.79         65.9695
1017.17        71.75217
1017.55        75.88764
1017.93         78.7873
1018.31        79.28738
1018.69        76.09125
1019.06        70.11717
1019.44        63.00076
1019.82         57.1887
1020.20        54.65163
1020.58        55.10177
1020.95        58.16957
1021.33        62.55087
1021.71        64.77158
1022.09        63.26231
1022.46        58.74252
1022.84        54.01796
1023.22         52.5592
1023.60        55.24469
1023.97        62.23043
1024.35        71.01432
1024.73        72.94463
