SpectraSmart Spectrum 2.9.0.0
--------- Device Information -----------
Spectrum Name :  反射率_0
Saving Time :  2024/05/03 20:49:39
Spectro-Module Model Name : SE2030-DUVN
Spectro-Module Serial Number : OS361AC55029948
Wavelength Start : 200
Wavelength End : 1025
Wavelength Unit : Wavelength(nm)
Spectrum Unit : Reflectance(%)
-----------Spectrum Setting ------------
Integration Time : 20ms
Average : 10
Boxcar : 0
Background removal :  enabled
linearity correction :  enabled
SC :  disabled
Intensity correction :  disabled
DWT denoise :  enabled
savitzky-golay :  disabled
FFT :  disabled
Running average :  disabled
Kalman :  disabled
High pass :  disabled
---------------BEGIN--------------------
Wavelength(nm)             Reflectance(%)
200.29               0
200.75        59.70136
201.21        95.83824
201.67       -2116.653
202.13       -34.70456
202.58        6.068752
203.04        26.54319
203.50        40.13106
203.96        49.01429
204.42        56.39606
204.88        71.71299
205.34       -400.5088
205.80         4.52688
206.26       -2.919015
206.72       -11055.95
207.18        80.69592
207.64        63.85542
208.10        57.20415
208.55        52.26546
209.01       -28.17024
209.47       -252.2739
209.93        -32.2365
210.39       -3.106599
210.85        6.226812
211.31        9.922651
211.77        11.71387
212.23        13.87145
212.69         18.5342
213.14        24.30802
213.60        19.00715
214.06        15.21856
214.52        14.08131
214.98        15.10693
215.44        19.27354
215.90        35.90428
216.36       -214.5387
216.81       -47.60926
217.27       -60.55419
217.73       -128.0259
218.19        -528.286
218.65       -11254.16
219.11       -835.3403
219.57        -222.944
220.02       -130.2489
220.48       -240.4261
220.94         316.348
221.40        111.5568
221.86        82.17999
222.32        76.12012
222.77         79.0614
223.23        90.15955
223.69         109.929
224.15        123.8429
224.61        119.1704
225.06        106.4422
225.52        98.16425
225.98        99.49712
226.44         109.974
226.90        128.1136
227.36        152.0241
227.81        169.9876
228.27        172.1937
228.73        164.1667
229.19        151.0505
229.65        136.7865
230.10        123.1011
230.56        110.9854
231.02        101.5429
231.48        96.40952
231.93        94.93828
232.39        96.27267
232.85        98.86353
233.31        100.8469
233.77        101.6692
234.22        101.5571
234.68        101.2382
235.14        101.9925
235.60        104.0996
236.05        107.4019
236.51        110.0164
236.97        108.8794
237.43        103.5618
237.88         95.6422
238.34         88.1671
238.80        84.42118
239.26         85.1093
239.71        91.70913
240.17        104.5386
240.63        118.9185
241.08        124.2166
241.54        116.5291
242.00        104.1309
242.46        97.17328
242.91        97.12461
243.37        101.9837
243.83        112.2367
244.28        119.8485
244.74        109.5731
245.20        87.56997
245.66        65.68191
246.11        49.50578
246.57         38.8972
247.03        32.04001
247.48        27.34242
247.94         22.5198
248.40         17.1735
248.85        11.08497
249.31        6.689907
249.77        8.750524
250.22        16.46433
250.68        25.84548
251.14        34.49994
251.59        42.06066
252.05        50.24423
252.51        61.49208
252.96        76.97906
253.42        92.07871
253.88        99.34875
254.33        97.73708
254.79        92.64159
255.25        88.76266
255.70        86.56983
256.16        85.97102
256.62        85.82764
257.07        85.54024
257.53        85.59185
257.99        85.53389
258.44        85.37133
258.90        85.78774
259.35        86.14043
259.81        86.87808
260.27        87.12078
260.72        86.04388
261.18        84.45213
261.63        82.39076
262.09        80.96588
262.55        80.73013
263.00        81.39731
263.46        82.67467
263.91        83.75556
264.37        83.97294
264.83        83.14447
265.28        81.63042
265.74        79.88166
266.19        78.04803
266.65        76.43311
267.11        74.85794
267.56        73.48658
268.02        72.72121
268.47        72.48161
268.93        72.71342
269.38          73.004
269.84        72.64384
270.30        71.52378
270.75        69.86087
271.21        68.19612
271.66        67.16046
272.12        66.87599
272.57        67.03033
273.03        67.26791
273.48        67.03139
273.94        66.21901
274.39        65.06087
274.85        63.74479
275.31        62.36273
275.76        60.98239
276.22        59.65656
276.67        58.52946
277.13        58.03119
277.58          58.021
278.04        58.39634
278.49        58.64351
278.95        58.06298
279.40        56.53383
279.86        54.51996
280.31        52.41894
280.77        50.92841
281.22        50.02143
281.68        49.55063
282.13        49.25081
282.59        48.87438
283.04        48.29845
283.50        47.66521
283.95        46.99849
284.41        46.40246
284.86        45.86096
285.32        45.37616
285.77        44.88481
286.22        44.40369
286.68        43.95092
287.13         43.4809
287.59        43.06238
288.04        42.68776
288.50        42.38402
288.95         42.1117
289.41        41.82301
289.86        41.38292
290.32        40.82132
290.77        40.15814
291.22        39.54406
291.68        39.16811
292.13        39.04064
292.59        39.13961
293.04        39.31866
293.50        39.36668
293.95        39.22562
294.40        38.95823
294.86        38.74673
295.31        38.84231
295.77        39.28107
296.22        39.95831
296.68        40.64534
297.13        40.97116
297.58        40.84904
298.04        40.44888
298.49        39.96193
298.95        39.72271
299.40        39.78968
299.85        40.05451
300.31        40.47266
300.76        40.94199
301.21        41.41128
301.67        41.90974
302.12        42.30413
302.58        42.41953
303.03        42.22573
303.48        41.79836
303.94        41.35518
304.39        41.15063
304.84        41.25944
305.30          41.597
305.75        41.99497
306.20        42.22531
306.66        42.24508
307.11        42.11042
307.57        41.93383
308.02        41.79861
308.47        41.75726
308.93        41.77125
309.38        41.80071
309.83        41.84105
310.29        41.87885
310.74        41.90731
311.19        41.90878
311.65        41.84701
312.10        41.70371
312.55        41.48586
313.00        41.21465
313.46        40.92951
313.91        40.63451
314.36        40.34911
314.82        40.07274
315.27         39.7857
315.72        39.50285
316.18        39.23744
316.63        39.03189
317.08        38.95602
317.53         39.0107
317.99        39.15411
318.44        39.32006
318.89        39.38078
319.35        39.29623
319.80        39.09982
320.25        38.82766
320.70         38.5495
321.16        38.28561
321.61        38.02284
322.06        37.76769
322.51        37.53556
322.97        37.32838
323.42        37.16689
323.87        37.01942
324.32        36.83114
324.78        36.58825
325.23         36.3125
325.68        36.05178
326.13        35.89431
326.59        35.84683
327.04         35.9021
327.49        35.98157
327.94        35.96934
328.39        35.82847
328.85        35.57164
329.30        35.28217
329.75        35.06427
330.20         34.9527
330.66        34.91147
331.11         34.8885
331.56        34.75152
332.01        34.47608
332.46        34.10629
332.92         33.7299
333.37        33.53302
333.82        33.54675
334.27        33.72025
334.72        33.95258
335.17        34.07327
335.63         34.0125
336.08        33.82768
336.53        33.57541
336.98        33.37014
337.43        33.24835
337.88        33.17805
338.34        33.10828
338.79        32.96362
339.24        32.73405
339.69         32.4669
340.14        32.22729
340.59        32.11185
341.05        32.14132
341.50        32.27551
341.95        32.46957
342.40        32.65848
342.85        32.80928
343.30         32.9349
343.75         33.0044
344.20        32.97412
344.66        32.85429
345.11        32.65101
345.56        32.44038
346.01         32.3397
346.46          32.376
346.91        32.52069
347.36        32.70833
347.81         32.8299
348.26        32.85629
348.72         32.8202
349.17        32.76132
349.62        32.75318
350.07        32.81074
350.52        32.90067
350.97        32.98357
351.42          33.004
351.87        32.94539
352.32        32.82681
352.77         32.6715
353.22        32.51514
353.67        32.37397
354.13        32.25095
354.58        32.12588
355.03        31.99164
355.48        31.85027
355.93        31.71354
356.38        31.59721
356.83        31.52348
357.28        31.49113
357.73        31.48121
358.18        31.47596
358.63        31.44878
359.08         31.3878
359.53        31.30087
359.98        31.17171
360.43        30.97944
360.88        30.72527
361.33        30.41185
361.78        30.09249
362.23         29.8469
362.68        29.69156
363.13         29.6171
363.58        29.54525
364.03        29.34859
364.48        29.00965
364.93        28.56948
365.38        28.15149
365.83        27.94454
366.28        27.97968
366.73        28.19269
367.18        28.43567
367.63        28.46904
368.08        28.23384
368.53        27.80585
368.98         27.3221
369.43        26.99114
369.88        26.86648
370.33        26.88654
370.78        26.95486
371.23        26.91217
371.68         26.7131
372.13        26.41214
372.58        26.09569
373.03        25.88772
373.48        25.81422
373.93        25.83084
374.38         25.8551
374.83         25.7588
375.28        25.51396
375.72        25.16065
376.17         24.8077
376.62        24.56703
377.07        24.46213
377.52        24.45482
377.97         24.4781
378.42         24.4271
378.87        24.27715
379.32        24.06441
379.77        23.84925
380.22        23.71402
380.67        23.66991
381.11        23.69003
381.56         23.7078
382.01        23.63341
382.46        23.45047
382.91        23.20111
383.36        22.94476
383.81        22.76316
384.26        22.67397
384.71        22.64711
385.15        22.64985
385.60         22.6481
386.05        22.61738
386.50        22.56737
386.95        22.49428
387.40        22.39178
387.85        22.26491
388.29        22.10817
388.74        21.95617
389.19        21.80766
389.64        21.66763
390.09        21.53929
390.54        21.43717
390.98        21.36253
391.43        21.32355
391.88        21.35008
392.33        21.41765
392.78        21.38699
393.23         21.3029
393.67        21.38133
394.12        21.57572
394.57        21.59065
395.02        21.40722
395.47        21.16227
395.91        20.93232
396.36        20.78158
396.81        20.75491
397.26        20.84113
397.71        20.94955
398.15        20.96867
398.60        20.90575
399.05        20.67289
399.50        20.39656
399.95         20.4889
400.39        20.87029
400.84        20.91396
401.29        20.60684
401.74        20.43471
402.18        20.41106
402.63        20.25845
403.08        20.04469
403.53        19.84905
403.97        19.97564
404.42        20.12381
404.87        20.30415
405.32        20.39387
405.76        20.35965
406.21        20.24533
406.66        20.09288
407.11        19.97472
407.55        19.91771
408.00        19.89343
408.45        19.88495
408.90           19.86
409.34        19.80724
409.79        19.74043
410.24        19.67933
410.68        19.64494
411.13        19.64233
411.58        19.66269
412.03        19.67618
412.47        19.63808
412.92        19.53597
413.37        19.39148
413.81        19.24747
414.26        19.18421
414.71        19.20391
415.15        19.29415
415.60        19.39311
416.05        19.41382
416.49        19.33334
416.94         19.1851
417.39        19.02614
417.83        18.93849
418.28        18.93909
418.73        18.99233
419.17        19.06791
419.62        19.10441
420.07        19.08559
420.51        19.03392
420.96        18.95611
421.41        18.84438
421.85        18.70177
422.30        18.54258
422.74        18.40201
423.19        18.38771
423.64        18.49338
424.08         18.6673
424.53        18.83521
424.98        18.94272
425.42        18.96995
425.87        18.87098
426.31        18.71176
426.76        18.71216
427.21        18.84108
427.65        18.81012
428.10        18.65071
428.54        18.60348
428.99        18.68366
429.44        18.86759
429.88        19.02702
430.33        18.85583
430.77        18.44258
431.22        18.21668
431.66         18.2379
432.11        18.38068
432.56        18.58142
433.00        18.79963
433.45        18.84117
433.89        18.69162
434.34        17.81596
434.78         17.7119
435.23        18.23234
435.67         18.3726
436.12        18.14204
436.57        18.10602
437.01        18.27948
437.46        18.36864
437.90        18.35653
438.35        18.32789
438.79        18.29474
439.24        18.26214
439.68        18.24596
440.13        18.28681
440.57        18.34341
441.02        18.32866
441.46        18.22988
441.91        18.07244
442.35        17.89937
442.80        17.89501
443.24        18.00973
443.69        18.02106
444.13        17.92065
444.58        17.88357
445.02        17.90851
445.47        17.88857
445.91        17.83149
446.36        17.81518
446.80        17.83873
447.24         17.8822
447.69         17.9302
448.13        17.95844
448.58        17.96255
449.02        17.94779
449.47        17.92703
449.91        17.90819
450.36        17.89903
450.80        17.89058
451.25        17.88301
451.69        17.86908
452.13        17.84857
452.58         17.8264
453.02        17.79873
453.47        17.76715
453.91        17.73295
454.36        17.69704
454.80        17.66066
455.24        17.65314
455.69         17.6839
456.13        17.68025
456.58        17.63934
457.02        17.76568
457.46         17.7686
457.91         17.7119
458.35        17.54208
458.79        17.48851
459.24        17.53639
459.68        17.47463
460.13        17.34403
460.57         17.2946
461.01        17.34246
461.46        17.40514
461.90        17.45218
462.34        17.45687
462.79        17.40455
463.23        17.30256
463.68        17.19468
464.12        17.13814
464.56        17.14451
465.01        17.24431
465.45        17.36283
465.89         17.3413
466.34        17.21844
466.78        17.18712
467.22        17.26813
467.67        17.33833
468.11        17.38453
468.55        17.40872
468.99        17.41328
469.44         17.4269
469.88        17.45126
470.32        17.45065
470.77        17.42564
471.21        17.40657
471.65        17.39444
472.10        17.37997
472.54        17.36383
472.98        17.35641
473.42        17.35837
473.87         17.3763
474.31        17.38573
474.75        17.36434
475.20        17.31834
475.64        17.24833
476.08        17.18192
476.52        17.18625
476.97        17.27312
477.41        17.37354
477.85        17.43919
478.29        17.72551
478.74        17.62646
479.18        17.75616
479.62        17.91338
480.06        17.97053
480.50        17.91848
480.95        17.84467
481.39        17.78292
481.83        17.75878
482.27         17.7958
482.72        17.91066
483.16        18.05777
483.60        18.16851
484.04        18.24779
484.48        18.20883
484.93        18.13866
485.37        18.39078
485.81        19.00603
486.25        18.90517
486.69        19.23281
487.14        19.16823
487.58        19.03485
488.02        18.81357
488.46        19.20576
488.90        18.94211
489.34        18.61086
489.79         18.6829
490.23        19.19677
490.67        19.51956
491.11        19.56458
491.55        19.47262
491.99        19.32778
492.43        19.32134
492.88        19.48376
493.32        19.68672
493.76        19.87058
494.20        20.01908
494.64        20.11853
495.08        20.17566
495.52        20.21629
495.96        20.29683
496.41        20.42819
496.85        20.55305
497.29        20.67226
497.73        20.86399
498.17        21.08355
498.61        21.18248
499.05        21.16033
499.49        21.09871
499.93        21.05681
500.37        21.13617
500.82        21.31367
501.26        21.42557
501.70        21.45747
502.14        21.52039
502.58        21.62104
503.02        21.71027
503.46        21.78648
503.90        21.86404
504.34        21.93625
504.78        21.99221
505.22        22.03212
505.66        22.05288
506.10          22.058
506.54        22.10428
506.98        22.20628
507.42        22.26235
507.86        22.23445
508.30        22.54557
508.74        22.40201
509.18         22.4458
509.62        22.46245
510.06        22.50739
510.50        22.58149
510.94        22.67924
511.38        22.78072
511.82        22.83077
512.26        22.82122
512.70         22.7722
513.14        22.70814
513.58        22.66749
514.02        22.66166
514.46        22.67592
514.90        22.70842
515.34          22.755
515.78        22.81004
516.22        22.87925
516.66        22.93783
517.10        22.94545
517.54        22.89842
517.98        22.80622
518.42        22.71644
518.86        22.70678
519.30         22.7907
519.74        22.94362
520.18        23.10608
520.62        23.18011
521.06        23.14124
521.50        23.01991
521.93        22.86818
522.37        22.77249
522.81        22.75461
523.25        22.78794
523.69        22.83822
524.13        22.85159
524.57        22.81441
525.01        22.74871
525.45        22.67559
525.89        22.62607
526.32        22.60689
526.76        22.60551
527.20        22.61221
527.64        22.61591
528.08         22.6111
528.52        22.60372
528.96        22.58478
529.40        22.53999
529.83         22.4659
530.27        22.36946
530.71        22.27288
531.15        22.21377
531.59         22.1988
532.03        22.22129
532.46        22.24643
532.90        22.21815
533.34        22.13017
533.78        22.00575
534.22        21.88947
534.66        21.84633
535.09        21.88234
535.53        21.97373
535.97        22.08226
536.41        22.13007
536.85        22.09573
537.28        22.06317
537.72        22.03722
538.16        21.88828
538.60        21.69811
539.04        21.75908
539.47        22.02118
539.91         22.1551
540.35        22.13673
540.79        22.15913
541.22        22.22254
541.66        22.25787
542.10        22.27094
542.54        22.24838
542.97        22.22827
543.41        22.35837
543.85        22.60764
544.29        22.78935
544.72        22.87838
545.16        22.99849
545.60        23.14025
546.04        23.22452
546.47          23.271
546.91        23.35533
547.35        23.48651
547.79        23.65154
548.22        23.82846
548.66        23.98218
549.10          24.113
549.53        24.28868
549.97        24.49772
550.41        24.66593
550.84        24.78265
551.28        24.89021
551.72        24.98656
552.15        25.05135
552.59         25.1034
553.03        25.14286
553.46         25.1863
553.90         25.2921
554.34        25.45249
554.77        25.62256
555.21        25.79238
555.65        25.96641
556.08        26.12976
556.52        26.27647
556.96        26.38515
557.39        26.44869
557.83        26.47731
558.27        26.43833
558.70        26.37948
559.14        26.44069
559.57        26.60707
560.01        26.75243
560.45        26.84391
560.88        26.92702
561.32        27.00765
561.75        27.02708
562.19        27.03688
562.63        27.09061
563.06        27.18884
563.50        27.39994
563.93        27.64816
564.37        27.62529
564.80        27.40453
565.24        27.47246
565.68         27.7867
566.11        27.93147
566.55        27.90369
566.98         27.9201
567.42        28.00583
567.85        28.17854
568.29         28.2545
568.72        28.40298
569.16        28.58705
569.60        28.77315
570.03        28.94168
570.47        29.15019
570.90        29.39261
571.34        29.40779
571.77        29.85921
572.21         29.7794
572.64        29.94447
573.08        29.87318
573.51        30.27048
573.95        30.35387
574.38        30.32464
574.82        30.24182
575.25        30.63706
575.69        30.67696
576.12         30.5719
576.56        30.39489
576.99        30.55031
577.42         31.2208
577.86        30.78934
578.29        31.00891
578.73        30.89611
579.16        30.90459
579.60        30.82477
580.03        30.72666
580.47        30.59645
580.90        30.66588
581.33        30.14962
581.77        30.59308
582.20        30.91846
582.64        30.68244
583.07        30.52295
583.51        30.09155
583.94        29.81141
584.37        29.66636
584.81        29.70013
585.24        29.55667
585.68        29.78557
586.11        29.21639
586.54        29.34241
586.98        29.21417
587.41        29.19702
587.85        29.34363
588.28        29.10613
588.71        29.05767
589.15        28.91446
589.58        29.00913
590.01         28.9292
590.45        28.72435
590.88        28.81583
591.31        28.90682
591.75         29.0972
592.18        29.09452
592.61        28.94759
593.05        28.91567
593.48        29.68356
593.91        29.27922
594.35        29.45349
594.78        29.44865
595.21        29.70681
595.65        29.58514
596.08        29.13469
596.51        29.64061
596.94        29.88174
597.38        30.12724
597.81        29.91926
598.24        30.48466
598.68        30.69633
599.11        30.35071
599.54        31.58221
599.97        31.29771
600.41        31.75466
600.84        31.95108
601.27        32.38697
601.70        32.34433
602.14        32.76622
602.57         33.0906
603.00        33.54412
603.43         33.9986
603.87        34.25293
604.30        34.57533
604.73        34.93927
605.16        35.29279
605.60        35.32878
606.03        35.71886
606.46        36.37371
606.89        36.21452
607.32        37.19471
607.76        37.14273
608.19        37.58519
608.62        37.96648
609.05        38.17655
609.48        38.42315
609.92        38.73493
610.35        38.67477
610.78        39.93829
611.21         40.2504
611.64        40.41009
612.07         40.4733
612.50        40.62657
612.94        40.77649
613.37        40.95742
613.80        41.27875
614.23        41.67306
614.66        41.84984
615.09        41.86195
615.52         42.1202
615.96        42.60087
616.39        42.89784
616.82        42.98799
617.25        43.13253
617.68        43.58601
618.11        43.38522
618.54        42.83563
618.97        43.02505
619.40        43.95026
619.84        44.23553
620.27        44.48034
620.70        44.64786
621.13         45.0106
621.56        44.60506
621.99         44.7249
622.42        44.81828
622.85        45.19511
623.28        45.22653
623.71        44.91318
624.14        45.14923
624.57        44.95823
625.00        44.72773
625.43        45.04624
625.86        45.04501
626.29        44.86619
626.72        45.35458
627.15         44.9512
627.58         44.7357
628.01        44.54698
628.44        44.33556
628.87        44.09938
629.30        43.91047
629.73        43.73191
630.16        43.50114
630.59        43.20973
631.02        42.87965
631.45        42.55401
631.88        42.29835
632.31        42.12126
632.74        41.99365
633.17         41.8532
633.60        41.60155
634.03        41.21566
634.46        40.73026
634.89         40.1983
635.32        39.70307
635.75        39.27379
636.18        38.89135
636.61        38.53887
637.04        38.18843
637.47        37.83375
637.89        37.48208
638.32        37.12778
638.75        36.81972
639.18        36.57117
639.61        36.22108
640.04        36.03863
640.47        35.79967
640.90        35.58292
641.33        35.38539
641.76        35.21133
642.18        35.06828
642.61        34.94455
643.04        34.84268
643.47        34.76702
643.90        34.72457
644.33        34.71297
644.76        34.73536
645.18        34.78024
645.61        34.78326
646.04         34.7368
646.47         34.7383
646.90        34.84636
647.33        34.73933
647.75        35.08737
648.18         35.3367
648.61        35.65842
649.04        35.99116
649.47        36.32953
649.89        36.70089
650.32        37.06242
650.75        37.39802
651.18        37.72042
651.61        37.96029
652.03        38.18903
652.46        38.75918
652.89        39.54485
653.32        39.84044
653.74        39.84738
654.17        40.01414
654.60         40.3689
655.03        41.21922
655.46        41.34364
655.88        41.31842
656.31        43.99791
656.74        48.98347
657.16        46.30667
657.59        43.32824
658.02        44.24811
658.45        45.10326
658.87        45.77332
659.30        44.78892
659.73        44.72127
660.15        45.41985
660.58        45.51943
661.01        45.88937
661.44        45.90174
661.86        46.03817
662.29        46.29472
662.72        46.71513
663.14        47.23265
663.57        47.32577
664.00        47.10744
664.42        47.27694
664.85        47.83374
665.27        48.18653
665.70         48.2888
666.13        48.47077
666.55        48.72902
666.98        48.87981
667.41        48.94568
667.83        49.03045
668.26        49.14562
668.69        49.28844
669.11        49.42397
669.54        49.48555
669.96        49.46767
670.39        49.40703
670.82        49.41075
671.24        49.57588
671.67        49.92826
672.09        50.55576
672.52        51.29449
672.94        51.44119
673.37        51.53889
673.80        51.22548
674.22        50.88072
674.65        50.79253
675.07        51.05125
675.50        51.54763
675.92        52.12803
676.35        52.51585
676.77        52.64025
677.20        52.58967
677.62        52.47254
678.05        52.46115
678.47        52.60361
678.90        52.84093
679.32        53.11248
679.75        53.37353
680.17         53.5998
680.60        53.74247
681.02        53.80243
681.45        54.09147
681.87          54.048
682.30        54.18092
682.72        54.30942
683.15        54.26474
683.57        54.12916
684.00        54.27612
684.42        54.64859
684.85        54.83294
685.27        54.80085
685.70        54.72098
686.12        54.64902
686.54        54.77779
686.97        55.04421
687.39        55.08772
687.82        54.94943
688.24        54.92882
688.66         55.0545
689.09        55.12233
689.51        55.13416
689.94        55.25437
690.36        55.51149
690.78        55.70127
691.21        55.75243
691.63         56.4323
692.06        56.26157
692.48        56.57298
692.90        56.89029
693.33        57.07333
693.75        57.10516
694.17        57.03489
694.60        56.93608
695.02        57.19098
695.44         57.0636
695.87        57.61222
696.29        58.39429
696.71        58.46218
697.14        57.88983
697.56        57.66896
697.98        57.88644
698.41         57.9761
698.83        57.93816
699.25        58.16053
699.68        58.54685
700.10         58.7741
700.52        58.76662
700.94        58.77543
701.37         58.6037
701.79        58.62171
702.21        58.77141
702.64        59.00192
703.06        59.24647
703.48        59.41695
703.90        59.49634
704.33        59.52339
704.75        59.53045
705.17        59.55264
705.59        59.60806
706.01        59.67336
706.44        59.78189
706.86        60.00223
707.28        60.30869
707.70        60.71535
708.12        61.11958
708.55        61.25418
708.97        61.13611
709.39        61.05911
709.81        61.06649
710.23        61.02831
710.66          60.973
711.08        61.02337
711.50        61.17287
711.92        61.36354
712.34        61.58091
712.76        61.83615
713.19        62.06826
713.61        62.22516
714.03        62.26196
714.45        62.19131
714.87        62.06009
715.29        61.94613
715.71        61.87274
716.13        61.83165
716.56        61.80137
716.98        61.76526
717.40         61.6982
717.82        61.69393
718.24        61.80411
718.66        61.68537
719.08        62.06031
719.50        62.19217
719.92        62.30372
720.34        62.48825
720.76        62.75022
721.19        62.96747
721.61         63.1622
722.03        63.23421
722.45         63.2247
722.87         63.0004
723.29        62.66729
723.71        62.81164
724.13        63.46124
724.55        63.12277
724.97         63.7013
725.39         63.6758
725.81        63.57137
726.23        63.81585
726.65        63.47339
727.07        63.50395
727.49        63.59996
727.91        64.07192
728.33        64.27633
728.75        64.56879
729.17        64.74771
729.59        64.84801
730.01        64.90281
730.43        64.97063
730.85         65.0759
731.27        65.19489
731.69        65.30307
732.10        65.37516
732.52        65.40388
732.94          65.376
733.36        65.31956
733.78        65.31885
734.20        65.39877
734.62        65.35134
735.04        65.66367
735.46        65.52187
735.88        65.19312
736.30        65.28288
736.72        65.76712
737.13        66.00693
737.55        65.90201
737.97         66.0067
738.39        66.29619
738.81        66.11697
739.23        65.66443
739.65        66.02168
740.06        66.94135
740.48        67.20255
740.90        66.72515
741.32         66.1685
741.74        65.76211
742.16        65.60849
742.57        65.80392
742.99        66.27989
743.41        66.89222
743.83         67.3937
744.25        67.69567
744.67        67.85236
745.08        67.89668
745.50        67.84959
745.92        67.76141
746.34        67.60556
746.75        67.41531
747.17        67.34159
747.59        67.28428
748.01        67.30167
748.42        67.36083
748.84        67.44527
749.26        67.49451
749.68          67.565
750.09        67.63776
750.51        67.37547
750.93        67.00441
751.35        67.45403
751.76        68.52434
752.18        68.92075
752.60        68.52983
753.01        68.07797
753.43        67.78587
753.85        67.64015
754.27        67.68634
754.68        68.27554
755.10        68.56904
755.52        68.91121
755.93        69.05418
756.35        69.11341
756.77        69.07314
757.18        69.05445
757.60        69.15166
758.02         68.8883
758.43        68.44609
758.85        69.26128
759.26        70.93679
759.68        70.78275
760.10         70.2056
760.51        69.83423
760.93        69.84161
761.34        69.76916
761.76        69.53348
762.18        69.18987
762.59        68.87972
763.01        69.11722
763.42        69.81564
763.84        70.07088
764.26        69.84391
764.67        69.47094
765.09        69.20197
765.50        69.38755
765.92        69.90577
766.33        69.97182
766.75        69.53296
767.16        69.30743
767.58        69.41047
768.00        69.67626
768.41        70.10229
768.83        70.80721
769.24        71.46872
769.66         71.2976
770.07        70.43206
770.49        69.68785
770.90        69.28768
771.32        69.41396
771.73        69.89617
772.15        70.20962
772.56        70.30038
772.97        70.48884
773.39        70.75821
773.80        71.10094
774.22        71.38154
774.63        71.30494
775.05        70.92121
775.46        70.72498
775.88        70.75665
776.29        70.78074
776.70        70.78899
777.12        70.89112
777.53        71.08885
777.95        71.31873
778.36         71.5342
778.77        71.60233
779.19        71.51938
779.60        71.40524
780.02        71.28166
780.43        71.15784
780.84        71.17016
781.26         71.2175
781.67        71.36967
782.09        72.25079
782.50        73.56557
782.91        73.17229
783.33        72.75205
783.74         72.3484
784.15        72.49043
784.57        72.46371
784.98        72.24243
785.39        71.87701
785.81         71.4874
786.22        71.59381
786.63        72.09415
787.04        72.27774
787.46        72.14098
787.87        72.12914
788.28        72.30458
788.70        72.48303
789.11        72.64893
789.52        72.91824
789.93        73.21554
790.35        73.32443
790.76        73.26372
791.17         73.1835
791.58        73.14925
792.00        73.12523
792.41        73.15601
792.82        73.33308
793.23        73.57935
793.65        73.67205
794.06        73.71537
794.47        73.88063
794.88        73.96204
795.29        74.65548
795.71        73.81302
796.12        73.39108
796.53        72.95332
796.94        72.82996
797.35        73.07779
797.76        73.56762
798.18        74.10363
798.59        74.43859
799.00        74.45618
799.41        74.19043
799.82        73.81688
800.23        73.65505
800.64        73.77829
801.06        74.04872
801.47        74.39325
801.88         74.5603
802.29        74.47305
802.70        74.21565
803.11        73.88865
803.52        73.63583
803.93        73.51006
804.34        73.48253
804.75        73.51917
805.17        73.51921
805.58         73.4809
805.99         73.5218
806.40        73.68108
806.81        73.72876
807.22        73.78208
807.63        74.43378
808.04        75.46924
808.45        75.87758
808.86        75.51312
809.27        74.89317
809.68        74.26188
810.09        73.84819
810.50        73.77883
810.91        73.98826
811.32        74.35378
811.73        74.66032
812.14        74.82445
812.55        74.91383
812.96        74.92565
813.37        74.85255
813.78        74.71671
814.19        74.51131
814.60        74.30906
815.01        74.23418
815.42        74.31171
815.83        74.51559
816.24        74.79612
816.65        75.03724
817.05        75.18716
817.46        75.23534
817.87        75.21915
818.28        75.14764
818.69         75.0349
819.10        74.87034
819.51         74.6992
819.92        74.61336
820.33         74.6335
820.74        74.73316
821.14        74.85164
821.55        74.90749
821.96        74.87018
822.37        74.78486
822.78        74.66931
823.19        74.55466
823.60        74.47303
824.00        74.43395
824.41        74.46552
824.82        74.70173
825.23        75.14446
825.64        75.73788
826.04        76.38254
826.45        76.80156
826.86        76.95123
827.27        76.90025
827.68        76.69166
828.08        76.43531
828.49        76.14637
828.90        75.81837
829.31        75.57159
829.72        75.59813
830.12        75.95483
830.53        76.54598
830.94        77.16028
831.35        77.36319
831.75        77.05618
832.16        76.29729
832.57        75.40175
832.97        74.85337
833.38        74.78393
833.79        75.06372
834.20          75.451
834.60        75.55145
835.01        75.30088
835.42        74.84715
835.82        74.41663
836.23        74.31783
836.64        74.64771
837.04        75.29974
837.45        76.06388
837.86        76.71791
838.26        77.15506
838.67        77.38558
839.08         77.4019
839.48        77.17468
839.89        76.74071
840.29        76.10148
840.70        75.43728
841.11        74.96035
841.51        74.75449
841.92        74.80106
842.33         74.9894
842.73        75.11378
843.14        75.06635
843.54        74.90481
843.95        74.81548
844.35        75.14198
844.76        75.88538
845.17        76.95164
845.57         78.0035
845.98        78.31528
846.38        77.78938
846.79        76.66107
847.19        75.38873
847.60         74.7048
848.00        74.77107
848.41        75.33279
848.81        76.18243
849.22        76.85252
849.62        77.22031
850.03        77.36522
850.43        77.29924
850.84        76.90466
851.24        76.27784
851.65        75.42654
852.05        74.61132
852.46        74.26497
852.86        74.43106
853.27        74.98115
853.67        75.66257
854.07         76.3326
854.48        76.86482
854.88        77.40051
855.29        77.65374
855.69        77.36539
856.10        76.41066
856.50        74.97922
856.90        73.55186
857.31        72.87447
857.71        73.13463
858.12        74.11375
858.52        75.46539
858.92        76.30371
859.33        76.30983
859.73         75.7509
860.13        74.93382
860.54        74.39909
860.94        74.34789
861.34        74.58263
861.75        74.88623
862.15        75.01954
862.55        74.85699
862.96         74.5256
863.36        74.16237
863.76        73.96682
864.17        73.98688
864.57        74.17743
864.97        74.39196
865.38        74.39643
865.78        74.17649
866.18        73.76395
866.58        73.34659
866.99        73.24606
867.39         73.5458
867.79        74.10652
868.19        74.65447
868.60        74.74458
869.00         74.3039
869.40        73.50563
869.80        72.59628
870.21        72.01505
870.61        71.93845
871.01        72.18404
871.41        72.65591
871.81        73.21693
872.22        73.77236
872.62        74.43339
873.02         75.0582
873.42         75.3595
873.82         75.2766
874.22        74.87127
874.63        74.44474
875.03        74.44016
875.43        74.93969
875.83        75.77009
876.23         76.6691
876.63        77.16715
877.03        77.14101
877.44        76.81895
877.84        76.25007
878.24         75.5425
878.64        74.80093
879.04        73.94954
879.44        73.33537
879.84        73.47439
880.24        74.37589
880.64        75.91956
881.04        77.39944
881.44          77.536
881.84        76.09553
882.24        73.58631
882.65        71.00359
883.05         69.6548
883.45        69.87225
883.85        71.27159
884.25        73.29768
884.65        74.90651
885.05        75.66583
885.45        75.83421
885.85        75.68848
886.25        75.66797
886.65        75.89722
887.05        76.17729
887.45        76.32828
887.85        76.11929
888.25        75.52023
888.65         74.6942
889.04        73.85368
889.44        73.31309
889.84        73.14198
890.24        73.27331
890.64        73.57915
891.04        73.84252
891.44        73.98987
891.84        74.07318
892.24        74.18255
892.64        74.45607
893.04        74.92929
893.44         75.5601
893.83        76.24232
894.23        76.71957
894.63        76.94809
895.03        76.93101
895.43        76.86525
895.83        77.07009
896.23        77.59002
896.63         78.3446
897.02         78.9537
897.42        78.81052
897.82        77.84676
898.22        76.29162
898.62        74.72147
899.01        73.92779
899.41        74.08102
899.81        74.99238
900.21        76.13795
900.61        76.52321
901.00        75.87943
901.40        74.61657
901.80        73.39546
902.20        73.13014
902.59        74.01344
902.99        75.70959
903.39        77.71772
903.79        78.95354
904.18        78.99241
904.58         78.2106
904.98        77.11309
905.38         76.3944
905.77        76.22247
906.17        76.39189
906.57        76.72628
906.96        76.99845
907.36         77.0646
907.76        77.04645
908.15        77.00407
908.55        76.91621
908.95        76.82967
909.34        76.71726
909.74        76.57881
910.14        76.38697
910.53        76.15714
910.93        75.94292
911.33        75.83257
911.72        75.97534
912.12        76.37823
912.52        76.96024
912.91        77.62324
913.31         78.1861
913.70        78.60534
914.10        78.86478
914.49        78.96138
914.89        78.81399
915.29        78.47336
915.68        77.98699
916.08        77.49783
916.47        77.17741
916.87        77.10278
917.26        77.16846
917.66        77.37981
918.05        77.71628
918.45        78.10441
918.84        78.61199
919.24        78.93979
919.64        78.71637
920.03        77.90028
920.42        76.61481
920.82        75.37803
921.21        74.76112
921.61        74.87583
922.00        75.63079
922.40        76.59252
922.79        77.09031
923.19         76.8801
923.58        76.18127
923.98        75.47991
924.37        75.45815
924.77        76.25455
925.16        77.66629
925.55        79.20659
925.95        79.98749
926.34        79.78304
926.74        78.84652
927.13         77.6416
927.52         76.8673
927.92        76.70879
928.31        76.93951
928.70         77.3273
929.10        77.47106
929.49        77.27807
929.89        76.93188
930.28         76.5617
930.67        76.30489
931.07        76.21043
931.46        76.20719
931.85        76.37572
932.24        76.89168
932.64        77.71754
933.03        78.87823
933.42        80.00298
933.82        80.49171
934.21        80.24548
934.60        79.40215
934.99        78.45407
935.39        78.14094
935.78        78.60976
936.17        79.62562
936.56        80.75132
936.96        81.24377
937.35        80.94108
937.74        80.07654
938.13        78.92386
938.53        77.90903
938.92        77.19341
939.31         76.7239
939.70        76.52694
940.09        76.65533
940.49        77.01724
940.88         77.5919
941.27        78.30763
941.66        79.02718
942.05        79.62675
942.44        80.12653
942.84        80.18191
943.23        79.26964
943.62        77.48551
944.01        75.18013
944.40        73.13808
944.79        72.33692
945.18         72.9016
945.57        74.59126
945.97        76.78685
946.36        78.49308
946.75        79.10819
947.14        78.91215
947.53        78.33557
947.92        78.13422
948.31        78.51711
948.70        79.13012
949.09        79.82615
949.48         80.4101
949.87        80.75915
950.26        81.02895
950.65        80.98547
951.04        80.20371
951.43        78.73167
951.82        76.77332
952.21        74.94745
952.60        74.18631
952.99        74.66059
953.38        76.08876
953.77         77.9096
954.16        79.12768
954.55        79.38602
954.94        78.91463
955.33        78.03108
955.72        77.28886
956.11        76.89365
956.50        76.70172
956.89        76.57124
957.28        76.28714
957.66         75.8354
958.05        75.34452
958.44        75.05277
958.83        75.28416
959.22        76.07384
959.61        77.24452
960.00        78.49909
960.39        79.33705
960.78        79.56481
961.16        79.31122
961.55        78.67323
961.94        77.81344
962.33        76.86996
962.72        75.85287
963.11        74.98374
963.49        74.63627
963.88        74.84631
964.27        75.55798
964.66         76.5452
965.04        77.41687
965.43        77.94248
965.82        78.18414
966.21         78.1971
966.60        78.11442
966.98        78.00421
967.37        77.81403
967.76        77.48811
968.15        76.92734
968.53        76.18701
968.92        75.31853
969.31        74.61246
969.69        74.50843
970.08        75.03938
970.47        76.03841
970.86        77.17971
971.24        77.93302
971.63        78.14387
972.02        78.04654
972.40        77.72713
972.79         77.2962
973.17        76.94953
973.56        76.54488
973.95        76.50308
974.33        77.51386
974.72        79.56483
975.11        82.55901
975.49        85.75392
975.88        87.35088
976.26        86.77906
976.65        84.50542
977.04        81.46916
977.42        78.96288
977.81        77.39732
978.19        76.37646
978.58        75.80111
978.96        75.31672
979.35        74.81622
979.74        74.41386
980.12         74.1376
980.51        73.84042
980.89        73.58755
981.28        73.38282
981.66        73.19556
982.05        72.93308
982.43        72.64072
982.82        72.28194
983.20         72.2426
983.59        73.12935
983.97        75.08327
984.35        77.94305
984.74        80.73644
985.12        81.96266
985.51        81.01668
985.89        78.49083
986.28        75.55533
986.66        73.52547
987.04        72.83681
987.43        73.03374
987.81        73.86313
988.20        74.64269
988.58        75.16022
988.96        75.65022
989.35        75.96517
989.73        75.96991
990.12        75.62312
990.50        74.81586
990.88        73.98809
991.27        73.84101
991.65        74.52288
992.03        76.04118
992.42        77.50428
992.80        77.52193
993.18        75.56989
993.56        72.37286
993.95        69.53208
994.33        68.56966
994.71        69.81757
995.10        72.74915
995.48        76.49574
995.86        78.52681
996.24        77.81213
996.63        75.28492
997.01        72.24028
997.39        70.39651
997.77        70.20189
998.15        71.06139
998.54        72.77197
998.92        75.02591
999.30        77.49719
999.68        80.33392
1000.06        82.81193
1000.45        83.54486
1000.83        82.41715
1001.21        79.73592
1001.59        76.63476
1001.97        74.70419
1002.35        74.28943
1002.73        75.05962
1003.12        76.49005
1003.50        77.67836
1003.88        78.20542
1004.26        78.38366
1004.64        78.50015
1005.02         79.0326
1005.40        80.01421
1005.78        80.99648
1006.16        81.76524
1006.54        82.06496
1006.92        81.75542
1007.30        81.06507
1007.69        79.53062
1008.07        76.59716
1008.45        72.69569
1008.83        68.50806
1009.21        65.35754
1009.59        64.53118
1009.97        66.06689
1010.35        69.83814
1010.73        74.80831
1011.11        78.22039
1011.49         78.6823
1011.86        76.45477
1012.24        73.60173
1012.62        73.54295
1013.00        77.27198
1013.38        84.36528
1013.76        92.28838
1014.14        94.38702
1014.52        89.00751
1014.90         80.0551
1015.28        71.83976
1015.66         67.8559
1016.04        68.14014
1016.41        71.72635
1016.79        77.72647
1017.17        84.11768
1017.55        88.96737
1017.93        92.72926
1018.31        93.85242
1018.69        90.40824
1019.06        83.35855
1019.44        74.80061
1019.82        67.76977
1020.20        64.73209
1020.58        65.36412
1020.95        69.18939
1021.33        74.72575
1021.71        77.94369
1022.09        76.99122
1022.46         72.7748
1022.84        68.33755
1023.22        67.61208
1023.60        71.66062
1023.97        80.50317
1024.35        91.56552
1024.73        95.59418
