SpectraSmart Spectrum 2.9.0.0
--------- Device Information -----------
Spectrum Name :  反射率_0
Saving Time :  2024/05/03 20:57:07
Spectro-Module Model Name : SE2030-DUVN
Spectro-Module Serial Number : OS361AC55029948
Wavelength Start : 200
Wavelength End : 1025
Wavelength Unit : Wavelength(nm)
Spectrum Unit : Reflectance(%)
-----------Spectrum Setting ------------
Integration Time : 20ms
Average : 10
Boxcar : 0
Background removal :  enabled
linearity correction :  enabled
SC :  disabled
Intensity correction :  disabled
DWT denoise :  enabled
savitzky-golay :  disabled
FFT :  disabled
Running average :  disabled
Kalman :  disabled
High pass :  disabled
---------------BEGIN--------------------
Wavelength(nm)             Reflectance(%)
200.29               0
200.75       -4.285327
201.21       -40.12034
201.67        2510.574
202.13        123.1871
202.58        83.10976
203.04         68.4936
203.50          61.094
203.96        57.14715
204.42        55.16116
204.88        56.04384
205.34       -40.39532
205.80        38.76035
206.26        29.92165
206.72       -6938.703
207.18        89.11918
207.64        94.85854
208.10        129.7411
208.55        260.9167
209.01        1531.454
209.47        2156.491
209.93        341.7546
210.39        154.9816
210.85          105.16
211.31        93.73139
211.77        100.8486
212.23        132.9577
212.69        222.8245
213.14        285.0426
213.60        165.5379
214.06        88.13676
214.52        59.47807
214.98        54.59917
215.44        67.76296
215.90        135.4359
216.36       -863.6126
216.81       -172.2513
217.27       -179.7625
217.73       -318.3901
218.19       -1175.732
218.65       -23999.29
219.11       -1783.822
219.57       -492.4153
220.02       -297.0779
220.48       -514.5563
220.94        600.6903
221.40        191.1299
221.86         132.341
222.32        119.9376
222.77        125.1365
223.23        145.7663
223.69        182.2613
224.15        206.4345
224.61        194.9674
225.06        169.0167
225.52        151.6732
225.98        151.7911
226.44        168.0564
226.90        197.7812
227.36        237.8587
227.81        268.8471
228.27        274.0852
228.73        262.1287
229.19        241.8334
229.65        220.1967
230.10         199.819
230.56        182.0165
231.02        167.7632
231.48        158.8369
231.93        154.4847
232.39        153.9216
232.85        155.7103
233.31         158.405
233.77        161.2998
234.22        164.2205
234.68        167.2497
235.14        170.5988
235.60        174.1153
236.05        178.0017
236.51         179.811
236.97        176.1271
237.43        166.9762
237.88        154.2166
238.34        142.5123
238.80        137.0772
239.26        139.1089
239.71         149.727
240.17        172.6487
240.63        195.4158
241.08        200.3858
241.54        181.7717
242.00        156.9634
242.46        145.2508
242.91        149.3818
243.37        168.5106
243.83        207.0953
244.28        245.8904
244.74        238.1135
245.20        191.0373
245.66        136.1718
246.11        96.79819
246.57        73.59858
247.03        59.04076
247.48         51.0138
247.94        47.21625
248.40        45.99031
248.85        47.26809
249.31        50.06986
249.77        51.22936
250.22        50.34845
250.68        49.11776
251.14        49.17804
251.59         52.8009
252.05        61.53732
252.51        77.30756
252.96        103.3948
253.42         135.062
253.88         158.549
254.33        168.0728
254.79        164.5552
255.25        152.6048
255.70        139.1921
256.16        128.7352
256.62        122.1257
257.07        119.9092
257.53         121.417
257.99        124.3488
258.44        127.1659
258.90        129.1203
259.35        129.2716
259.81        129.1321
260.27        128.1976
260.72        125.9921
261.18        123.6746
261.63        120.9651
262.09         119.102
262.55        118.4814
263.00        118.7379
263.46        119.6704
263.91        120.4935
264.37        120.7692
264.83        120.2354
265.28         119.116
265.74        117.6589
266.19         115.567
266.65        113.2128
267.11        110.5272
267.56        107.9819
268.02        106.4806
268.47        105.9837
268.93        106.3234
269.38        106.7898
269.84        106.1833
270.30        104.3228
270.75        101.6281
271.21         99.0061
271.66        97.53162
272.12        97.40133
272.57        98.07572
273.03         98.9421
273.48        99.02168
273.94        98.09351
274.39         96.5201
274.85        94.58797
275.31        92.45905
275.76        90.27588
276.22        88.15215
276.67        86.32457
277.13        85.45745
277.58         85.3603
278.04        85.87064
278.49        86.30761
278.95        85.73724
279.40        83.94775
279.86        81.53616
280.31        78.91511
280.77        76.90547
281.22        75.46121
281.68        74.45398
282.13        73.62778
282.59         72.8331
283.04        71.93362
283.50         71.0653
283.95         70.1853
284.41        69.35197
284.86        68.50049
285.32        67.66996
285.77        66.77032
286.22        65.81629
286.68        64.85706
287.13        63.84917
287.59        62.92609
288.04        62.11827
288.50        61.48054
288.95        60.94616
289.41        60.46555
289.86         59.8775
290.32        59.20367
290.77        58.43401
291.22        57.70292
291.68        57.17137
292.13        56.82075
292.59        56.63245
293.04        56.44876
293.50        56.05907
293.95         55.4287
294.40        54.65469
294.86        53.96104
295.31        53.62862
295.77        53.70774
296.22        54.08184
296.68        54.54294
297.13         54.7569
297.58        54.62103
298.04        54.28046
298.49        53.83684
298.95         53.5131
299.40        53.33718
299.85        53.24619
300.31        53.25965
300.76        53.37048
301.21        53.56874
301.67        53.86415
302.12        54.11707
302.58        54.15424
303.03        53.92629
303.48        53.50851
303.94         53.0977
304.39        52.89455
304.84        52.96508
305.30        53.22868
305.75        53.51561
306.20        53.61417
306.66        53.49681
307.11         53.2153
307.57        52.89811
308.02        52.62967
308.47        52.47184
308.93        52.38886
309.38         52.3423
309.83        52.33985
310.29        52.36486
310.74        52.40035
311.19        52.40927
311.65         52.3225
312.10        52.11584
312.55        51.81328
313.00         51.4518
313.46        51.09726
313.91        50.75904
314.36         50.4458
314.82        50.16929
315.27        49.92837
315.72        49.73062
316.18        49.57693
316.63         49.4626
317.08        49.38365
317.53        49.33117
317.99        49.29432
318.44        49.25596
318.89        49.16585
319.35        49.01426
319.80        48.81153
320.25        48.59732
320.70        48.44635
321.16        48.36035
321.61        48.31971
322.06        48.26625
322.51        48.10824
322.97        47.82383
323.42        47.46628
323.87        47.06945
324.32        46.69388
324.78        46.36201
325.23        46.07055
325.68        45.84415
326.13        45.72859
326.59        45.70956
327.04          45.803
327.49        45.91843
327.94        45.91782
328.39        45.76357
328.85        45.46734
329.30        45.14169
329.75        44.93317
330.20        44.88573
330.66         44.9407
331.11        45.03765
331.56        45.01829
332.01        44.84471
332.46        44.57075
332.92        44.25228
333.37        44.03448
333.82        43.94522
334.27        43.95114
334.72        44.02368
335.17        44.11587
335.63        44.18808
336.08        44.27124
336.53         44.3472
336.98        44.40488
337.43        44.43956
337.88        44.44986
338.34        44.41861
338.79        44.33507
339.24         44.2052
339.69        44.04473
340.14        43.90709
340.59        43.87526
341.05        43.96311
341.50        44.14761
341.95        44.36758
342.40         44.5279
342.85        44.59763
343.30        44.59942
343.75        44.55573
344.20        44.50786
344.66        44.48392
345.11        44.46493
345.56        44.45549
346.01        44.46171
346.46         44.4828
346.91        44.51366
347.36          44.563
347.81        44.63974
348.26        44.74082
348.72        44.87054
349.17        44.97342
349.62        44.97476
350.07        44.86722
350.52        44.67031
350.97        44.47491
351.42         44.4295
351.87         44.5514
352.32        44.77923
352.77        44.99631
353.22        45.01721
353.67        44.80209
354.13        44.43604
354.58        43.98319
355.03        43.57228
355.48        43.25882
355.93        43.02054
356.38        42.87045
356.83        42.82852
357.28        42.87977
357.73         43.0027
358.18        43.15413
358.63        43.25886
359.08        43.28201
359.53        43.23196
359.98        43.07782
360.43        42.78565
360.88        42.36675
361.33        41.83787
361.78        41.29855
362.23        40.89853
362.68        40.67222
363.13        40.59433
363.58         40.5585
364.03        40.38665
364.48        40.04235
364.93        39.57811
365.38        39.12036
365.83         38.8636
366.28        38.84107
366.73        38.98158
367.18        39.14003
367.63         39.0871
368.08        38.76828
368.53        38.26118
368.98        37.70205
369.43        37.29375
369.88        37.08856
370.33        37.02825
370.78        37.01905
371.23        36.90681
371.68        36.64901
372.13        36.29836
372.58        35.94086
373.03        35.69941
373.48        35.59647
373.93        35.58476
374.38        35.57651
374.83        35.43635
375.28        35.13507
375.72        34.71273
376.17        34.28605
376.62        33.96596
377.07         33.7763
377.52        33.67716
377.97        33.61007
378.42        33.48561
378.87        33.28315
379.32          33.038
379.77        32.79514
380.22        32.60989
380.67        32.49244
381.11        32.43086
381.56        32.37555
382.01         32.2762
382.46        32.12108
382.91        31.92409
383.36        31.73494
383.81        31.62341
384.26        31.59547
384.71        31.62881
385.15        31.64256
385.60        31.52912
386.05        31.26582
386.50        30.89464
386.95        30.51853
387.40        30.29064
387.85        30.24014
388.29        30.30304
388.74        30.40726
389.19        30.38067
389.64        30.19066
390.09        29.88446
390.54        29.56588
390.98        29.37232
391.43        29.34803
391.88        29.49137
392.33        29.68492
392.78        29.61567
393.23        29.33831
393.67        29.20752
394.12        29.25125
394.57        29.20539
395.02        29.07001
395.47        28.97962
395.91        28.95056
396.36        28.92263
396.81        28.90929
397.26        28.94092
397.71        28.95311
398.15        28.88353
398.60        28.77037
399.05        28.46748
399.50        28.12228
399.95        28.26887
400.39        28.78947
400.84        28.83106
401.29        28.40568
401.74        28.22704
402.18        28.31935
402.63        28.27811
403.08        28.13643
403.53        27.91078
403.97        28.01198
404.42        28.05185
404.87        28.11261
405.32        28.12959
405.76        28.08357
406.21        28.00132
406.66        27.89956
407.11        27.81411
407.55        27.76073
408.00        27.72062
408.45        27.67843
408.90        27.60211
409.34        27.48652
409.79        27.34816
410.24        27.22284
410.68        27.15412
411.13        27.15219
411.58        27.20305
412.03        27.26423
412.47        27.26736
412.92        27.18517
413.37        27.04111
413.81        26.88368
414.26        26.81269
414.71        26.83051
415.15        26.92696
415.60        27.01799
416.05        26.99174
416.49        26.82699
416.94        26.57361
417.39         26.3307
417.83        26.23828
418.28        26.32309
418.73        26.52942
419.17        26.78292
419.62        26.93961
420.07        26.95477
420.51        26.86436
420.96        26.71116
421.41        26.53671
421.85        26.35622
422.30        26.17897
422.74        26.01228
423.19        25.94249
423.64         25.9563
424.08        26.00334
424.53        26.05264
424.98          26.153
425.42        26.30551
425.87        26.40096
426.31        26.44485
426.76        26.60938
427.21        26.81717
427.65        26.70119
428.10        26.34693
428.54        26.18249
428.99         26.2599
429.44        26.46222
429.88        26.63975
430.33        26.52141
430.77        26.16789
431.22        25.94468
431.66        25.92376
432.11         26.1155
432.56        26.43374
433.00        26.62689
433.45        26.48978
433.89        26.35663
434.34        25.38567
434.78        25.41962
435.23        25.94863
435.67        26.13831
436.12        25.91013
436.57        25.86273
437.01        26.02618
437.46        26.10595
437.90        26.09198
438.35        26.07125
438.79        26.03252
439.24        25.93857
439.68        25.80638
440.13        25.71814
440.57        25.66653
441.02        25.59165
441.46         25.4884
441.91        25.41133
442.35        25.36033
442.80        25.40968
443.24        25.52756
443.69         25.6594
444.13         25.7571
444.58        25.80098
445.02        25.77549
445.47         25.6726
445.91         25.5393
446.36        25.48159
446.80        25.51154
447.24        25.60688
447.69        25.72172
448.13        25.78072
448.58        25.76851
449.02        25.70185
449.47        25.62754
449.91        25.59984
450.36        25.63708
450.80        25.71117
451.25        25.78428
451.69        25.78728
452.13        25.70946
452.58        25.57634
453.02         25.4291
453.47         25.3436
453.91        25.33607
454.36        25.38337
454.80        25.44004
455.24        25.47436
455.69        25.48461
456.13        25.39672
456.58        25.24359
457.02        25.37234
457.46        25.38191
457.91        25.34161
458.35        25.16405
458.79         25.1646
459.24        25.31108
459.68        25.30243
460.13        25.17726
460.57        25.12519
461.01        25.16744
461.46         25.1952
461.90        25.18871
462.34        25.15356
462.79        25.08206
463.23        24.97498
463.68        24.88214
464.12        24.86254
464.56        24.92068
465.01        25.10493
465.45         25.3079
465.89        25.30232
466.34        25.14454
466.78        25.11284
467.22        25.23238
467.67        25.31518
468.11        25.34387
468.55        25.32856
468.99        25.28303
469.44        25.26339
469.88        25.27579
470.32        25.26257
470.77        25.22609
471.21        25.21157
471.65        25.21742
472.10        25.23223
472.54        25.23666
472.98        25.21345
473.42        25.16205
473.87        25.10197
474.31        25.03639
474.75        24.99337
475.20        24.98855
475.64        24.99914
476.08        25.02006
476.52        25.07995
476.97        25.17985
477.41        25.24234
477.85         25.2264
478.29        25.54957
478.74        25.35608
479.18        25.51589
479.62        25.73375
480.06        25.81912
480.50        25.75204
480.95        25.65926
481.39        25.58067
481.83        25.53886
482.27        25.56542
482.72        25.68051
483.16        25.82372
483.60        25.93562
484.04        26.01859
484.48        25.90065
484.93        25.72434
485.37        26.10126
485.81        26.81953
486.25        26.78278
486.69        26.97592
487.14        26.73421
487.58        26.57426
488.02        26.30919
488.46        26.87282
488.90        26.58754
489.34        26.72723
489.79        26.58649
490.23         26.5674
490.67        26.86494
491.11        27.36703
491.55        27.48368
491.99        27.23757
492.43        27.22415
492.88        27.46434
493.32        27.61685
493.76        27.65266
494.20        27.70588
494.64        27.78368
495.08        27.85569
495.52        27.93553
495.96        28.05513
496.41        28.21375
496.85        28.36944
497.29        28.52015
497.73        28.72388
498.17         28.9375
498.61        29.04138
499.05        29.03178
499.49        28.94365
499.93        28.85353
500.37        28.94276
500.82        29.18308
501.26        29.33296
501.70        29.37016
502.14        29.45405
502.58        29.57406
503.02        29.63104
503.46        29.62313
503.90         29.5825
504.34        29.54318
504.78        29.56283
505.22         29.6573
505.66        29.79743
506.10        29.94266
506.54        30.09745
506.98        30.25814
507.42          30.304
507.86        30.20225
508.30        30.55941
508.74        30.31342
509.18         30.3276
509.62         30.3096
510.06        30.33247
510.50        30.39822
510.94        30.50387
511.38        30.63231
511.82        30.72133
512.26        30.75789
512.70        30.75985
513.14        30.73712
513.58        30.70766
514.02        30.67878
514.46        30.63951
514.90        30.60579
515.34        30.60413
515.78        30.63882
516.22        30.71154
516.66        30.78187
517.10        30.78243
517.54        30.70548
517.98        30.57111
518.42        30.44894
518.86        30.45045
519.30        30.59442
519.74        30.84194
520.18        31.10754
520.62        31.25225
521.06        31.23831
521.50        31.10584
521.93        30.92215
522.37        30.80186
522.81        30.77425
523.25        30.80506
523.69        30.85236
524.13        30.84973
524.57         30.7834
525.01        30.68649
525.45        30.58805
525.89        30.52941
526.32        30.51943
526.76        30.53906
527.20        30.58053
527.64        30.63757
528.08         30.6997
528.52        30.76839
528.96        30.81075
529.40        30.77564
529.83         30.6536
530.27        30.46673
530.71        30.26864
531.15        30.14704
531.59        30.12171
532.03        30.17394
532.46        30.24727
532.90        30.24855
533.34        30.16228
533.78        30.02604
534.22        29.89791
534.66         29.8627
535.09        29.92807
535.53         30.0586
535.97         30.2099
536.41        30.29042
536.85        30.27239
537.28        30.26749
537.72        30.26546
538.16        30.06125
538.60        29.76501
539.04        29.79003
539.47        30.08865
539.91        30.24473
540.35        30.23212
540.79        30.30083
541.22        30.43492
541.66        30.51315
542.10         30.5337
542.54        30.48595
542.97        30.42269
543.41        30.54722
543.85        30.81906
544.29        30.98067
544.72         31.0113
545.16        31.09781
545.60        31.23142
546.04        31.30579
546.47        31.32981
546.91        31.37602
547.35        31.45428
547.79        31.55805
548.22        31.68973
548.66        31.84931
549.10        32.04256
549.53        32.34217
549.97        32.69377
550.41        32.93425
550.84        33.03268
551.28        33.06488
551.72        33.06239
552.15         33.0532
552.59        33.07508
553.03        33.10879
553.46        33.15597
553.90         33.2616
554.34          33.409
554.77        33.55768
555.21        33.70164
555.65        33.85558
556.08        34.00822
556.52        34.14708
556.96         34.2617
557.39        34.37075
557.83        34.48466
558.27        34.54617
558.70        34.57832
559.14        34.70177
559.57        34.88276
560.01        34.97765
560.45        34.97456
560.88        34.98014
561.32        35.01703
561.75        34.99628
562.19        34.98235
562.63        35.04067
563.06         35.1669
563.50        35.45207
563.93        35.78578
564.37        35.74744
564.80        35.42793
565.24        35.46163
565.68        35.80371
566.11        35.93831
566.55        35.86628
566.98        35.85749
567.42        35.93922
567.85        36.12336
568.29        36.16315
568.72        36.30279
569.16        36.50883
569.60        36.64076
570.03        36.65212
570.47        36.97371
570.90        37.26571
571.34        36.95583
571.77        37.61397
572.21        37.61188
572.64        37.79577
573.08        37.54779
573.51        38.21946
573.95        38.17515
574.38        37.92344
574.82        37.65938
575.25        38.36922
575.69        38.40433
576.12        38.13468
576.56        38.08898
576.99        38.37224
577.42         38.8323
577.86        38.60558
578.29        38.85096
578.73        38.49287
579.16        38.52028
579.60        38.56487
580.03        38.56276
580.47        38.49366
580.90        38.25335
581.33        37.71448
581.77        38.35023
582.20        38.60812
582.64        38.01139
583.07        38.29198
583.51        37.94638
583.94        37.76362
584.37        37.60675
584.81        37.56777
585.24        37.41585
585.68        37.84422
586.11        37.18539
586.54        37.51504
586.98        37.28412
587.41        37.04104
587.85        37.30442
588.28        37.14856
588.71        37.07028
589.15        36.96504
589.58         37.0354
590.01        36.89942
590.45        36.86995
590.88        36.84277
591.31        36.94333
591.75        37.14428
592.18         37.0703
592.61        36.73454
593.05        37.05633
593.48        37.64589
593.91        37.16476
594.35        37.43793
594.78        37.38879
595.21        37.58775
595.65        37.57869
596.08        37.36266
596.51        37.91008
596.94        37.89944
597.38        38.14128
597.81        38.24521
598.24        38.42047
598.68        38.41695
599.11        38.68517
599.54        39.37601
599.97        39.05491
600.41        39.76868
600.84        39.95847
601.27        40.20346
601.70        40.38374
602.14         40.5644
602.57        40.95943
603.00         41.4608
603.43        41.97041
603.87        41.97426
604.30        42.23268
604.73        42.64873
605.16        42.93103
605.60        43.19305
606.03        43.49927
606.46        43.87886
606.89        44.11265
607.32        44.61607
607.76         44.9347
608.19        45.19323
608.62         45.4497
609.05        45.74648
609.48        46.04243
609.92          46.365
610.35        46.62345
610.78        47.41697
611.21        47.45229
611.64        47.93726
612.07        48.11633
612.50        48.32766
612.94        48.42246
613.37        48.42279
613.80        48.77115
614.23        48.69901
614.66         48.9496
615.09        49.30832
615.52        49.62968
615.96        49.82619
616.39        50.39744
616.82        50.49879
617.25        50.48344
617.68        50.85815
618.11        50.74917
618.54        50.51645
618.97        50.58842
619.40        50.99019
619.84        51.38187
620.27        51.68378
620.70        51.96483
621.13        52.18768
621.56        52.12716
621.99         51.8612
622.42        51.94887
622.85        52.36716
623.28        52.23656
623.71         51.9399
624.14        52.26616
624.57        51.79755
625.00        52.05379
625.43        52.02578
625.86        52.14912
626.29        52.18393
626.72         52.3802
627.15        52.25138
627.58        52.15018
628.01        51.92714
628.44        51.75661
628.87         51.6911
629.30        51.14166
629.73        50.90698
630.16        50.96654
630.59        50.58879
631.02         50.4488
631.45         50.2674
631.88        50.12202
632.31        49.98775
632.74         49.8357
633.17        49.63687
633.60        49.34094
634.03        48.94582
634.46        48.47429
634.89        47.97062
635.32        47.50594
635.75        47.10442
636.18        46.74879
636.61        46.43496
637.04        46.15352
637.47        45.89615
637.89        45.65854
638.32         45.3932
638.75        45.09531
639.18        44.77287
639.61        44.25757
640.04        43.93096
640.47        43.60211
640.90        43.38977
641.33         43.2622
641.76        43.20255
642.18        43.18126
642.61        43.16083
643.04        43.15316
643.47        43.13755
643.90        43.08073
644.33        42.97879
644.76        42.85052
645.18        42.73215
645.61         42.6264
646.04        42.54886
646.47        42.60391
646.90        42.83097
647.33        42.77303
647.75        43.22967
648.18        43.53043
648.61        43.90228
649.04        44.27744
649.47        44.64083
649.89        45.06929
650.32        45.48205
650.75        45.64192
651.18        45.62786
651.61        45.80582
652.03        46.19328
652.46        46.61855
652.89        47.02823
653.32        47.26852
653.74        47.47191
654.17        47.96246
654.60        48.04072
655.03        48.95157
655.46        49.09393
655.88        48.94812
656.31        51.72787
656.74         55.3337
657.16        52.27642
657.59        49.72515
658.02         51.4303
658.45         52.3093
658.87        53.27737
659.30        52.58387
659.73        52.57655
660.15        52.84478
660.58        52.59172
661.01        52.81914
661.44        53.04811
661.86        53.25986
662.29        53.40427
662.72        53.61067
663.14        53.89123
663.57        53.99399
664.00        53.99809
664.42        54.25251
664.85         54.7359
665.27        55.05513
665.70        55.18078
666.13        55.37849
666.55        55.64633
666.98        55.80961
667.41        55.88498
667.83        55.97168
668.26        56.08155
668.69        56.21426
669.11        56.33974
669.54        56.40469
669.96         56.4066
670.39        56.36315
670.82        56.38876
671.24        56.61634
671.67        57.05426
672.09        57.73174
672.52        58.47725
672.94        58.58035
673.37        58.66948
673.80        58.28649
674.22         57.8572
674.65        57.71646
675.07        57.96004
675.50        58.47516
675.92        59.10003
676.35         59.4908
676.77        59.55928
677.20        59.60233
677.62        59.38552
678.05        59.34921
678.47        59.44199
678.90        59.60893
679.32        59.81371
679.75        60.06474
680.17         60.3509
680.60        60.60042
681.02        60.75924
681.45        61.11439
681.87        61.02176
682.30        61.00718
682.72        60.94478
683.15         60.9515
683.57        61.05938
684.00        61.23847
684.42        61.45147
684.85        61.63736
685.27        61.77123
685.70        61.81065
686.12        61.76542
686.54        61.88617
686.97        62.10296
687.39         61.9756
687.82        61.56516
688.24        61.50881
688.66        61.81422
689.09        61.74225
689.51        61.74167
689.94        61.85241
690.36        62.22848
690.78        62.55732
691.21        62.70433
691.63        63.36296
692.06        62.92662
692.48        63.20966
692.90        63.67178
693.33        63.89778
693.75        63.87313
694.17        63.77256
694.60        63.69128
695.02        64.12039
695.44         64.2301
695.87        64.75514
696.29        65.29493
696.71        65.38501
697.14        65.06088
697.56        64.83081
697.98        64.79319
698.41        64.72607
698.83        64.64137
699.25        64.74604
699.68        64.97545
700.10        65.18517
700.52        65.31976
700.94        65.42905
701.37        65.52431
701.79        65.64446
702.21        65.78296
702.64        65.91964
703.06        66.03389
703.48        66.10587
703.90        66.14144
704.33        66.15924
704.75        66.18597
705.17        66.24702
705.59        66.34789
706.01        66.46947
706.44        66.62497
706.86        66.83247
707.28        67.05907
707.70        67.38333
708.12           67.72
708.55        67.72653
708.97        67.47816
709.39        67.48798
709.81        67.76441
710.23        67.89875
710.66        67.88074
711.08        67.98299
711.50        68.18902
711.92        68.36304
712.34        68.49443
712.76        68.61749
713.19        68.70683
713.61        68.78255
714.03        68.81738
714.45        68.80052
714.87        68.75735
715.29        68.73251
715.71        68.73654
716.13        68.76721
716.56        68.77142
716.98        68.74593
717.40        68.67363
717.82        68.52984
718.24        68.39043
718.66        68.50121
719.08        68.82004
719.50         69.0106
719.92         69.0761
720.34         69.2769
720.76        69.60876
721.19         69.9002
721.61        70.09343
722.03        70.17303
722.45         70.1622
722.87        69.90763
723.29        69.52046
723.71        69.65388
724.13        70.35703
724.55        69.92691
724.97        70.48283
725.39        70.52205
725.81        70.67118
726.23        70.69447
726.65        70.65256
727.07          70.703
727.49        70.84863
727.91        71.05708
728.33        71.28738
728.75        71.47594
729.17        71.59977
729.59        71.68358
730.01        71.74464
730.43        71.80531
730.85        71.87538
731.27        71.94332
731.69        72.01037
732.10        72.08826
732.52        72.17142
732.94        72.25689
733.36        72.32777
733.78        72.34834
734.20        72.32139
734.62        72.27975
735.04        72.25137
735.46        72.21194
735.88        72.17645
736.30        72.18682
736.72        72.28392
737.13         72.4194
737.55        72.52744
737.97        72.89299
738.39        73.37318
738.81        73.12432
739.23        72.38206
739.65         72.5918
740.06        73.55672
740.48        73.82941
740.90         73.3377
741.32        72.90523
741.74        72.71327
742.16        72.67748
742.57        72.86401
742.99        73.26743
743.41        73.77203
743.83        74.17109
744.25         74.3995
744.67        74.49265
745.08        74.51598
745.50         74.5405
745.92        74.60911
746.34        74.67624
746.75        74.71165
747.17        74.69301
747.59         74.6141
748.01        74.50377
748.42        74.38591
748.84        74.28422
749.26        74.19777
749.68        74.13244
750.09        74.12682
750.51        74.13613
750.93        74.24233
751.35        74.79689
751.76        75.62272
752.18        75.95969
752.60        75.72562
753.01        75.28182
753.43        74.84265
753.85        74.61738
754.27        74.68018
754.68        75.01038
755.10         75.5027
755.52        75.62367
755.93        75.91933
756.35        76.00776
756.77        76.01286
757.18        76.03954
757.60        76.18084
758.02        75.86547
758.43        75.21354
758.85        76.37868
759.26        77.51399
759.68        77.58977
760.10        76.75563
760.51        76.81702
760.93        76.89901
761.34        76.58063
761.76        77.38303
762.18         76.7483
762.59        75.60535
763.01        75.62618
763.42        76.79317
763.84        77.31544
764.26        77.01168
764.67        76.46152
765.09        75.99116
765.50        76.15839
765.92        76.86227
766.33        77.00804
766.75        76.53721
767.16         76.5866
767.58        77.13977
768.00        77.31715
768.41        77.20446
768.83        77.72664
769.24        78.59909
769.66          78.541
770.07        77.63735
770.49        76.80987
770.90         76.3212
771.32        76.47613
771.73        77.14414
772.15        77.52985
772.56        77.59071
772.97        77.75117
773.39        78.02832
773.80        78.47314
774.22        78.92079
774.63        78.93336
775.05        78.54649
775.46        78.36668
775.88        78.43314
776.29        78.44219
776.70        78.38584
777.12        78.41634
777.53        78.54486
777.95        78.69493
778.36        78.84779
778.77        78.88795
779.19        78.80782
779.60        78.78432
780.02        78.78922
780.43        78.57599
780.84        78.32736
781.26        78.37697
781.67        78.77226
782.09        79.58298
782.50        80.60321
782.91        80.35616
783.33        80.38728
783.74        80.19643
784.15        80.14879
784.57        79.86583
784.98        79.43538
785.39        79.19515
785.81        79.21984
786.22        79.57903
786.63         80.0962
787.04         80.3298
787.46        80.23071
787.87        79.95888
788.28        79.68545
788.70        79.59735
789.11        79.73025
789.52        80.04736
789.93        80.43198
790.35        80.67995
790.76          80.757
791.17        80.71226
791.58         80.6561
792.00        80.69043
792.41        80.86782
792.82        81.27033
793.23        81.74373
793.65        81.76933
794.06        81.50352
794.47        81.60606
794.88        81.87908
795.29        82.39454
795.71        81.43501
796.12         80.9076
796.53         80.5032
796.94         80.1818
797.35        80.09924
797.76        80.72215
798.18        81.74088
798.59        82.20399
799.00        81.93314
799.41        81.33752
799.82        80.73853
800.23         80.5321
800.64        80.83658
801.06        81.47588
801.47        82.26991
801.88        82.76584
802.29        82.80918
802.70        82.52465
803.11        82.06864
803.52        81.69048
803.93         81.4883
804.34         81.3966
804.75        81.36658
805.17        81.33757
805.58        81.32281
805.99        81.27534
806.40        81.25858
806.81        81.50281
807.22        81.92288
807.63        82.14856
808.04        82.16239
808.45        82.21442
808.86        82.29896
809.27        82.24188
809.68        82.07948
810.09        81.97318
810.50        81.95326
810.91        81.97976
811.32        82.03154
811.73        82.06789
812.14        82.07529
812.55        82.07853
812.96        82.08163
813.37        82.08292
813.78        82.08852
814.19        82.09628
814.60        82.12225
815.01        82.19588
815.42        82.32189
815.83         82.4902
816.24        82.67645
816.65         82.8291
817.05        82.92503
817.46        82.93131
817.87        82.89581
818.28        82.83545
818.69        82.76581
819.10        82.68738
819.51        82.61069
819.92        82.57817
820.33        82.59634
820.74        82.58465
821.14        82.55135
821.55        82.66392
821.96        82.84704
822.37        82.80922
822.78        82.53494
823.19        82.29667
823.60        82.13438
824.00        81.89254
824.41        81.66238
824.82        81.78423
825.23        82.29008
825.64        83.07081
826.04        83.93703
826.45        84.44353
826.86        84.50496
827.27        84.24249
827.68        83.79375
828.08          83.424
828.49        83.19374
828.90        83.05528
829.31        83.05946
829.72        83.28738
830.12        83.75931
830.53        84.39426
830.94        85.03194
831.35        85.31853
831.75        85.17439
832.16        84.62454
832.57        83.89817
832.97        83.34573
833.38        83.08418
833.79         83.0358
834.20        83.09145
834.60         83.0601
835.01        82.91399
835.42        82.72639
835.82        82.59703
836.23        82.62139
836.64        82.83958
837.04         83.2223
837.45        83.62207
837.86        83.94906
838.26        84.16333
838.67         84.2336
839.08        84.18694
839.48        84.04459
839.89        83.82505
840.29         83.5041
840.70        83.15498
841.11        82.81442
841.51        82.53177
841.92        82.33768
842.33        82.20452
842.73        82.08128
843.14        81.92087
843.54        81.74992
843.95        81.74066
844.35        82.21671
844.76        83.14997
845.17        84.44154
845.57        85.72503
845.98        86.20174
846.38         85.7464
846.79        84.60566
847.19        83.21691
847.60        82.28958
848.00         82.0119
848.41        82.16353
848.81        82.65125
849.22        83.18646
849.62        83.70069
850.03        84.21985
850.43        84.66748
850.84        84.75053
851.24        84.48386
851.65        83.87981
852.05         83.1875
852.46        82.83099
852.86        82.87579
853.27        83.23393
853.67        83.67202
854.07        84.09299
854.48        84.38107
854.88        84.67152
855.29        84.76473
855.69        84.58888
856.10        84.02994
856.50        83.21248
856.90        82.37929
857.31        81.93353
857.71        81.98995
858.12        82.39672
858.52        83.01836
858.92        83.35606
859.33        83.24294
859.73        82.87593
860.13         82.3924
860.54        82.04853
860.94        81.97021
861.34        82.03729
861.75        82.19637
862.15        82.48131
862.55        82.80032
862.96        83.14919
863.36        83.41812
863.76        83.42639
864.17        83.13889
864.57        82.65347
864.97        82.04378
865.38        81.41705
865.78        80.88309
866.18        80.39903
866.58        80.09456
866.99        80.17579
867.39        80.67504
867.79        81.48566
868.19        82.32194
868.60        82.71668
869.00        82.57449
869.40        82.02576
869.80        81.28593
870.21        80.76544
870.61        80.64152
871.01        80.76653
871.41        81.05447
871.81        81.37213
872.22        81.64075
872.62        81.98218
873.02         82.3635
873.42        82.68937
873.82        82.93093
874.22        83.08041
874.63        83.24174
875.03         83.5609
875.43        84.06089
875.83        84.64119
876.23        85.18604
876.63         85.4895
877.03        85.50261
877.44        85.36263
877.84        85.01219
878.24        84.38789
878.64        83.54967
879.04        82.50178
879.44        81.64322
879.84        81.54694
880.24        82.24844
880.64        83.60785
881.04        84.94727
881.44        85.04732
881.84        83.68208
882.24        81.33711
882.65        78.95445
883.05        77.75508
883.45        78.04774
883.85        79.45263
884.25        81.42139
884.65        82.93229
885.05        83.56738
885.45        83.59029
885.85        83.27097
886.25        83.03477
886.65        83.01411
887.05        83.02705
887.45        82.96178
887.85        82.68796
888.25        82.20074
888.65         81.6452
889.04        81.13115
889.44         80.8209
889.84        80.74545
890.24         80.8567
890.64        81.14883
891.04        81.61088
891.44        82.19312
891.84        82.86809
892.24        83.52116
892.64        83.97959
893.04        84.22274
893.44        84.30892
893.83         84.3561
894.23        84.48491
894.63        84.75791
895.03        85.05535
895.43        85.39391
895.83        85.80075
896.23        86.24252
896.63        86.75916
897.02        87.04643
897.42        86.61333
897.82        85.45864
898.22        83.77556
898.62        82.19086
899.01        81.58329
899.41        82.12006
899.81        83.57989
900.21        85.32667
900.61        86.12875
901.00        85.61533
901.40         84.2537
901.80        82.78436
902.20        82.24007
902.59        82.85594
902.99        84.26176
903.39        85.97878
903.79        86.97661
904.18        86.86979
904.58        86.05507
904.98        85.02101
905.38        84.42067
905.77        84.39998
906.17        84.74622
906.57         85.2661
906.96        85.71568
907.36        85.92317
907.76        85.99496
908.15        85.96856
908.55        85.78773
908.95        85.51128
909.34         85.1496
909.74         84.7384
910.14        84.29446
910.53        83.85473
910.93        83.45948
911.33        83.25504
911.72         83.4751
912.12        84.12691
912.52        85.11034
912.91        86.17099
913.31         86.8808
913.70        87.14663
914.10        86.99422
914.49        86.63831
914.89        86.36884
915.29         86.3221
915.68        86.42912
916.08        86.55404
916.47        86.42835
916.87        86.04078
917.26         85.4332
917.66        84.88862
918.05        84.78702
918.45        85.15656
918.84        85.96832
919.24        86.71872
919.64        86.67828
920.03        85.70549
920.42        84.05187
920.82        82.46287
921.21        81.80274
921.61        82.23313
922.00        83.55601
922.40        85.14546
922.79        85.99818
923.19        85.75134
923.58        84.74425
923.98        83.62762
924.37        83.30768
924.77        83.99708
925.16        85.43655
925.55        87.10101
925.95        88.03204
926.34        87.97137
926.74        87.18784
927.13        86.15057
927.52        85.56428
927.92         85.6067
928.31         86.0337
928.70        86.56198
929.10        86.71733
929.49        86.40338
929.89        85.83398
930.28        85.22209
930.67        84.83726
931.07         84.7595
931.46        84.87898
931.85        85.21223
932.24        85.82816
932.64        86.64433
933.03        87.71778
933.42        88.68755
933.82         88.9762
934.21        88.51894
934.60        87.46721
934.99        86.32843
935.39        85.86245
935.78        86.22036
936.17        87.14886
936.56        88.26214
936.96        88.89545
937.35        88.88398
937.74        88.43517
938.13        87.65201
938.53        86.68906
938.92        85.68332
939.31        84.69321
939.70        83.98604
940.09        83.99068
940.49        84.68938
940.88        85.93064
941.27         87.4734
941.66        88.86427
942.05        89.82662
942.44        90.45914
942.84        90.36942
943.23        88.98793
943.62        86.49496
944.01        83.32146
944.40        80.48431
944.79        79.24474
945.18        79.76255
945.57        81.74072
945.97        84.42274
946.36        86.53183
946.75        87.31969
947.14        87.11605
947.53        86.44618
947.92        86.23293
948.31        86.73598
948.70        87.54874
949.09        88.42957
949.48        89.04285
949.87        89.24174
950.26        89.23462
950.65        88.94864
951.04        88.20838
951.43        87.09064
951.82         85.6926
952.21        84.41623
952.60        83.86797
952.99        84.15055
953.38        85.09377
953.77          86.291
954.16        87.02154
954.55         87.0349
954.94        86.48557
955.33         85.6636
955.72        85.06444
956.11         84.8607
956.50        84.95341
956.89        85.12148
957.28        85.00742
957.66        84.56895
958.05        83.93149
958.44        83.47793
958.83        83.79366
959.22        84.94757
959.61         86.6711
960.00        88.44514
960.39        89.37005
960.78        89.18169
961.16        88.21087
961.55        86.76099
961.94        85.31628
962.33        84.12254
962.72        83.04104
963.11        82.38895
963.49        82.69756
963.88        83.93331
964.27        85.98531
964.66        88.12585
965.04        89.12228
965.43        88.59708
965.82        86.89301
966.21        84.74617
966.60        83.43672
966.98        83.36079
967.37        84.13528
967.76        85.26326
968.15        85.88693
968.53        85.75895
968.92        85.11617
969.31        84.30742
969.69        83.86357
970.08        83.90931
970.47         84.2669
970.86        84.68594
971.24        84.80199
971.63        84.52949
972.02        84.08242
972.40        83.72178
972.79        83.78463
973.17        84.44513
973.56        85.46831
973.95        86.79633
974.33        88.41177
974.72        90.14074
975.11          91.996
975.49        93.76009
975.88        94.74289
976.26         94.7332
976.65        93.79739
977.04        92.19904
977.42        90.27502
977.81        88.27293
978.19        86.16714
978.58        84.20837
978.96        82.53419
979.35        81.24478
979.74        80.32407
980.12        79.80921
980.51        79.58426
980.89        79.69223
981.28        80.13662
981.66        80.81966
982.05        81.45927
982.43        81.99206
982.82        82.35546
983.20        82.83146
983.59        83.93083
983.97        85.80688
984.35         88.3023
984.74        90.62235
985.12        91.68282
985.51        90.99785
985.89        89.05242
986.28        86.75932
986.66        85.06101
987.04        84.30879
987.43        84.08088
987.81        84.30446
988.20        84.60862
988.58        84.93147
988.96        85.47552
989.35        85.81393
989.73        85.35355
990.12        84.03895
990.50        81.96349
990.88        80.10205
991.27        79.91821
991.65        81.70451
992.03        85.28336
992.42        89.18698
992.80        90.70376
993.18         88.7147
993.56        84.38407
993.95        80.01767
994.33        77.92599
994.71        78.64413
995.10        81.42721
995.48        85.34055
995.86        87.67062
996.24        87.26163
996.63        85.08201
997.01         82.5019
997.39        81.36168
997.77        82.08704
998.15         83.9811
998.54        86.43296
998.92        88.47875
999.30        89.60748
999.68        90.17616
1000.06        90.04865
1000.45        88.98067
1000.83        87.31467
1001.21        85.10189
1001.59        83.05447
1001.97        82.13725
1002.35        82.49861
1002.73        83.96259
1003.12        86.00726
1003.50        87.72885
1003.88        88.65482
1004.26        88.98457
1004.64        88.97954
1005.02        89.15947
1005.40        89.59181
1005.78         89.8734
1006.16        89.87704
1006.54        89.44688
1006.92        88.50478
1007.30        87.30714
1007.69         85.4571
1008.07         82.4994
1008.45        78.84244
1008.83        75.07373
1009.21        72.37955
1009.59        71.94043
1009.97        73.77258
1010.35        77.74183
1010.73        82.80303
1011.11        86.17776
1011.49        86.47377
1011.86        84.02444
1012.24        80.85012
1012.62        80.26337
1013.00        83.27601
1013.38         89.5099
1013.76        96.89365
1014.14         99.7336
1014.52        96.33369
1014.90        89.79549
1015.28        83.74784
1015.66        81.30034
1016.04        82.61099
1016.41        86.98615
1016.79        93.35115
1017.17        99.36286
1017.55        102.8879
1017.93        104.2428
1018.31        102.6651
1018.69        97.81271
1019.06        90.98382
1019.44        83.83404
1019.82        78.07883
1020.20        74.85936
1020.58        73.80021
1020.95        74.62587
1021.33        76.71163
1021.71        78.51371
1022.09        79.16901
1022.46        78.64754
1022.84        78.14205
1023.22        79.26402
1023.60        82.50989
1023.97        88.22108
1024.35         94.1452
1024.73        94.01694
