SpectraSmart Spectrum 2.9.0.0
--------- Device Information -----------
Spectrum Name :  反射率_0
Saving Time :  2024/05/03 21:02:30
Spectro-Module Model Name : SE2030-DUVN
Spectro-Module Serial Number : OS361AC55029948
Wavelength Start : 200
Wavelength End : 1025
Wavelength Unit : Wavelength(nm)
Spectrum Unit : Reflectance(%)
-----------Spectrum Setting ------------
Integration Time : 20ms
Average : 10
Boxcar : 0
Background removal :  enabled
linearity correction :  enabled
SC :  disabled
Intensity correction :  disabled
DWT denoise :  enabled
savitzky-golay :  disabled
FFT :  disabled
Running average :  disabled
Kalman :  disabled
High pass :  disabled
---------------BEGIN--------------------
Wavelength(nm)             Reflectance(%)
200.29               0
200.75        21.37438
201.21        14.79858
201.67        383.9639
202.13        33.18618
202.58        23.74232
203.04        18.31161
203.50        14.61391
203.96        12.77557
204.42        12.67007
204.88        15.12406
205.34        -111.425
205.80       -8.190198
206.26       -22.18357
206.72       -11428.07
207.18        63.69624
207.64        50.67752
208.10        55.25344
208.55        84.81147
209.01        391.5623
209.47        610.2788
209.93        131.2846
210.39        79.32545
210.85        64.85061
211.31        60.87895
211.77        61.35993
212.23        66.93928
212.69        79.28419
213.14        68.61554
213.60        32.93371
214.06        20.97493
214.52        19.23397
214.98        21.08678
215.44        27.26209
215.90        51.57081
216.36       -318.4298
216.81       -73.93923
217.27       -96.01663
217.73       -202.5548
218.19       -815.3654
218.65        -16369.7
219.11        -1082.07
219.57       -228.4733
220.02       -87.19563
220.48       -128.7558
220.94        212.1881
221.40        95.27018
221.86        79.83651
222.32        75.43732
222.77        74.17465
223.23        75.44223
223.69        79.47901
224.15        84.23754
224.61        86.65065
225.06        86.75245
225.52        87.88383
225.98        92.32909
226.44        100.7188
226.90        112.7141
227.36        127.1558
227.81        136.9084
228.27        136.2548
228.73        129.1715
229.19        118.7333
229.65        107.0388
230.10        95.45834
230.56        85.20357
231.02         77.5622
231.48         74.2323
231.93         74.5411
232.39        77.43778
232.85        81.23717
233.31        83.81455
233.77        84.63206
234.22         84.1167
234.68        83.18822
235.14        83.43009
235.60         85.3034
236.05        88.58811
236.51        91.69704
236.97        91.92234
237.43        88.66177
237.88        83.12401
238.34        77.86188
238.80        75.77796
239.26        77.66749
239.71        85.45006
240.17        98.75863
240.63        111.5038
241.08        111.6599
241.54        96.67894
242.00        78.36223
242.46        68.15383
242.91        66.57211
243.37        72.09648
243.83        85.29189
244.28        94.38578
244.74        80.10285
245.20        50.67157
245.66        22.45388
246.11        4.339563
246.57       -4.664329
247.03       -8.146595
247.48        -7.48456
247.94       -3.976859
248.40        1.891984
248.85          10.043
249.31        19.74711
249.77        26.46877
250.22        28.40074
250.68        27.60488
251.14        26.64557
251.59         28.2674
252.05        33.67654
252.51        43.80306
252.96        60.49743
253.42        80.37118
253.88         94.4136
254.33        99.58625
254.79        96.90311
255.25        89.27925
255.70         81.0075
256.16        74.63274
256.62        70.62749
257.07        69.30378
257.53        70.19592
257.99        71.84872
258.44        73.41488
258.90         74.5659
259.35        74.68278
259.81        74.64843
260.27        73.96744
260.72        72.16702
261.18        70.04985
261.63        67.66251
262.09        65.93076
262.55        65.33613
263.00        65.63047
263.46        66.53057
263.91        67.42996
264.37        67.84798
264.83        67.58543
265.28        66.86261
265.74         65.8732
266.19        64.51777
266.65        63.03733
267.11        61.37444
267.56        59.82137
268.02         58.9305
268.47        58.68068
268.93        58.95938
269.38        59.33836
269.84         59.0769
270.30        58.05178
270.75         56.5158
271.21         54.9808
271.66        54.05104
272.12        53.84297
272.57        54.05106
273.03        54.36605
273.48        54.31613
273.94        53.78811
274.39        52.97072
274.85        51.95718
275.31        50.73483
275.76        49.37033
276.22        47.95806
276.67        46.72117
277.13        46.13781
277.58        46.11979
278.04        46.55725
278.49        46.96084
278.95        46.64145
279.40        45.46302
279.86        43.82388
280.31        42.12785
280.77        41.05311
281.22        40.57442
281.68        40.51924
282.13        40.54884
282.59        40.27892
283.04        39.59517
283.50         38.6987
283.95        37.75404
284.41        37.04657
284.86        36.60646
285.32         36.3643
285.77         36.1854
286.22        35.95703
286.68        35.65616
287.13        35.29123
287.59        34.93684
288.04        34.61406
288.50        34.35516
288.95        34.10573
289.41        33.84743
289.86        33.50554
290.32        33.10808
290.77        32.66946
291.22        32.26421
291.68        31.97386
292.13        31.80042
292.59        31.74816
293.04        31.77333
293.50        31.82727
293.95          31.887
294.40        31.96974
294.86        32.12498
295.31        32.41438
295.77        32.84309
296.22        33.36718
296.68        33.90472
297.13        34.32578
297.58        34.58294
298.04        34.73514
298.49        34.81259
298.95        34.91022
299.40        35.04348
299.85        35.20066
300.31        35.42809
300.76        35.76252
301.21         36.2105
301.67          36.763
302.12        37.31152
302.58        37.71154
303.03        37.91544
303.48        37.97371
303.94        38.01859
304.39        38.18781
304.84        38.52808
305.30         38.9786
305.75        39.41967
306.20        39.70457
306.66        39.81123
307.11        39.77364
307.57        39.67716
308.02        39.56954
308.47        39.50001
308.93        39.45494
309.38        39.42478
309.83        39.44157
310.29        39.50306
310.74        39.59333
311.19         39.6782
311.65        39.69417
312.10         39.6151
312.55        39.45557
313.00        39.24608
313.46        39.04139
313.91        38.84691
314.36         38.6689
314.82         38.4963
315.27        38.29651
315.72        38.07734
316.18         37.8551
316.63        37.67006
317.08        37.58762
317.53        37.61364
317.99        37.71516
318.44        37.83728
318.89        37.87133
319.35        37.78438
319.80        37.60297
320.25        37.36889
320.70         37.1591
321.16        36.98792
321.61        36.83598
322.06        36.67511
322.51        36.46474
322.97        36.19526
323.42        35.90252
323.87        35.59841
324.32        35.30011
324.78        35.01624
325.23        34.75378
325.68        34.52935
326.13        34.37632
326.59        34.28528
327.04        34.26247
327.49        34.26202
327.94        34.21957
328.39        34.11222
328.85        33.94152
329.30        33.74344
329.75        33.54673
330.20        33.36871
330.66        33.19288
331.11        33.03647
331.56        32.88395
332.01        32.73517
332.46        32.59808
332.92        32.47073
333.37        32.38617
333.82        32.33368
334.27        32.30659
334.72        32.28882
335.17        32.25545
335.63        32.18755
336.08        32.10534
336.53        32.00898
336.98        31.91764
337.43        31.83458
337.88        31.75145
338.34        31.65884
338.79         31.5453
339.24        31.41208
339.69        31.27984
340.14        31.15045
340.59        31.02577
341.05        30.91021
341.50        30.79788
341.95        30.72871
342.40        30.77005
342.85        30.92323
343.30        31.16674
343.75        31.39153
344.20        31.42513
344.66        31.24429
345.11        30.89382
345.56        30.51974
346.01        30.34764
346.46        30.42615
346.91        30.68577
347.36        30.99519
347.81        31.14478
348.26        31.08507
348.72        30.89031
349.17        30.65731
349.62        30.54663
350.07        30.59844
350.52        30.74855
350.97        30.92971
351.42        31.04411
351.87         31.0555
352.32        30.99305
352.77        30.87423
353.22        30.72454
353.67        30.56134
354.13        30.38951
354.58        30.20179
355.03        30.01308
355.48        29.83466
355.93        29.67739
356.38        29.55989
356.83        29.50514
357.28          29.511
357.73        29.55933
358.18        29.62305
358.63        29.66024
359.08        29.65126
359.53        29.60001
359.98        29.49882
360.43        29.34168
360.88        29.13398
361.33        28.87978
361.78        28.60839
362.23        28.36447
362.68        28.15967
363.13        27.98815
363.58        27.82673
364.03        27.63508
364.48        27.40789
364.93        27.16404
365.38        26.93092
365.83        26.74565
366.28          26.617
366.73        26.53171
367.18        26.46923
367.63         26.4011
368.08         26.3143
368.53        26.20816
368.98        26.09537
369.43         25.9945
369.88        25.90555
370.33        25.82433
370.78        25.71626
371.23        25.52792
371.68        25.26072
372.13        24.94369
372.58        24.64833
373.03        24.47822
373.48        24.45153
373.93        24.53353
374.38        24.65805
374.83        24.71309
375.28        24.65887
375.72        24.51231
376.17        24.32773
376.62        24.14831
377.07        23.98817
377.52        23.83073
377.97        23.66601
378.42        23.48487
378.87        23.29467
379.32        23.11455
379.77        22.96007
380.22        22.84391
380.67        22.76414
381.11         22.7143
381.56        22.67761
382.01         22.6456
382.46        22.61076
382.91        22.57372
383.36         22.5203
383.81        22.42958
384.26        22.30076
384.71        22.14153
385.15        21.97314
385.60        21.84976
386.05        21.77661
386.50        21.73677
386.95        21.71189
387.40        21.67099
387.85        21.60725
388.29        21.52702
388.74         21.4465
389.19        21.33834
389.64        21.20288
390.09        21.03968
390.54        20.89528
390.98        20.82597
391.43        20.84623
391.88        20.97063
392.33        21.11758
392.78        21.06435
393.23        20.85255
393.67        20.73053
394.12        20.72605
394.57        20.66503
395.02        20.55042
395.47        20.47579
395.91        20.44514
396.36        20.40074
396.81        20.35169
397.26        20.32702
397.71        20.29259
398.15        20.22032
398.60        20.13856
399.05        19.93555
399.50        19.70673
399.95        19.81606
400.39        20.17714
400.84        20.19534
401.29        19.87479
401.74        19.70779
402.18         19.7117
402.63        19.60853
403.08        19.43949
403.53        19.24566
403.97        19.31551
404.42        19.37043
404.87        19.44898
405.32        19.47602
405.76        19.43014
406.21        19.34104
406.66        19.22706
407.11        19.12255
407.55        19.04513
408.00        18.98014
408.45        18.92779
408.90        18.88574
409.34        18.85137
409.79         18.8245
410.24         18.8134
410.68         18.8252
411.13        18.85942
411.58        18.91195
412.03        18.94792
412.47        18.91288
412.92        18.79436
413.37        18.61719
413.81        18.43771
414.26        18.35419
414.71        18.37331
415.15        18.47953
415.60        18.60265
416.05        18.63764
416.49        18.55527
416.94         18.3927
417.39        18.21775
417.83        18.12818
418.28        18.14393
418.73        18.22575
419.17        18.32689
419.62        18.36002
420.07        18.30324
420.51        18.18596
420.96        18.04162
421.41        17.90234
421.85        17.77612
422.30        17.66411
422.74        17.56734
423.19        17.54002
423.64        17.56905
424.08        17.62206
424.53        17.66441
424.98         17.7087
425.42        17.75492
425.87        17.73929
426.31        17.69223
426.76        17.77181
427.21        17.93313
427.65        17.91834
428.10         17.7628
428.54        17.70577
428.99        17.76943
429.44        17.92541
429.88        18.06635
430.33        17.92555
430.77        17.58389
431.22        17.44016
431.66        17.53046
432.11        17.68864
432.56        17.83953
433.00        17.97909
433.45        17.93651
433.89        17.67142
434.34        16.73191
434.78        16.64721
435.23        17.24528
435.67        17.42626
436.12        17.17916
436.57        17.11637
437.01        17.26848
437.46        17.35177
437.90         17.3539
438.35        17.35658
438.79        17.34094
439.24        17.26617
439.68         17.1456
440.13        17.03691
440.57        16.95514
441.02        16.90208
441.46        16.87916
441.91        16.88908
442.35        16.91294
442.80        17.00825
443.24        17.13152
443.69        17.18427
444.13        17.15104
444.58        17.10773
445.02        17.05801
445.47        16.95531
445.91        16.83423
446.36        16.78773
446.80        16.82201
447.24        16.91113
447.69        17.02384
448.13        17.10644
448.58        17.14269
449.02         17.1463
449.47        17.12253
449.91        17.06908
450.36        16.99835
450.80        16.90722
451.25        16.82346
451.69        16.78538
452.13        16.80052
452.58        16.85783
453.02        16.92762
453.47        16.96848
453.91        16.96746
454.36        16.93728
454.80        16.88482
455.24        16.84795
455.69        16.84363
456.13        16.80141
456.58        16.72917
457.02        16.83771
457.46        16.85325
457.91        16.82968
458.35        16.70729
458.79        16.68938
459.24        16.75616
459.68        16.70988
460.13        16.58364
460.57        16.51248
461.01        16.51413
461.46        16.51411
461.90        16.50129
462.34        16.47898
462.79         16.4406
463.23        16.38581
463.68        16.34156
464.12        16.33575
464.56         16.3701
465.01        16.48003
465.45        16.59995
465.89        16.58768
466.34        16.48234
466.78        16.46285
467.22        16.54838
467.67        16.62022
468.11        16.66533
468.55        16.68944
468.99        16.69096
469.44        16.69004
469.88        16.68895
470.32         16.6562
470.77        16.60764
471.21        16.59607
471.65        16.62666
472.10        16.68356
472.54        16.74508
472.98        16.78633
473.42        16.80042
473.87        16.80279
474.31         16.7913
474.75          16.779
475.20        16.77657
475.64        16.76916
476.08         16.7624
476.52        16.78965
476.97        16.85605
477.41        16.90953
477.85          16.915
478.29         17.1381
478.74        17.00304
479.18        17.09914
479.62        17.24223
480.06        17.32557
480.50         17.3376
480.95         17.3539
481.39        17.38209
481.83         17.4099
482.27        17.45075
482.72        17.52902
483.16        17.62077
483.60        17.68582
484.04        17.72363
484.48        17.69807
484.93        17.69908
485.37         17.9099
485.81         18.3074
486.25        18.57817
486.69        18.64338
487.14        18.64142
487.58         18.4731
488.02        18.75513
488.46        18.89323
488.90         18.8389
489.34        18.53265
489.79        18.47441
490.23        18.71582
490.67        19.10183
491.11        19.49912
491.55        19.51459
491.99        19.22174
492.43        19.18973
492.88        19.45116
493.32        19.64484
493.76        19.73019
494.20        19.83916
494.64        19.96927
495.08        20.08296
495.52        20.18215
495.96        20.28558
496.41        20.39437
496.85        20.47254
497.29        20.53715
497.73        20.68542
498.17        20.88183
498.61         20.9732
499.05        20.96221
499.49        20.93416
499.93        20.94375
500.37        21.08951
500.82        21.33252
501.26        21.48143
501.70        21.51621
502.14        21.55681
502.58        21.62509
503.02        21.69756
503.46        21.78057
503.90        21.88006
504.34        21.98604
504.78         22.0815
505.22        22.16072
505.66        22.22112
506.10        22.25603
506.54        22.30624
506.98        22.38439
507.42        22.39302
507.86        22.30645
508.30        22.57029
508.74        22.39608
509.18        22.42089
509.62        22.42781
510.06        22.46632
510.50        22.53572
510.94         22.6374
511.38        22.74337
511.82        22.78456
512.26        22.75158
512.70        22.66434
513.14        22.57184
513.58        22.55241
514.02        22.62136
514.46        22.75125
514.90        22.89604
515.34        22.97926
515.78        22.98092
516.22        22.93049
516.66        22.85508
517.10        22.79706
517.54        22.77316
517.98        22.76724
518.42        22.78618
518.86         22.8428
519.30        22.93155
519.74        23.04783
520.18        23.15705
520.62        23.20041
521.06         23.1659
521.50        23.07073
521.93        22.94925
522.37        22.86319
522.81        22.82757
523.25         22.8233
523.69         22.8361
524.13        22.84066
524.57        22.82995
525.01        22.82096
525.45        22.80515
525.89        22.76697
526.32        22.70638
526.76        22.62432
527.20        22.55838
527.64        22.57224
528.08        22.67052
528.52        22.83048
528.96        22.98159
529.40        23.01196
529.83        22.89644
530.27        22.67663
530.71        22.42664
531.15        22.26422
531.59        22.21966
532.03        22.26197
532.46        22.33622
532.90        22.35248
533.34        22.29231
533.78         22.1942
534.22        22.10226
534.66        22.07855
535.09        22.13001
535.53        22.22697
535.97        22.34297
536.41        22.42302
536.85        22.44616
537.28        22.48887
537.72        22.53004
538.16        22.39401
538.60        22.15929
539.04        22.14435
539.47         22.3238
539.91        22.40446
540.35        22.37408
540.79        22.41269
541.22        22.51378
541.66        22.59582
542.10        22.65563
542.54        22.68311
542.97        22.69902
543.41        22.82598
543.85        23.03054
544.29        23.13119
544.72        23.13457
545.16        23.21566
545.60        23.37577
546.04        23.52195
546.47        23.64699
546.91        23.78219
547.35        23.92354
547.79        24.07015
548.22        24.21966
548.66        24.36703
549.10        24.51882
549.53        24.73262
549.97        24.97808
550.41        25.15015
550.84        25.23237
551.28        25.28109
551.72         25.3149
552.15        25.34392
552.59        25.39417
553.03        25.45418
553.46         25.5282
553.90        25.65614
554.34        25.82447
554.77        25.99592
555.21        26.16016
555.65        26.32116
556.08        26.46613
556.52        26.58691
556.96        26.67489
557.39        26.74378
557.83        26.80554
558.27        26.82093
558.70        26.81475
559.14        26.89079
559.57        27.02669
560.01        27.10716
560.45        27.12628
560.88        27.17067
561.32        27.25469
561.75        27.30627
562.19        27.35673
562.63        27.42791
563.06        27.51216
563.50        27.68938
563.93        27.89865
564.37        27.85318
564.80        27.63363
565.24        27.72285
565.68        28.06465
566.11        28.21938
566.55        28.17868
566.98        28.16498
567.42        28.21706
567.85        28.38151
568.29          28.476
568.72        28.64681
569.16        28.83422
569.60        29.02731
570.03        29.08766
570.47        29.20787
570.90        29.38647
571.34        29.25451
571.77        29.73872
572.21        29.65823
572.64        29.90514
573.08        29.77811
573.51        30.33053
573.95        30.29253
574.38        30.07212
574.82        30.01982
575.25        30.71926
575.69        30.86762
576.12        30.70704
576.56        30.50656
576.99        30.54558
577.42        31.11242
577.86        30.71779
578.29        30.88085
578.73        30.73194
579.16        30.75132
579.60         30.7566
580.03        30.58635
580.47        30.56145
580.90        30.44217
581.33         30.1189
581.77        30.25695
582.20        30.79816
582.64        30.37915
583.07         30.3257
583.51        29.97837
583.94        29.86868
584.37        29.72215
584.81        29.58689
585.24        29.45925
585.68        29.89193
586.11         29.2735
586.54        29.58163
586.98        29.40378
587.41        29.27971
587.85        29.30075
588.28        29.50224
588.71        29.14209
589.15        29.03225
589.58        29.26339
590.01        28.90243
590.45        28.88639
590.88        28.86674
591.31         29.0183
591.75        29.28445
592.18        29.24533
592.61        28.89283
593.05        29.39272
593.48        29.54927
593.91        29.43945
594.35        29.43593
594.78        29.46501
595.21         29.7271
595.65        29.82511
596.08        29.69667
596.51        30.15171
596.94        29.98452
597.38        30.14022
597.81        30.26439
598.24        30.57459
598.68        30.73629
599.11        30.73143
599.54        31.74084
599.97        31.17738
600.41        31.90837
600.84        32.03359
601.27        32.31746
601.70        32.32841
602.14        32.52233
602.57        32.96329
603.00        33.64189
603.43         33.9784
603.87        34.01666
604.30        34.27541
604.73        34.73263
605.16        35.18958
605.60         34.8802
606.03        35.21016
606.46        35.89834
606.89        36.01935
607.32        36.37543
607.76        36.59501
608.19        36.92854
608.62        37.29161
609.05        37.66399
609.48        37.80217
609.92        37.81799
610.35        38.00661
610.78        39.04071
611.21        39.18681
611.64        39.48073
612.07        39.55331
612.50        39.72931
612.94        39.87835
613.37        40.03527
613.80        40.32543
614.23        40.62229
614.66        40.74548
615.09        40.74091
615.52        40.97672
615.96        41.41638
616.39        41.73604
616.82        41.93093
617.25        41.94489
617.68        42.42049
618.11        42.38757
618.54        42.15861
618.97        42.27369
619.40        42.76655
619.84        43.04684
620.27        43.30769
620.70        43.56735
621.13        43.90735
621.56        43.56302
621.99        43.58069
622.42        43.62563
622.85        43.91827
623.28        43.94582
623.71        43.84474
624.14        43.61746
624.57        43.36543
625.00        43.44953
625.43        43.43705
625.86        43.55093
626.29        43.56055
626.72        43.89055
627.15        43.65155
627.58        43.54737
628.01        43.34644
628.44        43.16384
628.87        43.02818
629.30        42.80186
629.73        42.50542
630.16        42.59127
630.59        42.20419
631.02        42.04709
631.45         41.8654
631.88        41.68176
632.31        41.48532
632.74        41.27599
633.17        41.05037
633.60        40.78244
634.03        40.47181
634.46        40.12983
634.89        39.76138
635.32        39.37336
635.75        38.97445
636.18        38.56783
636.61        38.17373
637.04        37.82373
637.47        37.52574
637.89         37.2652
638.32        37.00426
638.75        36.74022
639.18        36.47427
639.61        36.06806
640.04        35.81596
640.47        35.53365
640.90        35.31234
641.33        35.13557
641.76        35.00116
642.18        34.90687
642.61         34.8322
643.04        34.78032
643.47        34.74359
643.90         34.7085
644.33        34.67014
644.76        34.63902
645.18        34.61477
645.61        34.55407
646.04        34.45646
646.47        34.41107
646.90        34.48586
647.33        34.37591
647.75        34.74664
648.18        35.05215
648.61          35.423
649.04        35.74738
649.47        36.00609
649.89        36.19797
650.32        36.35036
650.75        36.62064
651.18        36.99493
651.61        37.28193
652.03        37.48948
652.46        37.80893
652.89        38.22433
653.32        38.47917
653.74        38.68564
654.17        38.95895
654.60        39.13908
655.03        39.61283
655.46        39.79379
655.88        39.53009
656.31        42.33208
656.74        45.67324
657.16        43.41105
657.59        41.00254
658.02        41.75365
658.45        42.61503
658.87        43.11425
659.30        42.39473
659.73          42.844
660.15        42.81195
660.58        43.04291
661.01        43.31316
661.44        43.56392
661.86        43.55745
662.29        43.37803
662.72        43.65394
663.14        44.32512
663.57        44.56274
664.00        44.40248
664.42        44.58065
664.85        45.07974
665.27        45.30893
665.70        45.26744
666.13        45.34964
666.55         45.5742
666.98        45.74911
667.41        45.87718
667.83        46.02222
668.26        46.17928
668.69        46.35567
669.11        46.52163
669.54        46.60244
669.96        46.59114
670.39        46.56322
670.82        46.60653
671.24        46.70086
671.67        46.91562
672.09        47.54837
672.52        48.42212
672.94        48.64528
673.37        48.71464
673.80         48.4181
674.22        48.10934
674.65        47.99358
675.07         48.1578
675.50        48.51798
675.92        48.96178
676.35        49.28252
676.77        49.42599
677.20        49.45782
677.62        49.44162
678.05        49.48061
678.47        49.60123
678.90        49.75821
679.32        49.92491
679.75        50.11023
680.17        50.30798
680.60        50.46218
681.02        50.53613
681.45        50.78301
681.87        50.67278
682.30        50.64067
682.72        50.58564
683.15        50.60691
683.57        50.72963
684.00         50.9309
684.42        51.15821
684.85        51.33158
685.27        51.43313
685.70        51.40275
686.12        51.27803
686.54        51.39872
686.97        51.73045
687.39        51.53185
687.82        51.51321
688.24        51.42273
688.66        51.48779
689.09        51.50085
689.51        51.48847
689.94        51.61081
690.36        51.88322
690.78        52.16024
691.21        52.32377
691.63        52.89973
692.06        52.54599
692.48        52.79008
692.90        53.17593
693.33        53.35363
693.75        53.30815
694.17        53.17097
694.60         53.0414
695.02        53.38307
695.44        53.45728
695.87        53.96203
696.29        54.49865
696.71        54.51143
697.14        54.07405
697.56        53.80066
697.98        53.91577
698.41        53.97844
698.83          54.032
699.25        54.35028
699.68        54.81214
700.10        55.11747
700.52        55.18506
700.94        55.11103
701.37        54.97641
701.79        54.93497
702.21        55.01957
702.64        55.17616
703.06        55.35496
703.48        55.48837
703.90        55.56034
704.33        55.60447
704.75         55.6421
705.17        55.68973
705.59        55.75724
706.01        55.82598
706.44        55.91787
706.86        56.08944
707.28        56.32225
707.70        56.62001
708.12        56.91074
708.55         57.0267
708.97        56.96847
709.39        56.89199
709.81        56.85094
710.23         56.8508
710.66           56.92
711.08        57.08716
711.50        57.29999
711.92        57.52671
712.34        57.54964
712.76         57.6475
713.19        57.80669
713.61        57.62291
714.03        57.91587
714.45        57.99201
714.87        58.07907
715.29        58.12805
715.71        58.13572
716.13        58.10651
716.56        58.02638
716.98        57.95403
717.40         57.8874
717.82        57.83377
718.24        57.80429
718.66        57.81405
719.08        57.86554
719.50        57.94831
719.92        58.07433
720.34        58.26034
720.76        58.50201
721.19        58.78056
721.61        59.04395
722.03        59.20623
722.45        59.27567
722.87        59.13871
723.29        58.87823
723.71        59.03257
724.13        59.64076
724.55        59.25661
724.97        59.68903
725.39        59.69065
725.81        59.80021
726.23        59.81532
726.65         59.7765
727.07        59.79696
727.49        59.87819
727.91        60.00415
728.33        60.15756
728.75        60.31329
729.17        60.45658
729.59        60.59192
730.01        60.72235
730.43        60.84772
730.85        60.96779
731.27        61.08278
731.69        61.17268
732.10         61.2149
732.52        61.20208
732.94        61.13802
733.36        61.06892
733.78         61.0474
734.20        61.08987
734.62         61.2578
735.04        61.46829
735.46        61.43713
735.88        61.20335
736.30        61.13203
736.72        61.28106
737.13        61.38084
737.55        61.38176
737.97        61.69834
738.39        62.19718
738.81        62.01597
739.23        61.36353
739.65        61.59275
740.06         62.5257
740.48        62.83044
740.90         62.4365
741.32        62.09467
741.74        61.94977
742.16        61.87104
742.57        61.91062
742.99        62.15196
743.41        62.52173
743.83        62.71256
744.25        62.75805
744.67        63.06096
745.08         63.5642
745.50        63.78157
745.92        63.68682
746.34        63.51906
746.75        63.34952
747.17        63.19381
747.59        63.08129
748.01        63.05597
748.42        63.08824
748.84        63.02305
749.26        62.87801
749.68        62.90391
750.09        63.09833
750.51        63.14986
750.93        63.13646
751.35        63.55712
751.76        64.28939
752.18        64.60765
752.60        64.43737
753.01        64.15959
753.43        63.91749
753.85         63.7333
754.27        63.64048
754.68         63.9911
755.10        64.03371
755.52        64.23855
755.93        64.38748
756.35        64.55177
756.77         64.6494
757.18        64.72919
757.60        64.87074
758.02        64.56036
758.43        63.92011
758.85        64.88107
759.26        66.25146
759.68        65.92995
760.10        65.33654
760.51        65.79771
760.93        65.15405
761.34        65.36611
761.76        65.54668
762.18        65.22636
762.59         64.5747
763.01         64.7039
763.42        65.56117
763.84        65.79214
764.26        65.36317
764.67        64.88409
765.09        64.60059
765.50        64.77183
765.92         65.2793
766.33        65.30215
766.75        64.82736
767.16        64.77192
767.58        65.15952
768.00         65.4589
768.41        65.65204
768.83        66.05435
769.24        66.52117
769.66        66.49872
770.07        66.05256
770.49        65.74744
770.90        65.65991
771.32        65.68616
771.73        65.81404
772.15        65.94814
772.56        66.09823
772.97        66.32395
773.39        66.56841
773.80        66.81065
774.22        66.95869
774.63        66.92944
775.05        66.74898
775.46        66.64794
775.88        66.64478
776.29        66.65436
776.70        66.66038
777.12        66.69019
777.53        66.74958
777.95        66.80367
778.36        66.85666
778.77        66.86974
779.19        66.85919
779.60        66.88828
780.02        66.92358
780.43        66.94952
780.84          67.022
781.26        66.95477
781.67         66.8987
782.09         67.6264
782.50        68.83756
782.91        69.01196
783.33        68.15104
783.74        68.14129
784.15        68.04669
784.57        67.93655
784.98        67.56353
785.39        67.22526
785.81        67.04118
786.22        67.33072
786.63        67.88844
787.04        68.12876
787.46        67.98293
787.87        67.72747
788.28        67.53754
788.70        67.52538
789.11        67.71225
789.52        68.15706
789.93        68.68979
790.35        68.80502
790.76        68.56106
791.17        68.51947
791.58        68.72813
792.00        68.81684
792.41        68.79812
792.82        68.88451
793.23        69.06347
793.65        69.13085
794.06        69.15218
794.47        69.35251
794.88        69.57871
795.29        69.67894
795.71        69.23908
796.12        68.71222
796.53        68.18102
796.94        68.06092
797.35        68.39445
797.76         68.8476
798.18        69.22388
798.59        69.49135
799.00        69.54947
799.41        69.32436
799.82        68.98257
800.23        68.87649
800.64        69.07587
801.06        69.43413
801.47        69.87035
801.88        70.12686
802.29         70.1135
802.70        69.91588
803.11        69.66364
803.52        69.41682
803.93        69.20721
804.34        69.27225
804.75        69.63249
805.17        68.91486
805.58        69.37771
805.99         69.1525
806.40        68.99242
806.81        69.14302
807.22        69.53739
807.63         69.7134
808.04         69.6349
808.45        69.65071
808.86        69.75665
809.27        69.72871
809.68        69.60067
810.09        69.54809
810.50        69.59258
810.91        69.68523
811.32        69.77822
811.73        69.78683
812.14        69.69362
812.55        69.55051
812.96        69.40523
813.37        69.31352
813.78        69.31544
814.19         69.4277
814.60        69.62907
815.01        69.85703
815.42        70.09223
815.83        70.35676
816.24        70.61069
816.65        70.75816
817.05        70.77333
817.46        70.65151
817.87        70.45901
818.28         70.2486
818.69        70.04965
819.10        69.85365
819.51        69.71456
819.92         69.7281
820.33        69.90115
820.74        70.18092
821.14         70.4644
821.55        70.63873
821.96        70.64654
822.37        70.47952
822.78        70.19121
823.19        69.94511
823.60        69.80492
824.00        69.72715
824.41        69.72757
824.82        69.92703
825.23        70.32055
825.64        70.86657
826.04        71.46812
826.45        71.85462
826.86        71.98205
827.27        71.91158
827.68        71.69833
828.08        71.47229
828.49        71.25322
828.90        71.03282
829.31        70.89372
829.72        70.96779
830.12        71.29628
830.53        71.79362
830.94        72.31358
831.35        72.53836
831.75        72.39492
832.16        71.91563
832.57        71.30033
832.97        70.85146
833.38        70.66401
833.79        70.66042
834.20        70.74349
834.60        70.74342
835.01        70.64204
835.42        70.52367
835.82        70.45779
836.23        70.50186
836.64        70.68693
837.04        70.96797
837.45        71.30783
837.86        71.77977
838.26        72.36138
838.67        72.98325
839.08        73.43776
839.48        73.37703
839.89        72.76887
840.29        71.72528
840.70        70.62875
841.11        70.00063
841.51        69.99235
841.92        70.48214
842.33        71.18897
842.73        71.61594
843.14        71.56768
843.54        71.19487
843.95        70.80539
844.35        70.93322
844.76        71.63587
845.17        72.74078
845.57        73.86261
845.98        74.20646
846.38        73.63873
846.79        72.44208
847.19         71.0489
847.60        70.13211
848.00        69.86806
848.41        70.03056
848.81        70.51378
849.22        71.03427
849.62        71.50661
850.03        71.95099
850.43        72.28381
850.84        72.22714
851.24        71.80003
851.65        71.04967
852.05        70.20612
852.46        69.67091
852.86        69.52747
853.27        69.67893
853.67         69.9982
854.07         70.4914
854.48        71.05995
854.88        71.80832
855.29        72.38872
855.69        72.36865
856.10        71.55205
856.50        70.15473
856.90        68.70008
857.31        68.00763
857.71        68.29068
858.12        69.31252
858.52        70.70442
858.92        71.55814
859.33        71.55946
859.73        71.00002
860.13        70.23074
860.54        69.85445
860.94        70.07104
861.34         70.6333
861.75        71.27717
862.15        71.68578
862.55        71.69178
862.96         71.4405
863.36        71.01548
863.76        70.53928
864.17        70.07986
864.57         69.6404
864.97        69.23495
865.38        68.87878
865.78        68.61777
866.18        68.42892
866.58        68.37401
866.99        68.53569
867.39        68.91561
867.79        69.44353
868.19        69.91367
868.60        69.99604
869.00        69.65072
869.40        68.99245
869.80        68.25156
870.21        67.84978
870.61        67.93723
871.01        68.33578
871.41        68.91085
871.81        69.46494
872.22        69.89795
872.62        70.33074
873.02        70.67301
873.42        70.74505
873.82        70.53639
874.22         70.1009
874.63         69.7005
875.03        69.70914
875.43        70.19633
875.83        71.02071
876.23        71.96169
876.63        72.61507
877.03        72.86069
877.44        72.87604
877.84         72.6623
878.24        72.25983
878.64         71.7371
879.04        71.02924
879.44        70.46716
879.84        70.54634
880.24        71.29044
880.64        72.59531
881.04        73.81566
881.44        73.78895
881.84        72.31398
882.24        69.85567
882.65        67.36092
883.05        66.06778
883.45        66.27297
883.85        67.61016
884.25        69.48856
884.65        70.80652
885.05         71.1582
885.45        70.86206
885.85        70.29157
886.25        70.02218
886.65        70.21204
887.05        70.61549
887.45        71.04875
887.85        71.26045
888.25        71.16517
888.65        70.89867
889.04        70.53468
889.44        70.18635
889.84        69.89484
890.24        69.64709
890.64        69.47098
891.04        69.42246
891.44        69.51049
891.84        69.71973
892.24        70.03778
892.64        70.43053
893.04         70.8829
893.44        71.41019
893.83        71.95469
894.23        72.34031
894.63        72.54659
895.03        72.53838
895.43         72.4829
895.83        72.66294
896.23        73.11297
896.63        73.77519
897.02        74.29002
897.42        74.07333
897.82        73.07637
898.22        71.53559
898.62        70.01892
899.01        69.31101
899.41        69.57313
899.81        70.59391
900.21        71.88042
900.61        72.48438
901.00        72.11299
901.40        71.14155
901.80        70.09819
902.20        69.71905
902.59        70.17781
902.99        71.18214
903.39        72.42216
903.79        73.21974
904.18        73.29737
904.58        72.91801
904.98        72.34766
905.38        71.93797
905.77        71.78847
906.17        71.79939
906.57        71.93336
906.96        72.19196
907.36        72.49659
907.76        72.87158
908.15        73.26633
908.55        73.49134
908.95        73.52365
909.34         73.3802
909.74        73.10604
910.14        72.74465
910.53        72.33804
910.93        71.92081
911.33        71.56936
911.72        71.41714
912.12        71.48705
912.52        71.73843
912.91        72.11182
913.31        72.47215
913.70        72.78864
914.10        73.03017
914.49        73.19435
914.89        73.20321
915.29        73.08486
915.68         72.8735
916.08        72.63776
916.47        72.44039
916.87        72.33867
917.26        72.25597
917.66        72.29031
918.05        72.57068
918.45        73.06226
918.84         73.7979
919.24        74.39742
919.64        74.32251
920.03        73.47752
920.42        72.03206
920.82        70.60196
921.21        69.90279
921.61        70.07114
922.00        70.97809
922.40        72.08846
922.79        72.53766
923.19        72.05168
923.58        70.93424
923.98        69.83198
924.37        69.65582
924.77        70.58748
925.16        72.35068
925.55        74.33889
925.95        75.43691
926.34        75.32317
926.74        74.31294
927.13        72.94027
927.52        72.01186
927.92        71.75745
928.31        71.92587
928.70        72.27518
929.10        72.39549
929.49        72.19218
929.89        71.85799
930.28         71.5534
930.67        71.45785
931.07        71.61218
931.46        71.91393
931.85        72.35522
932.24        72.97269
932.64        73.70001
933.03        74.60184
933.42        75.39222
933.82        75.62766
934.21         75.2605
934.60        74.38128
934.99        73.45686
935.39          73.181
935.78        73.67844
936.17        74.74683
936.56        75.89548
936.96        76.28366
937.35        75.74596
937.74        74.54839
938.13         73.1059
938.53        72.07069
938.92         71.6423
939.31        71.68575
939.70        72.06097
940.09        72.57565
940.49        73.06409
940.88        73.53873
941.27        74.03516
941.66        74.61344
942.05        75.21751
942.44        75.83851
942.84        75.97616
943.23        74.85563
943.62        72.57224
944.01        69.60748
944.40         67.0209
944.79        66.13783
945.18        67.12028
945.57        69.62634
945.97         72.7772
946.36        75.00605
946.75        75.50063
947.14        74.69894
947.53         73.3113
947.92        72.54476
948.31        72.74158
948.70        73.40765
949.09        74.30637
949.48        75.08385
949.87        75.55576
950.26         75.9742
950.65        76.05381
951.04        75.26835
951.43        73.66086
951.82        71.41829
952.21        69.34275
952.60        68.67081
952.99        69.60516
953.38        71.78162
953.77        74.32719
954.16        75.70085
954.55        75.42845
954.94        73.92666
955.33        71.90089
955.72        70.54108
956.11          70.229
956.50        70.62226
956.89        71.31802
957.28        71.66512
957.66        71.48188
958.05        71.01571
958.44        70.56079
958.83        70.52967
959.22        71.00945
959.61        71.78506
960.00         72.5983
960.39        73.04288
960.78        72.98177
961.16        72.57605
961.55        71.93721
961.94         71.2161
962.33        70.52485
962.72        69.83677
963.11        69.34095
963.49        69.36711
963.88        69.90678
964.27         70.8864
964.66        71.99351
965.04        72.70556
965.43        72.80499
965.82        72.44373
966.21        71.83949
966.60        71.38364
966.98        71.23441
967.37        71.27349
967.76         71.4216
968.15        71.52946
968.53        71.56432
968.92        71.53619
969.31        71.55002
969.69         71.7486
970.08        72.09635
970.47        72.51647
970.86        72.83292
971.24        72.77171
971.63        72.30906
972.02        71.65782
972.40        70.99457
972.79        70.57204
973.17        70.57561
973.56        70.79643
973.95         71.4852
974.33        73.06496
974.72         75.4489
975.11        78.59822
975.49        81.72668
975.88        83.01994
976.26         81.9665
976.65        79.06393
977.04        75.50977
977.42        72.95889
977.81        71.82178
978.19         71.5655
978.58        71.79678
978.96        71.69211
979.35        71.03182
979.74        70.09519
980.12        69.06416
980.51        68.06176
980.89        67.28915
981.28        66.70266
981.66        66.35751
982.05        66.31053
982.43        66.59543
982.82        67.11765
983.20        68.06919
983.59        69.77348
983.97        72.27829
984.35        75.44709
984.74        78.31485
985.12        79.42293
985.51        78.22583
985.89        75.35065
986.28        72.01488
986.66        69.58529
987.04        68.50527
987.43         68.3084
987.81        68.86134
988.20        69.70023
988.58        70.63706
988.96        71.85714
989.35        72.86376
989.73        72.97842
990.12        72.07603
990.50        70.21674
990.88        68.29164
991.27        67.66551
991.65        68.63248
992.03        71.05923
992.42        73.69122
992.80        74.27111
993.18        71.97684
993.56        67.85378
993.95        63.99139
994.33        62.49657
994.71        63.78135
995.10        67.15309
995.48         71.5183
995.86        73.88464
996.24        73.02145
996.63        70.04255
997.01         66.4508
997.39        64.21887
997.77        63.85275
998.15        64.65749
998.54        66.40093
998.92         68.7084
999.30        71.24803
999.68        74.25744
1000.06        76.96345
1000.45        77.86269
1000.83         76.8091
1001.21        74.07596
1001.59        71.02149
1001.97        69.59312
1002.35        70.16343
1002.73        72.31477
1003.12        75.06541
1003.50        76.62998
1003.88        76.34248
1004.26        74.77422
1004.64        72.86395
1005.02         72.1192
1005.40        72.86087
1005.78        74.42087
1006.16        76.06646
1006.54        76.63919
1006.92         75.7204
1007.30        73.75994
1007.69        70.84518
1008.07        67.44615
1008.45        64.23074
1008.83        61.39684
1009.21        59.54524
1009.59         59.2124
1009.97        60.35604
1010.35        63.02308
1010.73        66.59409
1011.11        69.32065
1011.49        70.24261
1011.86         69.3387
1012.24        67.98029
1012.62        68.50173
1013.00        71.60951
1013.38         77.1522
1013.76        83.08607
1014.14        84.16655
1014.52        79.31323
1014.90        71.65511
1015.28        65.04641
1015.66        62.77381
1016.04        64.95131
1016.41        70.98238
1016.79        79.61697
1017.17        87.44552
1017.55        91.66146
1017.93        92.62175
1018.31         90.1441
1018.69        85.23431
1019.06        79.49358
1019.44        73.82266
1019.82        69.45305
1020.20        67.25171
1020.58        66.89857
1020.95        68.30099
1021.33        70.90149
1021.71        73.07827
1022.09        73.85386
1022.46          73.141
1022.84        72.09447
1023.22        72.21445
1023.60        73.91302
1023.97         77.4458
1024.35        80.71815
1024.73        78.60432
