SpectraSmart Spectrum 2.9.0.0
--------- Device Information -----------
Spectrum Name :  反射率_0
Saving Time :  2024/05/03 20:38:30
Spectro-Module Model Name : SE2030-DUVN
Spectro-Module Serial Number : OS361AC55029948
Wavelength Start : 200
Wavelength End : 1025
Wavelength Unit : Wavelength(nm)
Spectrum Unit : Reflectance(%)
-----------Spectrum Setting ------------
Integration Time : 20ms
Average : 10
Boxcar : 0
Background removal :  enabled
linearity correction :  enabled
SC :  disabled
Intensity correction :  disabled
DWT denoise :  enabled
savitzky-golay :  disabled
FFT :  disabled
Running average :  disabled
Kalman :  disabled
High pass :  disabled
---------------BEGIN--------------------
Wavelength(nm)             Reflectance(%)
200.29               0
200.75        14.80227
201.21         20.1316
201.67       -334.4609
202.13        2.205656
202.58        11.06614
203.04        16.53279
203.50        20.40109
203.96        22.55288
204.42        23.45894
204.88        24.33651
205.34       -2.786719
205.80        17.77694
206.26        10.35566
206.72       -4634.742
207.18        46.31297
207.64        44.75998
208.10        55.46365
208.55        100.5953
209.01        526.3564
209.47        690.7148
209.93        107.9261
210.39        49.11562
210.85        33.63038
211.31        30.18947
211.77        32.42498
212.23        42.66878
212.69        69.21902
213.14        77.94212
213.60        32.45465
214.06        8.367225
214.52       0.2171302
214.98       -1.636728
215.44       0.2457485
215.90        11.46281
216.36       -171.0749
216.81       -51.27863
217.27       -63.90552
217.73       -123.4075
218.19       -465.9138
218.65       -9180.431
219.11       -625.0982
219.57       -144.7146
220.02       -69.81973
220.48       -129.3954
220.94        199.7707
221.40        80.42948
221.86         63.5134
222.32        59.40225
222.77         59.8534
223.23        64.68568
223.69        73.46246
224.15        78.15596
224.61        73.80407
225.06        66.13528
225.52        63.02091
225.98        68.53381
226.44          82.889
226.90        106.2329
227.36        135.4497
227.81        154.0496
228.27        151.2578
228.73        135.7822
229.19        117.4376
229.65        103.7187
230.10        94.99911
230.56        89.47992
231.02        86.22419
231.48         84.8447
231.93        84.72411
232.39        85.98047
232.85        87.81131
233.31        89.20592
233.77        89.86044
234.22        89.75226
234.68        89.28409
235.14        89.24178
235.60        89.81932
236.05        91.03295
236.51        91.75478
236.97        90.31177
237.43        86.55506
237.88        81.42968
238.34        76.84216
238.80        74.79787
239.26        75.75336
239.71        81.49718
240.17        91.23055
240.63        100.8158
241.08        101.2218
241.54        90.20892
242.00        76.98808
242.46        70.93519
242.91        73.12587
243.37         83.5715
243.83         103.941
244.28        120.5153
244.74        107.2602
245.20        71.13751
245.66        34.81612
246.11        13.30882
246.57        4.988611
247.03        4.059995
247.48        6.643098
247.94        8.844584
248.40        10.05269
248.85        11.13958
249.31        12.69429
249.77        14.48977
250.22        16.18756
250.68        17.43082
251.14        18.87846
251.59        21.87269
252.05        27.47558
252.51        37.09365
252.96        51.95684
253.42        67.96706
253.88        77.33865
254.33        78.68075
254.79        75.01926
255.25        69.88297
255.70        65.45451
256.16        62.61337
256.62        61.22469
257.07        61.30059
257.53        62.75162
257.99        64.67432
258.44        66.47699
258.90        68.03275
259.35        68.73693
259.81        69.23684
260.27        69.10542
260.72        67.95226
261.18        66.46812
261.63        64.66722
262.09        63.29806
262.55        62.66631
263.00        62.60048
263.46        62.96576
263.91        63.36102
264.37        63.57256
264.83        63.45378
265.28        63.10806
265.74        62.63166
266.19        61.82681
266.65        60.86763
267.11        59.69773
267.56        58.57418
268.02        57.99905
268.47        57.95066
268.93        58.33912
269.38        58.72911
269.84        58.37809
270.30        57.19379
270.75        55.45304
271.21        53.77311
271.66        52.90324
272.12         52.9751
272.57        53.63956
273.03          54.455
273.48        54.72418
273.94        54.26623
274.39        53.32763
274.85        52.11155
275.31        50.76598
275.76        49.40028
276.22        48.07078
276.67        46.92134
277.13        46.32724
277.58        46.19063
278.04        46.43295
278.49        46.67527
278.95        46.40217
279.40        45.47696
279.86        44.19981
280.31        42.80623
280.77        41.76554
281.22        41.04595
281.68        40.57986
282.13        40.15328
282.59        39.57159
283.04         38.7748
283.50        37.89232
283.95        37.05979
284.41        36.51989
284.86        36.26873
285.32        36.24494
285.77        36.24602
286.22        36.05353
286.68         35.6348
287.13        35.03098
287.59        34.41045
288.04        33.93462
288.50        33.66651
288.95        33.51897
289.41        33.40061
289.86           33.12
290.32        32.67725
290.77         32.1189
291.22        31.59218
291.68        31.28379
292.13         31.2039
292.59        31.30968
293.04        31.45918
293.50        31.45091
293.95        31.23623
294.40        30.89738
294.86        30.58745
295.31         30.5144
295.77        30.71917
296.22        31.11684
296.68        31.57852
297.13         31.8954
297.58        31.99827
298.04        31.97659
298.49        31.88143
298.95        31.82875
299.40         31.8376
299.85        31.87368
300.31        31.97181
300.76        32.16234
301.21        32.44283
301.67        32.80156
302.12        33.12769
302.58        33.26957
303.03        33.19003
303.48        32.95504
303.94        32.70029
304.39        32.56967
304.84        32.61504
305.30        32.78067
305.75        32.97732
306.20         33.1011
306.66        33.12863
307.11        33.07331
307.57        32.97925
308.02         32.8446
308.47        32.70045
308.93        32.55164
309.38        32.39265
309.83         32.2551
310.29        32.14762
310.74        32.05638
311.19        31.98892
311.65        31.95168
312.10        31.92568
312.55        31.89628
313.00        31.83096
313.46        31.68475
313.91        31.44117
314.36        31.13609
314.82        30.79265
315.27        30.43654
315.72        30.09945
316.18        29.78425
316.63        29.53546
317.08        29.42363
317.53        29.45077
317.99        29.58392
318.44        29.75389
318.89        29.82874
319.35        29.76551
319.80          29.594
320.25        29.34917
320.70        29.09945
321.16        28.86483
321.61        28.62923
322.06        28.39454
322.51        28.16913
322.97        27.95526
323.42        27.77367
323.87        27.60551
324.32        27.41467
324.78        27.19296
325.23        26.95464
325.68        26.73418
326.13        26.59528
326.59        26.54016
327.04        26.56334
327.49        26.60452
327.94        26.57372
328.39        26.44485
328.85        26.23384
329.30        26.00052
329.75        25.82336
330.20        25.72913
330.66        25.68497
331.11        25.66986
331.56        25.61357
332.01        25.49823
332.46        25.34837
332.92        25.18007
333.37        25.05065
333.82        24.96528
334.27        24.90798
334.72        24.87367
335.17        24.85539
335.63        24.83825
336.08         24.8401
336.53        24.83652
336.98        24.79802
337.43        24.71836
337.88        24.60144
338.34        24.47368
338.79        24.38346
339.24        24.34285
339.69        24.34557
340.14        24.35953
340.59        24.33109
341.05        24.25004
341.50        24.13549
341.95        24.03213
342.40        24.01528
342.85        24.09736
343.30        24.24927
343.75        24.41068
344.20        24.48635
344.66        24.46024
345.11        24.36007
345.56        24.23662
346.01        24.16525
346.46        24.17032
346.91        24.22713
347.36        24.31995
347.81        24.42658
348.26        24.53131
348.72         24.6369
349.17        24.72673
349.62        24.77966
350.07         24.7909
350.52         24.7663
350.97        24.70659
351.42        24.61824
351.87        24.50864
352.32        24.37632
352.77        24.25079
353.22        24.17785
353.67        24.16291
354.13        24.20011
354.58        24.22841
355.03        24.17074
355.48        24.01661
355.93        23.79783
356.38        23.57012
356.83        23.42248
357.28        23.37383
357.73        23.38725
358.18        23.42931
358.63        23.44615
359.08        23.41506
359.53        23.35496
359.98        23.25095
360.43        23.07983
360.88        22.84743
361.33        22.56071
361.78        22.27507
362.23        22.07719
362.68        21.98383
363.13        21.97476
363.58        21.98661
364.03          21.915
364.48        21.73677
364.93        21.48362
365.38        21.22204
365.83        21.05327
366.28        20.99983
366.73        21.03024
367.18        21.07955
367.63        21.04546
368.08        20.90286
368.53        20.68281
368.98        20.45205
369.43        20.31065
369.88        20.27702
370.33        20.31663
370.78        20.35811
371.23        20.28501
371.68         20.0707
372.13        19.75907
372.58        19.42505
373.03        19.17789
373.48        19.04568
373.93        18.99671
374.38        18.98419
374.83        18.93181
375.28        18.81649
375.72        18.65583
376.17        18.49901
376.62        18.38314
377.07        18.31521
377.52        18.27697
377.97        18.23986
378.42        18.16387
378.87        18.04331
379.32        17.89636
379.77         17.7548
380.22        17.65996
380.67        17.61723
381.11        17.61513
381.56        17.61831
382.01        17.58199
382.46        17.49475
382.91         17.3727
383.36        17.24192
383.81        17.13844
384.26        17.07042
384.71        17.02736
385.15        16.98521
385.60        16.92435
386.05        16.83192
386.50        16.71287
386.95        16.59349
387.40        16.51015
387.85         16.4714
388.29         16.4661
388.74         16.4656
389.19         16.3902
389.64        16.23136
390.09        16.00568
390.54        15.80227
390.98        15.74844
391.43        15.86451
391.88        16.12707
392.33        16.40006
392.78        16.40531
393.23        16.16274
393.67          15.907
394.12        15.72536
394.57        15.58361
395.02        15.50813
395.47        15.53739
395.91        15.63008
396.36        15.66567
396.81        15.62844
397.26        15.56834
397.71        15.48651
398.15        15.40057
398.60        15.34165
399.05        15.20483
399.50        15.05334
399.95        15.15576
400.39        15.44213
400.84        15.46354
401.29        15.21661
401.74        15.06523
402.18        15.02329
402.63        14.88583
403.08        14.70401
403.53        14.54105
403.97        14.62246
404.42        14.72649
404.87        14.86814
405.32        14.96693
405.76        14.99567
406.21        14.97962
406.66        14.93018
407.11         14.8715
407.55        14.81721
408.00         14.7544
408.45        14.68763
408.90        14.62519
409.34        14.57171
409.79        14.53104
410.24        14.50839
410.68        14.50372
411.13        14.51715
411.58          14.548
412.03        14.57966
412.47        14.58702
412.92        14.55737
413.37         14.4945
413.81        14.42274
414.26        14.39378
414.71        14.40829
415.15        14.46398
415.60        14.50783
416.05        14.46323
416.49        14.31968
416.94        14.11092
417.39         13.9151
417.83        13.84306
418.28        13.91316
418.73        14.08457
419.17        14.28915
419.62        14.40119
420.07        14.38387
420.51        14.27525
420.96        14.12104
421.41        13.97865
421.85        13.86526
422.30        13.77215
422.74        13.69782
423.19        13.68366
423.64        13.71655
424.08        13.77268
424.53        13.82102
424.98         13.8632
425.42         13.8965
425.87        13.87457
426.31        13.81775
426.76        13.84665
427.21        13.92742
427.65        13.86114
428.10        13.69513
428.54        13.64482
428.99        13.72875
429.44        13.91306
429.88        14.08812
430.33        14.00584
430.77        13.72433
431.22        13.57022
431.66        13.58846
432.11        13.68287
432.56        13.80688
433.00        13.92968
433.45        13.91709
433.89        13.77629
434.34        13.12155
434.78        13.05566
435.23        13.45883
435.67        13.56684
436.12        13.38043
436.57        13.32194
437.01        13.41381
437.46        13.45975
437.90        13.45305
438.35         13.4515
438.79        13.44336
439.24        13.40047
439.68        13.33166
440.13        13.27777
440.57        13.24232
441.02        13.21731
441.46        13.20147
441.91         13.1892
442.35        13.17092
442.80        13.22868
443.24        13.31682
443.69        13.28898
444.13         13.1626
444.58        13.10529
445.02         13.1273
445.47        13.13508
445.91        13.12503
446.36         13.1407
446.80        13.17631
447.24        13.22442
447.69        13.26801
448.13        13.27843
448.58        13.25262
449.02        13.19627
449.47        13.13614
449.91        13.10667
450.36        13.11756
450.80        13.15428
451.25        13.19395
451.69        13.19458
452.13        13.14872
452.58        13.07278
453.02        12.98673
453.47        12.92792
453.91        12.90614
454.36        12.90907
454.80        12.92233
455.24        12.94173
455.69         12.9674
456.13        12.95677
456.58        12.91377
457.02        12.99591
457.46        12.99449
457.91        12.95122
458.35        12.83279
458.79        12.81661
459.24        12.89116
459.68        12.89704
460.13        12.84916
460.57        12.83461
461.01        12.86313
461.46        12.88139
461.90        12.88302
462.34        12.87303
462.79        12.84844
463.23        12.80717
463.68        12.77345
464.12        12.77469
464.56        12.81245
465.01        12.91117
465.45        13.01579
465.89        13.00871
466.34         12.9191
466.78         12.8893
467.22        12.93327
467.67        12.95714
468.11        12.95342
468.55        12.93026
468.99        12.89343
469.44        12.86828
469.88        12.85895
470.32        12.83862
470.77        12.81658
471.21        12.82759
471.65         12.8708
472.10        12.93186
472.54        12.98892
472.98         13.0164
473.42        13.00818
473.87        12.97938
474.31        12.93082
474.75        12.87702
475.20        12.83053
475.64         12.7812
476.08        12.74068
476.52         12.7443
476.97        12.79687
477.41        12.85548
477.85        12.88425
478.29        13.06992
478.74        12.96815
479.18        13.03131
479.62        13.12293
480.06        13.17036
480.50         13.1669
480.95        13.16551
481.39        13.17146
481.83        13.17707
482.27        13.19384
482.72        13.24129
483.16        13.29826
483.60        13.34012
484.04        13.37251
484.48        13.33168
484.93         13.3005
485.37        13.52056
485.81        13.93546
486.25        14.05298
486.69        13.98469
487.14        13.87331
487.58        14.02757
488.02        13.99565
488.46        14.23186
488.90        13.99072
489.34        13.51812
489.79        13.50109
490.23        13.91998
490.67        14.24542
491.11         14.3637
491.55        14.28487
491.99         14.0895
492.43         14.0689
492.88        14.25038
493.32        14.42502
493.76        14.54229
494.20        14.64346
494.64        14.71996
495.08        14.76167
495.52        14.78515
495.96        14.83121
496.41        14.90833
496.85        14.97576
497.29        15.04804
497.73        15.20213
498.17        15.40734
498.61         15.5497
499.05         15.6007
499.49        15.57403
499.93        15.50572
500.37        15.48697
500.82        15.53203
501.26        15.57304
501.70        15.61265
502.14        15.71252
502.58        15.85633
503.02        15.97467
503.46        16.05345
503.90        16.11312
504.34        16.14938
504.78        16.15456
505.22        16.13468
505.66        16.09052
506.10        16.03616
506.54        16.03246
506.98        16.09495
507.42        16.14388
507.86        16.15133
508.30        16.42168
508.74        16.37135
509.18        16.46781
509.62        16.53315
510.06        16.57466
510.50        16.58915
510.94        16.58187
511.38        16.57203
511.82        16.57676
512.26        16.60253
512.70          16.645
513.14        16.68935
513.58        16.71128
514.02        16.70538
514.46        16.67925
514.90         16.6476
515.34        16.63363
515.78        16.64449
516.22        16.67496
516.66        16.71048
517.10        16.72865
517.54         16.7239
517.98        16.70069
518.42          16.678
518.86        16.68577
519.30        16.72816
519.74         16.7953
520.18        16.85629
520.62        16.86172
521.06         16.8025
521.50        16.69543
521.93        16.57862
522.37        16.51381
522.81        16.51378
523.25        16.55838
523.69        16.61512
524.13        16.63185
524.57        16.59602
525.01        16.52816
525.45        16.44778
525.89        16.38499
526.32        16.34966
526.76        16.33198
527.20        16.33114
527.64        16.34851
528.08        16.37944
528.52        16.42307
528.96        16.46209
529.40        16.46834
529.83        16.43367
530.27        16.36775
530.71        16.28899
531.15        16.22952
531.59        16.19771
532.03        16.18727
532.46        16.18125
532.90        16.15251
533.34         16.0983
533.78        16.03201
534.22        15.97316
534.66        15.94864
535.09        15.95933
535.53        15.99463
535.97        16.03889
536.41        16.05544
536.85        16.03489
537.28        16.03255
537.72        16.04445
538.16        15.96304
538.60        15.84309
539.04        15.90098
539.47        16.10525
539.91        16.22214
540.35        16.23416
540.79        16.27786
541.22         16.3463
541.66        16.37829
542.10        16.37612
542.54        16.33504
542.97        16.28951
543.41        16.35759
543.85        16.52038
544.29        16.64049
544.72        16.69989
545.16        16.78851
545.60        16.89901
546.04        16.97462
546.47        17.02822
546.91        17.11161
547.35        17.22926
547.79        17.36953
548.22        17.51689
548.66        17.64802
549.10         17.7627
549.53        17.90978
549.97        18.07545
550.41         18.1962
550.84        18.26371
551.28        18.31371
551.72        18.35434
552.15        18.38553
552.59        18.42423
553.03        18.46526
553.46         18.5144
553.90        18.60416
554.34        18.72647
554.77         18.8542
555.21        18.97956
555.65          19.105
556.08        19.22139
556.52        19.32338
556.96         19.4061
557.39         19.4819
557.83        19.55879
558.27        19.60519
558.70        19.63516
559.14        19.71828
559.57         19.8361
560.01        19.90558
560.45        19.92248
560.88        19.95112
561.32        20.00386
561.75        20.02831
562.19        20.05365
562.63        20.10458
563.06        20.17752
563.50           20.33
563.93        20.51019
564.37        20.49446
564.80        20.33931
565.24        20.40285
565.68        20.65334
566.11        20.78203
566.55        20.78499
566.98        20.82166
567.42        20.90915
567.85        21.05909
568.29        21.13372
568.72        21.25415
569.16        21.38101
569.60        21.52168
570.03        21.67385
570.47        21.78666
570.90        21.84367
571.34        22.06605
571.77        22.27013
572.21        22.18834
572.64        22.40538
573.08        22.29538
573.51        22.75759
573.95        22.80816
574.38        22.72324
574.82        22.63405
575.25        23.11285
575.69        23.12167
576.12        22.89791
576.56        22.99955
576.99        23.40233
577.42        23.55338
577.86        23.35323
578.29        23.33576
578.73         23.2971
579.16        23.25541
579.60        23.11184
580.03        23.04103
580.47        23.06503
580.90        22.97483
581.33        22.87049
581.77         23.0087
582.20        23.37427
582.64        22.83594
583.07        23.01822
583.51        22.72464
583.94        22.52489
584.37        22.31232
584.81        22.16986
585.24        22.03415
585.68        22.29476
586.11        21.94339
586.54        22.01655
586.98         21.9131
587.41        21.92138
587.85        21.88261
588.28        21.80469
588.71        21.79652
589.15         21.6004
589.58        21.67477
590.01        21.53724
590.45        21.49119
590.88        21.41872
591.31        21.50228
591.75        21.73194
592.18        21.65814
592.61        21.29077
593.05        21.73487
593.48        22.23174
593.91        21.82312
594.35        22.05695
594.78         22.0118
595.21        22.20014
595.65          22.198
596.08        22.02849
596.51        22.39115
596.94        22.46854
597.38        22.67821
597.81         22.7548
598.24        22.88802
598.68        23.14455
599.11        23.09469
599.54        23.83091
599.97        23.76212
600.41        24.14592
600.84        24.33602
601.27        24.61508
601.70        24.83148
602.14        25.01325
602.57        25.39788
603.00         25.9081
603.43        26.22945
603.87        26.38995
604.30        26.61329
604.73        26.91557
605.16        27.43409
605.60        27.51649
606.03        27.83645
606.46        28.19083
606.89        28.40787
607.32        28.83773
607.76        29.14576
608.19        29.45104
608.62        29.77669
609.05        30.12296
609.48        30.47363
609.92        30.89946
610.35        30.98247
610.78        31.90372
611.21        32.18644
611.64        32.35197
612.07        32.54038
612.50        32.82995
612.94         33.0354
613.37        33.17234
613.80        33.37538
614.23        33.63542
614.66        33.81073
615.09        33.93029
615.52        34.19664
615.96        34.58637
616.39        34.86044
616.82        34.99712
617.25        35.23807
617.68        35.54457
618.11        35.52428
618.54          35.306
618.97        35.46938
619.40        36.00763
619.84        36.41433
620.27        36.60768
620.70        36.83852
621.13        37.10226
621.56        37.01561
621.99        36.72858
622.42        36.95327
622.85        37.65249
623.28        37.45187
623.71        37.19956
624.14        37.48574
624.57        36.88859
625.00        37.03949
625.43        37.05802
625.86         37.1832
626.29        37.16851
626.72        37.47247
627.15        37.12577
627.58        36.90725
628.01        36.59135
628.44        36.30617
628.87        36.08112
629.30        35.86134
629.73        35.63012
630.16        35.52685
630.59        35.22456
631.02         35.0034
631.45        34.77691
631.88        34.49665
632.31        34.14447
632.74        33.97176
633.17        33.54007
633.60         33.1996
634.03        32.82475
634.46        32.43331
634.89        32.03202
635.32        31.63624
635.75        31.25577
636.18        30.88757
636.61        30.52961
637.04        30.17704
637.47        29.83007
637.89        29.48312
638.32        29.13344
638.75        28.82622
639.18        28.57244
639.61        28.24915
640.04        28.05511
640.47        27.79413
640.90        27.52591
641.33        27.25622
641.76        27.01034
642.18        26.83073
642.61        26.71707
643.04        26.65864
643.47        26.63872
643.90        26.62884
644.33        26.61676
644.76         26.6164
645.18        26.62537
645.61        26.60537
646.04        26.55674
646.47        26.54999
646.90        26.64133
647.33        26.60213
647.75        26.94946
648.18        27.25918
648.61        27.63815
649.04        28.00336
649.47        28.33918
649.89        28.65796
650.32        28.96121
650.75         29.3047
651.18        29.68678
651.61        30.03462
652.03         30.3577
652.46        30.78505
652.89        31.29935
653.32        31.64278
653.74        31.91068
654.17        32.39483
654.60        32.65968
655.03        33.40995
655.46        33.65501
655.88        34.19561
656.31        36.46126
656.74        40.16058
657.16        38.30452
657.59         36.0056
658.02        36.50054
658.45        37.39471
658.87        38.08893
659.30        37.67523
659.73        37.50547
660.15        38.21375
660.58        38.43441
661.01        38.86177
661.44        38.93997
661.86        39.03994
662.29        39.20151
662.72         39.5254
663.14        40.00051
663.57         40.2556
664.00        40.31675
664.42        40.58049
664.85          41.028
665.27        41.26138
665.70        41.28384
666.13        41.40537
666.55        41.64422
666.98        41.83254
667.41        41.98745
667.83        42.19303
668.26        42.44746
668.69        42.74578
669.11        43.02229
669.54         43.1652
669.96        43.16085
670.39         43.0478
670.82        42.95821
671.24        43.06771
671.67        43.40589
672.09        43.97419
672.52        44.63268
672.94        44.81995
673.37        45.00361
673.80        44.83934
674.22        44.62883
674.65        44.59014
675.07         44.7942
675.50        45.15051
675.92        45.56693
676.35        45.87468
676.77        46.02959
677.20         46.0902
677.62        46.10382
678.05         46.1442
678.47        46.23695
678.90         46.3549
679.32        46.49366
679.75        46.69135
680.17        46.94502
680.60        47.18532
681.02        47.36617
681.45        47.69525
681.87        47.66124
682.30        47.71558
682.72        47.73841
683.15         47.6992
683.57        47.66221
684.00        47.81139
684.42        48.10465
684.85        48.30285
685.27        48.38018
685.70        48.40792
686.12        48.40366
686.54        48.56548
686.97        48.84284
687.39        48.84365
687.82         48.5555
688.24        48.76581
688.66        48.68642
689.09        48.78126
689.51        48.82555
689.94        48.99769
690.36        49.31213
690.78        49.62253
691.21        49.82483
691.63        50.43045
692.06        50.14898
692.48        50.39048
692.90        50.73039
693.33        50.89247
693.75        50.87095
694.17        50.76601
694.60        50.65983
695.02        50.99778
695.44        51.07217
695.87        51.51662
696.29        51.98063
696.71        52.05294
697.14        51.76538
697.56        51.56187
697.98        51.54945
698.41        51.56852
698.83        51.63184
699.25        51.90186
699.68         52.2835
700.10        52.57912
700.52        52.72278
700.94        52.78089
701.37         52.7937
701.79        52.84773
702.21        52.95747
702.64         53.0872
703.06        53.22439
703.48        53.36104
703.90        53.49423
704.33        53.63708
704.75        53.77398
705.17        53.86259
705.59         53.8987
706.01        53.88705
706.44        53.88234
706.86        53.98793
707.28        54.20197
707.70        54.52778
708.12        54.87695
708.55        55.02239
708.97        54.97382
709.39        54.97717
709.81        55.06931
710.23         55.1395
710.66        55.20182
711.08         55.3507
711.50        55.55851
711.92         55.7485
712.34        55.90735
712.76        56.05809
713.19        56.17387
713.61        56.25729
714.03         56.2855
714.45        56.25623
714.87        56.20612
715.29        56.19512
715.71        56.23476
716.13         56.3157
716.56        56.38195
716.98        56.39334
717.40        56.32348
717.82        56.20335
718.24        56.09522
718.66        56.09771
719.08        56.22958
719.50        56.44857
719.92         56.7097
720.34        56.94045
720.76        57.11733
721.19         57.2577
721.61        57.35918
722.03        57.41566
722.45        57.46135
722.87        57.36212
723.29        57.18534
723.71        57.42223
724.13        58.09326
724.55        57.81709
724.97        58.34485
725.39        58.31523
725.81        58.44859
726.23        58.40039
726.65        58.28705
727.07        58.26387
727.49        58.34898
727.91        58.46212
728.33        58.59724
728.75        58.87586
729.17        59.22249
729.59        59.35423
730.01         59.3017
730.43        59.36733
730.85        59.56687
731.27        59.71651
731.69        59.79578
732.10         59.8775
732.52        59.93089
732.94        59.95507
733.36        59.95152
733.78        59.92966
734.20        59.90964
734.62        59.92161
735.04        59.94202
735.46        59.95777
735.88        59.96656
736.30        59.86502
736.72        59.76819
737.13        60.05284
737.55        60.56916
737.97        60.94833
738.39        61.08669
738.81        60.75642
739.23        60.22698
739.65        60.54393
740.06         61.4613
740.48        61.73344
740.90        61.30713
741.32        60.54183
741.74         60.3911
742.16        60.21761
742.57        60.32777
742.99         60.6975
743.41        61.20681
743.83        61.62712
744.25        61.87587
744.67        61.98636
745.08        62.02081
745.50        62.07598
745.92        62.18074
746.34        62.24232
746.75        62.21974
747.17        62.12506
747.59        61.95871
748.01        61.70996
748.42        61.46635
748.84        61.38928
749.26        61.47349
749.68        61.65281
750.09        61.87699
750.51        61.93832
750.93         61.9291
751.35        62.37701
751.76        63.15522
752.18         63.4532
752.60        63.17647
753.01        62.84472
753.43        62.64476
753.85         62.3849
754.27        62.04947
754.68         62.9906
755.10        62.75001
755.52        63.05326
755.93        63.19672
756.35        63.42656
756.77        63.64425
757.18        63.74545
757.60        63.77705
758.02        63.43429
758.43        62.98427
758.85         63.6311
759.26        64.94682
759.68        65.42197
760.10        64.89223
760.51        64.34528
760.93        64.05042
761.34        63.85097
761.76        64.46622
762.18        64.13776
762.59        63.34866
763.01        63.41401
763.42        64.64275
763.84        65.09693
764.26        64.76926
764.67        64.28732
765.09        63.91491
765.50        64.00661
765.92        64.46347
766.33        64.37934
766.75        63.78539
767.16        63.78349
767.58        64.37893
768.00        64.84061
768.41        65.13359
768.83        65.62148
769.24        66.09685
769.66        66.13354
770.07        65.66782
770.49        64.81147
770.90         63.8831
771.32        63.96908
771.73         64.9025
772.15        65.34674
772.56        65.23879
772.97        65.18143
773.39        65.20463
773.80        65.84424
774.22        65.94593
774.63        65.99847
775.05        65.68674
775.46        65.41287
775.88        65.24259
776.29        65.15355
776.70        65.16107
777.12        65.20657
777.53        65.30124
777.95        65.50037
778.36        65.75986
778.77        65.89923
779.19         65.9024
779.60        65.86975
780.02        65.81965
780.43        65.78435
780.84        65.83804
781.26         65.8772
781.67        65.99518
782.09        66.60855
782.50        67.47336
782.91        67.63367
783.33        67.13405
783.74        66.93859
784.15        67.06779
784.57        67.05095
784.98        66.88022
785.39         66.5814
785.81         66.2927
786.22         66.4901
786.63        67.04233
787.04        67.26252
787.46        67.11319
787.87        66.92268
788.28         66.8399
788.70        66.93112
789.11        67.21112
789.52         67.6703
789.93        68.15216
790.35        68.38206
790.76        68.30635
791.17        68.01768
791.58         67.7021
792.00        67.50719
792.41        67.49961
792.82        68.08533
793.23        68.51618
793.65        68.59539
794.06         68.2862
794.47        68.39976
794.88        68.77938
795.29        69.22195
795.71        68.43249
796.12        68.09282
796.53        67.93375
796.94        67.49564
797.35        67.00742
797.76        67.54813
798.18        68.81943
798.59        69.34003
799.00        68.91714
799.41        68.29288
799.82         67.7692
800.23        67.54092
800.64        67.71768
801.06        68.19258
801.47        68.82445
801.88        69.25176
802.29        69.34544
802.70        69.19185
803.11        68.91151
803.52        68.69334
803.93        68.61191
804.34        68.64155
804.75        68.71164
805.17        68.68809
805.58        68.61169
805.99         68.5116
806.40        68.47305
806.81         68.8009
807.22        69.33326
807.63        69.41287
808.04        69.05483
808.45        68.86937
808.86        68.90279
809.27        68.77534
809.68        68.52094
810.09        68.40774
810.50        68.46304
810.91        68.60275
811.32        68.81612
811.73        69.04698
812.14        69.25312
812.55        69.55747
812.96         69.8642
813.37        69.71935
813.78        69.23797
814.19        69.11877
814.60        69.34106
815.01        69.33338
815.42         69.0897
815.83        68.95021
816.24        68.99238
816.65        69.15412
817.05        69.43781
817.46        69.82473
817.87        70.19411
818.28        70.31564
818.69        70.15253
819.10        69.75076
819.51        69.29007
819.92        69.11658
820.33         69.3167
820.74        69.76245
821.14        70.25661
821.55        70.52614
821.96        70.48972
822.37        70.24358
822.78        69.85059
823.19        69.52926
823.60        69.19443
824.00        68.95647
824.41        68.83403
824.82        69.02573
825.23        69.53529
825.64        70.30807
826.04        71.14873
826.45        71.60617
826.86        71.59328
827.27        71.22241
827.68        70.65922
828.08        70.22459
828.49        69.99335
828.90        69.89625
829.31        69.94558
829.72        70.15534
830.12        70.52472
830.53        71.01207
830.94        71.47923
831.35        71.61987
831.75        71.37911
832.16         70.7822
832.57        70.07655
832.97        69.64578
833.38        69.59652
833.79         69.8281
834.20          70.173
834.60         70.3512
835.01        70.30888
835.42        70.14336
835.82        69.97935
836.23        69.96628
836.64        70.16259
837.04        70.51553
837.45         70.9023
837.86         71.2495
838.26        71.51334
838.67        71.67081
839.08        71.70242
839.48        71.55443
839.89        71.23566
840.29        70.75148
840.70        70.22794
841.11        69.79265
841.51        69.51264
841.92        69.38979
842.33        69.36213
842.73        69.31705
843.14        69.19032
843.54         69.0246
843.95        68.98889
844.35         69.3922
844.76         70.2208
845.17        71.37594
845.57        72.52849
845.98        72.97166
846.38        72.59061
846.79        71.60622
847.19        70.40608
847.60         69.6197
848.00        69.40891
848.41        69.56709
848.81        70.00473
849.22        70.45657
849.62        70.85682
850.03        71.24203
850.43        71.52987
850.84        71.44427
851.24         71.0071
851.65        70.25392
852.05        69.46668
852.46        69.12337
852.86        69.28969
853.27        69.82288
853.67        70.45243
854.07        70.99857
854.48        71.33832
854.88        71.61196
855.29        71.62662
855.69        71.27965
856.10        70.49292
856.50        69.39701
856.90        68.30793
857.31        67.71597
857.71         67.7579
858.12        68.29994
858.52        69.13708
858.92        69.66505
859.33        69.67763
859.73        69.36168
860.13        68.94867
860.54        68.85698
860.94        69.21358
861.34        69.82172
861.75        70.43668
862.15        70.76887
862.55        70.67388
862.96         70.2887
863.36        69.70898
863.76        69.08802
864.17        68.51157
864.57        67.98827
864.97         67.5623
865.38        67.28555
865.78        67.20058
866.18        67.26816
866.58         67.4804
866.99        67.79937
867.39         68.1898
867.79         68.6074
868.19        68.91043
868.60        68.87812
869.00        68.49951
869.40        67.85688
869.80        67.14713
870.21        66.73286
870.61        66.75129
871.01        67.06274
871.41        67.54919
871.81        68.02566
872.22        68.40606
872.62        68.80739
873.02        69.16512
873.42        69.34975
873.82        69.33997
874.22        69.13873
874.63        68.96162
875.03        69.12287
875.43        69.67117
875.83        70.49142
876.23        71.31294
876.63        71.65874
877.03          71.424
877.44        70.81789
877.84        70.02738
878.24        69.38306
878.64        69.00454
879.04        68.74593
879.44         68.6914
879.84        68.97491
880.24        69.54667
880.64        70.38602
881.04        71.07894
881.44        70.88451
881.84        69.70654
882.24        67.86617
882.65        66.02136
883.05        65.00311
883.45        65.04047
883.85        65.90712
884.25        67.26395
884.65        68.45586
885.05        69.18915
885.45        69.58774
885.85        69.79764
886.25        70.07195
886.65          70.466
887.05        70.84396
887.45        71.03892
887.85        70.82388
888.25        70.18916
888.65        69.30054
889.04         68.3836
889.44        67.78587
889.84         67.5859
890.24        67.69072
890.64         68.0229
891.04        68.44017
891.44        68.85625
891.84        69.29609
892.24        69.67576
892.64        69.86337
893.04        69.85717
893.44         69.6983
893.83        69.52682
894.23        69.51731
894.63        69.74528
895.03        70.09984
895.43        70.54884
895.83        71.03608
896.23         71.5056
896.63        71.99664
897.02        72.28533
897.42        72.01134
897.82        71.17599
898.22        69.91423
898.62        68.69441
899.01        68.17505
899.41        68.48827
899.81        69.47865
900.21         70.6853
900.61        71.21316
901.00        70.79787
901.40        69.78887
901.80        68.73734
902.20        68.41334
902.59        68.99488
902.99        70.20525
903.39        71.66546
903.79        72.55136
904.18        72.54587
904.58        71.94337
904.98         71.1519
905.38        70.72923
905.77        70.79288
906.17        71.17045
906.57        71.65464
906.96        71.95943
907.36        71.93847
907.76        71.71857
908.15        71.42177
908.55        71.15481
908.95        70.99998
909.34        70.89917
909.74        70.81922
910.14        70.67205
910.53        70.45469
910.93        70.25544
911.33        70.13844
911.72        70.20918
912.12        70.48048
912.52        70.87656
912.91        71.38986
913.31         71.9919
913.70        72.65411
914.10        73.30423
914.49        73.79724
914.89        73.81757
915.29        73.34581
915.68        72.50397
916.08        71.54032
916.47        70.79657
916.87        70.42062
917.26          70.285
917.66        70.37746
918.05        70.64835
918.45        71.01429
918.84         71.5516
919.24        71.99371
919.64        71.98913
920.03        71.47292
920.42        70.53044
920.82        69.58641
921.21        69.11848
921.61        69.22894
922.00         69.8471
922.40        70.62187
922.79        71.02835
923.19        70.86761
923.58        70.30814
923.98        69.76141
924.37        69.79985
924.77        70.53711
925.16        71.81956
925.55        73.18295
925.95        73.78313
926.34        73.42318
926.74        72.34142
927.13        71.06234
927.52        70.37433
927.92        70.46432
928.31        71.08457
928.70        71.87198
929.10        72.20403
929.49        71.93752
929.89        71.31393
930.28        70.61855
930.67        70.25195
931.07        70.32233
931.46        70.66782
931.85        71.21592
932.24        71.89325
932.64        72.58743
933.03        73.39143
933.42        74.03818
933.82        74.10715
934.21        73.57315
934.60        72.54125
934.99        71.44899
935.39        70.94854
935.78        71.16468
936.17        71.89678
936.56        72.78843
936.96        73.21674
937.35         73.0492
937.74        72.49577
938.13        71.70567
938.53        70.91094
938.92        70.23264
939.31        69.65184
939.70        69.36343
940.09        69.69393
940.49        70.59468
940.88        71.94852
941.27        73.43927
941.66        74.48443
942.05        74.83543
942.44        74.66537
942.84        73.87931
943.23        72.38873
943.62        70.43295
944.01        68.20889
944.40        66.40958
944.79        65.89584
945.18        66.74567
945.57         68.7886
945.97        71.28887
946.36        72.97787
946.75        73.19322
947.14        72.25201
947.53        70.88224
947.92        70.31551
948.31        70.86121
948.70        72.07101
949.09        73.46006
949.48        74.23595
949.87         74.1451
950.26        73.54501
950.65        72.60172
951.04         71.5416
951.43        70.54185
951.82        69.52869
952.21        68.77506
952.60        68.71002
952.99        69.35239
953.38        70.58858
953.77        71.93387
954.16        72.52323
954.55        72.10996
954.94        70.90526
955.33         69.3821
955.72        68.35037
956.11        68.06628
956.50        68.33571
956.89        68.84956
957.28        69.08427
957.66        68.90822
958.05        68.49858
958.44         68.1411
958.83        68.25939
959.22        68.93494
959.61        69.96931
960.00        71.05597
960.39        71.69391
960.78        71.71098
961.16        71.25858
961.55        70.52534
961.94         69.7993
962.33        69.20869
962.72        68.68946
963.11        68.29001
963.49         68.1044
963.88        68.10362
964.27         68.3325
964.66        68.68733
965.04        68.98104
965.43        69.10627
965.82        69.11522
966.21        69.11943
966.60        69.33127
966.98        69.79448
967.37        70.38451
967.76        70.95687
968.15        71.26546
968.53         71.2655
968.92        71.01211
969.31          70.619
969.69         70.2683
970.08        70.00047
970.47        69.76379
970.86        69.61023
971.24        69.61288
971.63        69.77239
972.02        70.16691
972.40        70.61747
972.79        70.73505
973.17        70.53163
973.56        70.02947
973.95        69.71299
974.33        70.36427
974.72        72.03613
975.11        74.55341
975.49        77.33058
975.88        78.94886
976.26        78.90021
976.65        77.52937
977.04        75.43245
977.42        73.41869
977.81        71.81382
978.19        70.37917
978.58        69.23052
978.96        68.36505
979.35        67.77383
979.74         67.4578
980.12        67.35229
980.51        67.16055
980.89        66.89484
981.28        66.65101
981.66        66.40393
982.05        66.06595
982.43        65.69869
982.82        65.24355
983.20        65.16864
983.59        66.23225
983.97        68.58342
984.35        72.01759
984.74        75.40604
985.12         76.8802
985.51        75.74252
985.89        72.74995
986.28        69.23899
986.66        66.75639
987.04         65.7872
987.43        65.77049
987.81        66.56636
988.20        67.71972
988.58        69.00048
988.96         70.6106
989.35         71.9144
989.73        72.00635
990.12        70.75841
990.50        68.32345
990.88        65.83559
991.27        65.02038
991.65        66.24653
992.03        69.28705
992.42        72.71839
992.80        73.84875
993.18        71.64515
993.56        67.28679
993.95        63.00412
994.33        61.05003
994.71        61.90002
995.10        64.85748
995.48        68.87843
995.86        71.14268
996.24        70.47417
996.63        67.85381
997.01        64.84148
997.39        63.51795
997.77        64.34664
998.15        66.61177
998.54        69.53524
998.92        71.76525
999.30        72.70512
999.68        72.80182
1000.06        72.23581
1000.45        71.32511
1000.83         70.5205
1001.21        69.65144
1001.59        68.99654
1001.97        68.98976
1002.35        69.67515
1002.73        70.98519
1003.12        72.68726
1003.50        74.36523
1003.88        75.70343
1004.26        76.77353
1004.64        77.41841
1005.02        77.49649
1005.40        76.96964
1005.78        75.66844
1006.16        74.06826
1006.54        72.99807
1006.92        72.64719
1007.30        73.00416
1007.69        73.09959
1008.07        71.25983
1008.45        67.51656
1008.83        62.93765
1009.21        59.17725
1009.59        57.89448
1009.97        59.17865
1010.35        62.66907
1010.73        67.36878
1011.11        70.68862
1011.49        71.28009
1011.86        69.48399
1012.24         66.9742
1012.62        66.46933
1013.00        68.77516
1013.38        73.44473
1013.76        78.74519
1014.14        80.16349
1014.52        76.58479
1014.90        70.75882
1015.28         65.4741
1015.66         62.9585
1016.04        63.24538
1016.41        65.67546
1016.79        69.80027
1017.17        74.87322
1017.55        79.74483
1017.93        84.58807
1018.31        87.26291
1018.69         84.5681
1019.06        77.17144
1019.44        67.85831
1019.82        60.05198
1020.20        56.45241
1020.58        56.73463
1020.95        60.14247
1021.33        65.42068
1021.71        69.09467
1022.09        69.32774
1022.46        66.77111
1022.84        63.61252
1023.22        62.62171
1023.60        64.53738
1023.97        69.24808
1024.35         74.7001
1024.73        74.88715
