SpectraSmart Spectrum 2.9.0.0
--------- Device Information -----------
Spectrum Name :  反射率_0
Saving Time :  2024/05/03 20:36:40
Spectro-Module Model Name : SE2030-DUVN
Spectro-Module Serial Number : OS361AC55029948
Wavelength Start : 200
Wavelength End : 1025
Wavelength Unit : Wavelength(nm)
Spectrum Unit : Reflectance(%)
-----------Spectrum Setting ------------
Integration Time : 20ms
Average : 10
Boxcar : 0
Background removal :  enabled
linearity correction :  enabled
SC :  disabled
Intensity correction :  disabled
DWT denoise :  enabled
savitzky-golay :  disabled
FFT :  disabled
Running average :  disabled
Kalman :  disabled
High pass :  disabled
---------------BEGIN--------------------
Wavelength(nm)             Reflectance(%)
200.29               0
200.75        15.80421
201.21        74.98076
201.67       -3611.046
202.13       -142.2758
202.58       -73.11481
203.04        -39.0947
203.50       -16.63037
203.96       -2.121477
204.42        9.430709
204.88        32.11563
205.34       -661.9789
205.80       -68.28179
206.26       -85.00847
206.72        -20667.7
207.18        70.67063
207.64        41.91002
208.10        36.78047
208.55        48.52163
209.01        192.1444
209.47        254.6533
209.93        52.74671
210.39        32.52391
210.85        29.01197
211.31        33.03949
211.77        44.49419
212.23        72.76946
212.69        146.1761
213.14        204.5656
213.60        115.4239
214.06         53.1903
214.52        27.84631
214.98        19.20403
215.44        18.71918
215.90        30.01881
216.36         -188.83
216.81       -51.27952
217.27        -74.1342
217.73        -167.368
218.19       -696.5439
218.65       -14015.73
219.11       -907.6854
219.57       -182.0153
220.02       -60.90847
220.48       -87.59013
220.94        169.4497
221.40        82.31961
221.86        72.74737
222.32        73.97624
222.77        81.04173
223.23        96.53838
223.69        121.4559
224.15         137.473
224.61        129.4349
225.06        110.9081
225.52        98.64392
225.98        99.52439
226.44        112.6445
226.90        136.7168
227.36        168.1917
227.81        189.1022
228.27        187.1686
228.73        171.5071
229.19        152.3753
229.65        137.5971
230.10        127.5548
230.56        120.6932
231.02         115.711
231.48        111.8906
231.93        108.8166
232.39        107.0107
232.85        106.1671
233.31        106.1311
233.77        106.6863
234.22         107.391
234.68        108.3559
235.14        109.8479
235.60        111.7958
236.05        114.4886
236.51        116.1306
236.97        113.9098
237.43        107.6499
237.88        98.73772
238.34        90.62073
238.80        87.16811
239.26        89.34301
239.71        99.26201
240.17        117.7904
240.63        136.1743
241.08        138.6003
241.54        120.7391
242.00        97.95541
242.46         86.5457
242.91        88.13196
243.37        101.8041
243.83        129.3674
244.28         150.612
244.74        128.6589
245.20        75.31567
245.66        22.82006
246.11       -8.955511
246.57       -22.40973
247.03       -24.25037
247.48       -20.25199
247.94       -16.06535
248.40        -12.4754
248.85       -8.947008
249.31       -2.694455
249.77         8.53662
250.22        21.47005
250.68        32.73347
251.14         40.5938
251.59        45.20698
252.05        48.02027
252.51        49.77729
252.96        52.58768
253.42        60.61313
253.88         73.4842
254.33        86.20107
254.79         93.4799
255.25        92.72562
255.70        87.86317
256.16        83.17725
256.62        80.32245
257.07        80.37751
257.53        82.92857
257.99        86.21788
258.44          88.757
258.90         89.6079
259.35        88.38111
259.81        86.65935
260.27        84.61616
260.72        82.43562
261.18        80.82594
261.63        79.33376
262.09        78.51527
262.55        78.40952
263.00        78.75033
263.46        79.47581
263.91        80.13748
264.37        80.53268
264.83        80.47599
265.28        80.05215
265.74        79.34602
266.19        78.06311
266.65        76.45833
267.11        74.54096
267.56        72.69888
268.02        71.63882
268.47        71.35256
268.93        71.68361
269.38        72.13903
269.84         71.8707
270.30        70.74106
270.75        69.06505
271.21        67.40659
271.66        66.41446
272.12        66.22764
272.57        66.49451
273.03        66.93839
273.48        67.13776
273.94        66.95106
274.39        66.50926
274.85        65.77117
275.31         64.5068
275.76        62.77329
276.22        60.79686
276.67        58.93733
277.13        57.89783
277.58        57.59815
278.04        57.85084
278.49        58.11332
278.95        57.63652
279.40        56.25113
279.86        54.42085
280.31        52.47952
280.77        51.03636
281.22         50.0646
281.68        49.45123
282.13        48.97364
282.59         48.4609
283.04        47.81316
283.50        47.13842
283.95        46.47964
284.41        45.96715
284.86        45.57056
285.32        45.28283
285.77        44.95107
286.22        44.45261
286.68        43.79914
287.13        43.00585
287.59        42.26334
288.04        41.74248
288.50        41.50064
288.95         41.4342
289.41        41.41057
289.86        41.15961
290.32        40.66724
290.77        39.99425
291.22        39.31608
291.68        38.85946
292.13        38.64484
292.59        38.62375
293.04        38.66163
293.50        38.57383
293.95        38.31269
294.40        37.95702
294.86        37.64941
295.31        37.57096
295.77        37.75385
296.22        38.11311
296.68        38.51381
297.13        38.74433
297.58        38.73603
298.04         38.5829
298.49        38.34343
298.95        38.15372
299.40        38.03259
299.85        37.94745
300.31        37.93088
300.76        38.00092
301.21        38.16099
301.67        38.41494
302.12         38.6536
302.58          38.735
303.03        38.61792
303.48        38.35226
303.94        38.09348
304.39         38.0084
304.84        38.14081
305.30        38.42081
305.75        38.68693
306.20        38.72803
306.66        38.52178
307.11        38.13636
307.57        37.71507
308.02         37.3923
308.47        37.23009
308.93         37.1787
309.38        37.18831
309.83        37.22803
310.29        37.26978
310.74        37.30996
311.19        37.31375
311.65        37.21891
312.10        37.00766
312.55         36.6982
313.00        36.33286
313.46        35.98612
313.91        35.67254
314.36        35.39452
314.82        35.15163
315.27        34.92557
315.72         34.7191
316.18        34.54025
316.63        34.39533
317.08        34.29431
317.53        34.23364
317.99        34.20011
318.44        34.17172
318.89        34.10085
319.35        33.97327
319.80        33.79344
320.25        33.59466
320.70        33.43821
321.16        33.32711
321.61        33.24929
322.06        33.14753
322.51        32.93021
322.97        32.58536
323.42        32.16631
323.87        31.74101
324.32        31.42019
324.78        31.23276
325.23        31.15019
325.68        31.14467
326.13        31.17315
326.59        31.19501
327.04        31.23417
327.49        31.23985
327.94        31.14065
328.39        30.92473
328.85        30.60016
329.30        30.24432
329.75        29.96463
330.20        29.80113
330.66        29.72123
331.11        29.71011
331.56        29.69493
332.01        29.64939
332.46        29.59157
332.92        29.51021
333.37        29.42333
333.82         29.3223
334.27        29.20057
334.72        29.06956
335.17        28.95513
335.63        28.85986
336.08        28.80247
336.53        28.76875
336.98        28.74407
337.43        28.72185
337.88        28.69984
338.34        28.68716
338.79        28.70302
339.24        28.74533
339.69        28.80963
340.14        28.85678
340.59        28.82704
341.05        28.71229
341.50        28.53384
341.95        28.35775
342.40        28.29415
342.85        28.36674
343.30         28.5447
343.75        28.74781
344.20        28.84473
344.66        28.81161
345.11        28.68334
345.56        28.53758
346.01        28.49208
346.46        28.57411
346.91        28.73918
347.36         28.9306
347.81        29.06297
348.26        29.10968
348.72        29.09943
349.17        29.05128
349.62        29.00299
350.07        28.96611
350.52        28.92308
350.97        28.86699
351.42        28.79142
351.87        28.69323
352.32        28.57994
352.77        28.45028
353.22        28.29903
353.67        28.13204
354.13         27.9644
354.58        27.79757
355.03        27.65514
355.48        27.54432
355.93        27.46282
356.38        27.40733
356.83        27.37166
357.28        27.34881
357.73        27.33249
358.18        27.31687
358.63         27.2944
359.08        27.25908
359.53        27.20886
359.98        27.13017
360.43        27.00642
360.88        26.83555
361.33        26.62016
361.78         26.3893
362.23         26.1858
362.68        26.02045
363.13        25.89108
363.58         25.7589
364.03         25.5604
364.48        25.29123
364.93        24.97697
365.38        24.68833
365.83        24.53066
366.28        24.52037
366.73         24.6193
367.18        24.74357
367.63        24.75965
368.08        24.62843
368.53        24.38344
368.98        24.09418
369.43        23.86606
369.88        23.72848
370.33        23.65956
370.78        23.59901
371.23        23.44952
371.68        23.19491
372.13        22.87001
372.58        22.57383
373.03        22.45114
373.48        22.52122
373.93        22.73259
374.38        22.95089
374.83        22.95641
375.28        22.69749
375.72        22.23905
376.17         21.7404
376.62        21.39531
377.07         21.2495
377.52        21.24608
377.97        21.29463
378.42        21.24876
378.87        21.07742
379.32        20.84044
379.77        20.61777
380.22        20.51744
380.67         20.5542
381.11        20.68164
381.56        20.82572
382.01        20.88199
382.46        20.81636
382.91        20.66747
383.36        20.47044
383.81        20.27343
384.26        20.09712
384.71        19.93019
385.15        19.78015
385.60         19.6785
386.05        19.62136
386.50        19.60058
386.95        19.59825
387.40        19.58152
387.85        19.54105
388.29        19.47821
388.74        19.40456
389.19        19.29394
389.64        19.14652
390.09        18.96264
390.54        18.78912
390.98        18.68486
391.43        18.66743
391.88        18.75175
392.33        18.86142
392.78        18.79156
393.23        18.57877
393.67        18.44538
394.12        18.42507
394.57         18.3752
395.02        18.30104
395.47        18.28548
395.91        18.31433
396.36        18.30576
396.81        18.26141
397.26        18.21199
397.71        18.15918
398.15        18.12715
398.60        18.14283
399.05         18.0832
399.50        17.98673
399.95        18.12021
400.39        18.39501
400.84        18.29088
401.29         17.8608
401.74        17.62682
402.18        17.62594
402.63        17.58728
403.08        17.52082
403.53         17.4165
403.97        17.51958
404.42        17.59569
404.87        17.67994
405.32         17.7035
405.76        17.65058
406.21        17.54164
406.66        17.41415
407.11        17.33588
407.55        17.32589
408.00        17.36082
408.45        17.40187
408.90        17.37647
409.34        17.26764
409.79        17.10332
410.24        16.93728
410.68        16.84027
411.13        16.82872
411.58        16.88191
412.03        16.95324
412.47        16.96455
412.92        16.89036
413.37         16.7598
413.81        16.62407
414.26        16.57278
414.71         16.6121
415.15        16.72311
415.60        16.83948
416.05        16.86364
416.49        16.77167
416.94        16.60425
417.39        16.42815
417.83        16.33816
418.28        16.35455
418.73        16.43814
419.17        16.55405
419.62        16.63427
420.07        16.65432
420.51        16.63334
420.96        16.57307
421.41         16.4618
421.85        16.30393
422.30        16.11724
422.74        15.93584
423.19        15.85805
423.64        15.88161
424.08        15.96202
424.53         16.0479
424.98        16.11398
425.42        16.14845
425.87        16.10921
426.31        16.03012
426.76        16.06359
427.21        16.17433
427.65        16.12327
428.10        15.96017
428.54        15.92929
428.99        16.04873
429.44        16.28115
429.88        16.49382
430.33         16.3891
430.77        16.03578
431.22        15.82008
431.66        15.80359
432.11        15.88371
432.56         16.0092
433.00        16.16344
433.45         16.1825
433.89        16.00218
434.34        15.19603
434.78        15.16267
435.23        15.73911
435.67        15.89617
436.12        15.62494
436.57        15.49854
437.01        15.55677
437.46        15.56853
437.90        15.53521
438.35        15.52068
438.79        15.51812
439.24        15.50457
439.68        15.48704
440.13        15.51237
440.57        15.54897
441.02        15.52823
441.46        15.44265
441.91        15.30745
442.35        15.17013
442.80        15.20563
443.24        15.37195
443.69        15.47394
444.13        15.47524
444.58        15.47992
445.02        15.47806
445.47         15.3913
445.91        15.26075
446.36        15.20637
446.80        15.23884
447.24        15.32434
447.69        15.42247
448.13        15.46803
448.58        15.44606
449.02        15.37794
449.47        15.29444
449.91        15.23143
450.36        15.20508
450.80        15.19951
451.25        15.20627
451.69        15.20682
452.13        15.19644
452.58        15.18247
453.02        15.16727
453.47        15.16056
453.91        15.16259
454.36        15.16759
454.80         15.1644
455.24         15.1595
455.69        15.15922
456.13        15.11141
456.58         15.0269
457.02        15.09832
457.46          15.085
457.91        15.03552
458.35        14.90502
458.79        14.88877
459.24        14.96951
459.68        14.96283
460.13        14.89068
460.57        14.86211
461.01        14.88873
461.46        14.90723
461.90        14.89963
462.34        14.85648
462.79         14.7727
463.23        14.65152
463.68        14.54082
464.12        14.50488
464.56        14.55134
465.01        14.69722
465.45        14.85605
465.89        14.85867
466.34        14.73341
466.78        14.65627
467.22        14.65981
467.67        14.66824
468.11        14.68217
468.55        14.69551
468.99        14.70695
469.44         14.7346
469.88        14.77535
470.32        14.80182
470.77        14.80653
471.21         14.8003
471.65        14.78195
472.10         14.7476
472.54        14.70757
472.98        14.68808
473.42        14.69318
473.87        14.72083
474.31        14.74604
474.75        14.74342
475.20        14.71432
475.64        14.66142
476.08        14.60075
476.52         14.5773
476.97        14.60105
477.41        14.61804
477.85        14.60419
478.29        14.80008
478.74        14.70659
479.18        14.83018
479.62        14.98864
480.06        15.05116
480.50        15.00321
480.95        14.92496
481.39        14.85254
481.83        14.81946
482.27         14.8463
482.72        14.94193
483.16        15.06454
483.60        15.13372
484.04        15.13544
484.48        15.07632
484.93        15.06637
485.37        15.15793
485.81        15.38551
486.25        15.65066
486.69        16.18011
487.14        15.79397
487.58        15.82123
488.02        15.67883
488.46        15.76925
488.90        15.52474
489.34        15.37767
489.79        15.37636
490.23        15.61415
490.67        15.96235
491.11        16.28703
491.55        16.22367
491.99        15.86128
492.43        15.76116
492.88        15.96634
493.32        16.14872
493.76        16.25047
494.20        16.34478
494.64        16.42108
495.08        16.46599
495.52        16.49867
495.96        16.55975
496.41        16.65562
496.85        16.74236
497.29        16.82631
497.73        16.97694
498.17        17.15907
498.61        17.25274
499.05        17.24335
499.49        17.17418
499.93        17.09129
500.37        17.08428
500.82        17.16099
501.26        17.23204
501.70        17.29428
502.14        17.42421
502.58        17.59265
503.02        17.70485
503.46        17.74603
503.90        17.74164
504.34        17.72125
504.78        17.73493
505.22        17.79753
505.66        17.88893
506.10        17.97337
506.54        18.03632
506.98        18.07702
507.42        18.03374
507.86         17.9161
508.30        18.12788
508.74         18.0447
509.18         18.1591
509.62        18.26419
510.06        18.35109
510.50        18.40507
510.94        18.44078
511.38        18.45883
511.82        18.44109
512.26        18.39386
512.70        18.32668
513.14        18.26307
513.58        18.24056
514.02        18.26755
514.46        18.33128
514.90        18.41965
515.34        18.51017
515.78        18.58953
516.22        18.66083
516.66        18.70775
517.10        18.70666
517.54        18.65675
517.98        18.56457
518.42        18.46072
518.86        18.39553
519.30        18.38189
519.74        18.40918
520.18         18.4509
520.62        18.46121
521.06        18.42756
521.50        18.36285
521.93        18.28975
522.37        18.24618
522.81        18.23897
523.25        18.25467
523.69        18.27037
524.13        18.25047
524.57        18.19042
525.01        18.10885
525.45        18.02806
525.89        17.98224
526.32        17.97929
526.76        18.00527
527.20        18.05427
527.64        18.11936
528.08        18.19048
528.52        18.26699
528.96         18.3217
529.40        18.31244
529.83        18.23214
530.27        18.09843
530.71        17.95088
531.15        17.85421
531.59        17.82425
532.03        17.84594
532.46         17.8869
532.90        17.89292
533.34        17.85254
533.78        17.78741
534.22        17.72237
534.66        17.69258
535.09        17.70141
535.53        17.73323
535.97        17.77376
536.41        17.78943
536.85        17.76954
537.28        17.77262
537.72        17.78754
538.16        17.68334
538.60        17.52057
539.04        17.54707
539.47        17.73111
539.91        17.82022
540.35        17.80002
540.79        17.81899
541.22        17.88091
541.66        17.93686
542.10        17.98865
542.54        18.02205
542.97        18.04967
543.41        18.16389
543.85        18.33509
544.29        18.42055
544.72        18.42256
545.16        18.47543
545.60        18.58066
546.04        18.66731
546.47        18.73565
546.91        18.82013
547.35        18.92107
547.79        19.03528
548.22         19.1606
548.66        19.29191
549.10        19.43278
549.53        19.62948
549.97        19.85183
550.41        20.00558
550.84        20.07525
551.28        20.10747
551.72        20.12603
552.15        20.15433
552.59        20.21485
553.03        20.29133
553.46         20.3766
553.90        20.48688
554.34        20.60768
554.77        20.71557
555.21        20.80771
555.65        20.89588
556.08         20.9754
556.52        21.03993
556.96        21.08591
557.39         21.1285
557.83        21.17727
558.27        21.19947
558.70         21.2123
559.14        21.29275
559.57        21.42034
560.01        21.50398
560.45        21.53439
560.88        21.57449
561.32        21.63618
561.75        21.66431
562.19        21.69337
562.63        21.75538
563.06        21.84737
563.50        22.02884
563.93        22.24142
564.37        22.23962
564.80        22.08202
565.24        22.15682
565.68        22.42862
566.11        22.56038
566.55         22.5484
566.98        22.56838
567.42        22.63928
567.85        22.77362
568.29        22.82479
568.72        22.92816
569.16        23.05246
569.60        23.20165
570.03        23.36907
570.47        23.53188
570.90         23.6716
571.34         23.8445
571.77         24.1392
572.21        24.04586
572.64        24.27131
573.08        24.12411
573.51        24.61537
573.95        24.60784
574.38        24.41008
574.82        24.48079
575.25        24.80238
575.69        24.85804
576.12        24.71421
576.56        24.61839
576.99        24.84354
577.42        25.14376
577.86        25.04158
578.29        25.11045
578.73        25.05505
579.16        25.02736
579.60        24.91983
580.03        24.85636
580.47        24.85133
580.90        24.60542
581.33        24.45293
581.77         24.6308
582.20        24.88126
582.64        24.67617
583.07         24.6286
583.51        24.40941
583.94        24.32187
584.37        24.15856
584.81        23.97948
585.24        23.84649
585.68        24.18573
586.11        23.69647
586.54        23.71578
586.98        23.52648
587.41         23.5937
587.85        23.60489
588.28        23.55232
588.71        23.68825
589.15        23.47337
589.58        23.52131
590.01        23.43325
590.45        23.33526
590.88        23.19142
591.31        23.24554
591.75        23.48325
592.18        23.46411
592.61        23.19318
593.05        23.49676
593.48        23.99291
593.91         23.6509
594.35        23.75149
594.78        23.65734
595.21        23.79421
595.65        23.78777
596.08        23.64118
596.51        24.12959
596.94        24.24112
597.38        24.47802
597.81        24.49124
598.24        24.70051
598.68        24.85876
599.11         24.7285
599.54        25.47567
599.97        25.47154
600.41        25.91854
600.84        26.14326
601.27        26.39961
601.70        26.58466
602.14        26.74489
602.57        27.10454
603.00        27.61173
603.43        28.04066
603.87        28.26699
604.30        28.54902
604.73        28.90347
605.16        29.14345
605.60        29.24906
606.03        29.58782
606.46        30.14541
606.89        30.06559
607.32        30.61634
607.76        30.82553
608.19        31.13244
608.62        31.42031
609.05        31.69905
609.48        32.00246
609.92         32.4189
610.35        32.36362
610.78        33.37751
611.21        33.66222
611.64         33.7997
612.07          33.999
612.50        34.31456
612.94        34.52936
613.37         34.6546
613.80        34.80055
614.23        34.98783
614.66        35.21381
615.09          35.485
615.52        35.76183
615.96        36.01208
616.39        36.26805
616.82         36.5397
617.25        36.50103
617.68        36.92123
618.11        36.83618
618.54        36.62299
618.97        36.81289
619.40        37.39419
619.84         37.8502
620.27        38.08403
620.70        38.32298
621.13         38.5524
621.56        38.50176
621.99        38.24839
622.42        38.35907
622.85          38.645
623.28        38.53708
623.71        38.68025
624.14        38.63934
624.57        38.55929
625.00        38.68914
625.43        38.60057
625.86        38.57432
626.29        38.46929
626.72        38.43847
627.15        38.28288
627.58        38.15913
628.01         37.9996
628.44        37.80282
628.87        37.57434
629.30        37.27698
629.73        36.95258
630.16        36.77813
630.59        36.70842
631.02        36.45781
631.45        36.04841
631.88        35.75423
632.31        35.58325
632.74        35.37287
633.17        35.08611
633.60        34.74037
634.03        34.33233
634.46        33.86776
634.89        33.38329
635.32        32.93485
635.75        32.54097
636.18        32.19109
636.61        31.87602
637.04        31.57791
637.47         31.2879
637.89        31.00348
638.32        30.70426
638.75        30.40691
639.18        30.12036
639.61         29.7274
640.04        29.46201
640.47        29.15911
640.90        28.89345
641.33        28.65736
641.76        28.47269
642.18        28.37412
642.61        28.35079
643.04        28.39307
643.47        28.45823
643.90        28.47548
644.33        28.42697
644.76        28.33979
645.18        28.24913
645.61        28.17745
646.04        28.14051
646.47        28.19357
646.90        28.36889
647.33        28.37496
647.75         28.7446
648.18        29.03944
648.61        29.38129
649.04        29.68705
649.47        29.94752
649.89        30.19493
650.32        30.43695
650.75         30.7032
651.18        31.02245
651.61        31.40399
652.03        31.83694
652.46        32.35371
652.89        32.88753
653.32        33.15485
653.74        33.33295
654.17        33.61832
654.60        34.03232
655.03        34.79423
655.46        35.04108
655.88        35.49929
656.31        38.00854
656.74        42.70073
657.16        40.32787
657.59        37.84165
658.02          38.509
658.45        38.79973
658.87        39.58369
659.30        39.03782
659.73        38.89811
660.15         39.4861
660.58        39.45784
661.01        39.86771
661.44        40.11177
661.86          40.307
662.29        40.45372
662.72        40.73243
663.14        41.15142
663.57        41.37789
664.00        41.45118
664.42        41.72197
664.85        42.17186
665.27        42.44353
665.70        42.52133
666.13        42.65745
666.55        42.86308
666.98        42.99239
667.41        43.07589
667.83        43.21882
668.26        43.42716
668.69        43.68647
669.11        43.94406
669.54        44.09641
669.96        44.12489
670.39        44.10314
670.82        44.12238
671.24        44.19723
671.67        44.39207
672.09        44.94104
672.52        45.69794
672.94        45.89688
673.37         46.0145
673.80        45.81469
674.22        45.61377
674.65        45.58844
675.07        45.80955
675.50        46.19928
675.92        46.65026
676.35        46.96614
676.77        47.09903
677.20        47.11477
677.62          47.081
678.05        47.10567
678.47        47.21895
678.90        47.37973
679.32        47.56714
679.75        47.78344
680.17        48.01336
680.60        48.22894
681.02         48.3836
681.45        48.60421
681.87        48.40912
682.30        48.46212
682.72        48.61361
683.15        48.56268
683.57        48.39433
684.00        48.56447
684.42        49.01204
684.85        49.26992
685.27        49.29763
685.70        49.28225
686.12        49.26228
686.54        49.37751
686.97        49.57259
687.39        49.55798
687.82        49.35305
688.24        49.29042
688.66        49.39407
689.09        49.46838
689.51        49.52477
689.94         49.7106
690.36        50.04143
690.78        50.37367
691.21        50.58715
691.63        51.18047
692.06        50.85188
692.48        51.08276
692.90        51.46297
693.33        51.65068
693.75        51.63095
694.17         51.6307
694.60        51.73071
695.02         51.8587
695.44        52.10572
695.87        52.45432
696.29         52.8198
696.71        52.90824
697.14        52.75344
697.56        52.56526
697.98        52.41495
698.41        52.65347
698.83        52.57142
699.25        52.85023
699.68        53.18883
700.10        53.45024
700.52        53.56966
700.94         53.6075
701.37        53.60945
701.79        53.65036
702.21        53.74452
702.64         53.8632
703.06        53.99052
703.48        54.10911
703.90        54.21515
704.33        54.33264
704.75        54.46128
705.17        54.55937
705.59         54.6204
706.01        54.73766
706.44        54.78061
706.86        54.95989
707.28        55.21129
707.70        55.54936
708.12        55.89077
708.55          56.012
708.97        55.93275
709.39        55.91594
709.81        55.99071
710.23        56.01488
710.66        56.00427
711.08        56.07684
711.50         56.2247
711.92        56.39268
712.34        56.57269
712.76        56.77921
713.19        56.97053
713.61        57.12369
714.03        57.20193
714.45        57.20459
714.87        57.16668
715.29         57.1482
715.71         57.1632
716.13        57.20347
716.56        57.21884
716.98        57.18133
717.40         57.0721
717.82        56.92564
718.24         56.8095
718.66        56.82482
719.08        56.98863
719.50        57.26126
719.92        57.58964
720.34         57.8722
720.76         58.0877
721.19        58.28372
721.61        58.43766
722.03        58.49971
722.45        58.50605
722.87        58.25764
723.29        58.00999
723.71        58.14907
724.13        58.76081
724.55        58.42331
724.97        58.91144
725.39        58.96291
725.81        59.09212
726.23        59.14128
726.65         59.1566
727.07        59.15545
727.49        59.14971
727.91        59.48397
728.33        59.67009
728.75        59.90517
729.17        60.02769
729.59        60.12949
730.01        60.23173
730.43        60.34309
730.85        60.47485
731.27        60.61408
731.69        60.73867
732.10        60.82259
732.52        60.85539
732.94         60.8468
733.36        60.81793
733.78        60.79223
734.20        60.79914
734.62        60.85844
735.04        60.93092
735.46        60.97783
735.88        61.05513
736.30        60.87935
736.72        61.29062
737.13        61.48406
737.55         61.5857
737.97        61.75479
738.39        61.93125
738.81        61.50687
739.23        60.76516
739.65         61.1057
740.06        62.26131
740.48        62.64506
740.90        62.15612
741.32        61.68816
741.74        61.42408
742.16        61.25694
742.57        61.26627
742.99        61.45945
743.41        61.77285
743.83        62.08585
744.25        62.34902
744.67         62.5761
745.08        62.76828
745.50        62.88944
745.92         62.9472
746.34        62.93094
746.75        62.85326
747.17        62.74846
747.59        62.63142
748.01        62.54157
748.42        62.49629
748.84        62.43264
749.26        62.38649
749.68        62.53474
750.09        62.82879
750.51        62.99184
750.93        63.03317
751.35        63.24314
751.76        63.59423
752.18        63.74897
752.60        63.68647
753.01        63.59621
753.43        63.56032
753.85        63.54666
754.27        63.54459
754.68        64.02006
755.10        64.04081
755.52        64.23898
755.93        64.35266
756.35        64.47192
756.77        64.53295
757.18         64.5481
757.60        64.57993
758.02        64.27235
758.43        63.85545
758.85        64.56241
759.26        66.19534
759.68        66.41055
760.10        65.75584
760.51        65.53142
760.93        65.75034
761.34         65.0785
761.76        66.07051
762.18        65.38685
762.59        64.17399
763.01        64.13916
763.42        65.27137
763.84        65.76019
764.26        65.42693
764.67        64.98901
765.09         64.6776
765.50         64.7569
765.92        65.16014
766.33        65.12506
766.75        64.65251
767.16         64.6599
767.58        65.14462
768.00        65.46233
768.41        65.60283
768.83        66.04145
769.24        66.55905
769.66        66.41822
770.07        65.71753
770.49        64.99744
770.90        64.51614
771.32         64.7866
771.73        65.64696
772.15        66.11962
772.56        66.12979
772.97        66.24857
773.39        66.47942
773.80        66.60601
774.22          66.591
774.63        66.52715
775.05        66.42568
775.46        66.36188
775.88        66.34348
776.29        66.37978
776.70        66.44048
777.12        66.48285
777.53        66.50294
777.95        66.48316
778.36        66.46601
778.77        66.44035
779.19        66.42011
779.60        66.56348
780.02        66.78812
780.43        66.69152
780.84        66.43373
781.26        66.58706
781.67         67.1832
782.09         67.9094
782.50        68.50894
782.91        68.52162
783.33        68.01365
783.74        67.73981
784.15        67.74116
784.57        67.60176
784.98        67.34315
785.39        67.13195
785.81        67.04576
786.22        67.25497
786.63        67.66974
787.04        67.92222
787.46        67.97757
787.87        67.97841
788.28        67.98954
788.70        68.03088
789.11        68.10377
789.52        68.21486
789.93        68.31937
790.35        68.34803
790.76        68.31975
791.17        68.22894
791.58        68.13784
792.00        68.20493
792.41        68.43414
792.82         68.5892
793.23        68.65813
793.65        68.87813
794.06        69.28756
794.47         69.5756
794.88        69.55268
795.29        70.06623
795.71        69.30456
796.12        68.84174
796.53        68.33897
796.94        67.99668
797.35        67.97919
797.76        68.63599
798.18        69.66476
798.59        70.17054
799.00         69.9749
799.41        69.44296
799.82        68.83197
800.23        68.57628
800.64        68.56846
801.06        68.84787
801.47        69.25941
801.88        69.53915
802.29        69.58757
802.70        69.48463
803.11        69.30624
803.52        69.15683
803.93        69.08926
804.34        69.07677
804.75        69.08776
805.17        69.11607
805.58        69.18527
805.99        69.15797
806.40        69.11934
806.81        69.48498
807.22        70.10591
807.63        70.30879
808.04        70.08027
808.45        69.95631
808.86        69.96333
809.27        69.75092
809.68         69.3989
810.09        69.23831
810.50        69.31836
810.91        69.54812
811.32        69.83294
811.73        70.00873
812.14        70.01968
812.55        69.91885
812.96        69.75243
813.37        69.59824
813.78        69.49952
814.19        69.44282
814.60          69.425
815.01        69.44252
815.42        69.49359
815.83        69.58187
816.24        69.72326
816.65        69.93258
817.05        70.19373
817.46        70.44505
817.87        70.65324
818.28         70.7303
818.69        70.67126
819.10        70.50764
819.51        70.30095
819.92        70.19603
820.33        70.23704
820.74        70.29623
821.14        70.36566
821.55         70.6236
821.96        70.96202
822.37         71.0132
822.78        70.75181
823.19        70.50555
823.60        70.31775
824.00        69.99343
824.41        69.63869
824.82        69.63236
825.23        70.02224
825.64        70.69001
826.04        71.48425
826.45        72.03767
826.86        72.26196
827.27        72.25254
827.68         72.0538
828.08         71.7731
828.49        71.43787
828.90        71.04355
829.31        70.72549
829.72        70.70718
830.12        71.05624
830.53        71.67437
830.94        72.37051
831.35        72.73808
831.75        72.67022
832.16        72.21341
832.57        71.59956
832.97        71.18733
833.38        71.08138
833.79        71.17873
834.20         71.3361
834.60         71.3193
835.01        71.09851
835.42         70.7804
835.82        70.49274
836.23        70.38123
836.64        70.50636
837.04        70.81721
837.45        71.21694
837.86        71.66988
838.26        72.12994
838.67        72.55476
839.08        72.84503
839.48        72.82676
839.89        72.48336
840.29        71.84792
840.70        71.14252
841.11        70.64719
841.51        70.46358
841.92        70.55447
842.33        70.76231
842.73        70.80797
843.14        70.58253
843.54        70.18125
843.95         69.8794
844.35        70.15158
844.76        71.02512
845.17        72.35481
845.57        73.71619
845.98         74.2318
846.38        73.74297
846.79        72.53414
847.19        71.08936
847.60        70.18129
848.00        70.00311
848.41        70.29198
848.81        70.90341
849.22        71.48117
849.62        71.92746
850.03        72.31464
850.43        72.55785
850.84        72.37617
851.24        71.80034
851.65        70.85001
852.05         69.8811
852.46        69.49628
852.86        69.77586
853.27        70.54559
853.67        71.39732
854.07        71.96079
854.48        72.08501
854.88        71.95129
855.29        71.52528
855.69        71.02832
856.10        70.48563
856.50        69.93042
856.90        69.44421
857.31        69.17139
857.71        69.16194
858.12        69.35551
858.52        69.73276
858.92        70.03389
859.33        70.15839
859.73        70.19421
860.13         70.1567
860.54          70.116
860.94        70.13364
861.34        70.15405
861.75        70.16407
862.15        70.25241
862.55        70.37527
862.96        70.51933
863.36        70.62762
863.76         70.6099
864.17        70.44697
864.57        70.21984
864.97        69.92609
865.38        69.54687
865.78        69.14257
866.18        68.67633
866.58        68.32563
866.99        68.39088
867.39        68.91897
867.79        69.78467
868.19        70.61584
868.60        70.81176
869.00        70.27103
869.40        69.18893
869.80        67.94096
870.21        67.20377
870.61         67.2114
871.01         67.7134
871.41        68.46568
871.81        69.10886
872.22        69.49945
872.62        69.80536
873.02        70.01182
873.42        70.07167
873.82        70.00481
874.22        69.80187
874.63        69.62239
875.03         69.7019
875.43        70.08022
875.83        70.66114
876.23        71.30264
876.63        71.73417
877.03        71.88077
877.44        71.88445
877.84        71.70314
878.24        71.30196
878.64        70.73611
879.04        69.98637
879.44        69.40182
879.84        69.49981
880.24        70.31065
880.64        71.70306
881.04        73.06243
881.44        73.27596
881.84        72.12525
882.24        70.04788
882.65        67.87607
883.05        66.69054
883.45        66.77295
883.85        67.79745
884.25        69.31464
884.65        70.48627
885.05         70.9709
885.45        70.99324
885.85        70.77023
886.25        70.63689
886.65        70.69427
887.05         70.7877
887.45        70.80889
887.85         70.6324
888.25         70.2402
888.65        69.73845
889.04        69.23725
889.44        68.90392
889.84        68.77375
890.24        68.82028
890.64        68.98611
891.04        69.17528
891.44        69.34947
891.84        69.51896
892.24         69.7322
892.64        70.06477
893.04        70.53008
893.44         71.1083
893.83        71.70325
894.23        72.07445
894.63        72.19091
895.03        72.05986
895.43         71.8799
895.83        71.97562
896.23        72.39402
896.63        73.05048
897.02        73.60179
897.42        73.48901
897.82        72.65195
898.22        71.32074
898.62        69.97915
899.01        69.28899
899.41        69.40152
899.81        70.13664
900.21        71.12522
900.61        71.65936
901.00        71.49062
901.40        70.88185
901.80         70.2141
902.20        70.02744
902.59        70.45944
902.99        71.30354
903.39        72.26064
903.79        72.69453
904.18        72.40348
904.58        71.64653
904.98        70.84447
905.38        70.56768
905.77        70.90025
906.17        71.65015
906.57        72.52654
906.96        73.08571
907.36        73.13628
907.76        72.86094
908.15        72.39852
908.55        71.90134
908.95        71.50401
909.34        71.13914
909.74        70.91261
910.14        70.94933
910.53        71.24501
910.93        71.79696
911.33        72.42777
911.72        72.84039
912.12        72.95225
912.52        72.82391
912.91        72.62642
913.31        72.62339
913.70        72.89825
914.10        73.30472
914.49        73.71361
914.89        73.82634
915.29        73.59525
915.68        73.14427
916.08        72.60032
916.47        72.09641
916.87        71.73482
917.26        71.43531
917.66         71.2921
918.05        71.43179
918.45        71.82486
918.84        72.50713
919.24        73.16811
919.64        73.36958
920.03        73.00046
920.42        72.15711
920.82        71.29347
921.21         70.9295
921.61        71.17168
922.00        71.93198
922.40        72.78793
922.79        73.09881
923.19         72.6573
923.58        71.70138
923.98        70.76229
924.37        70.57249
924.77        71.28055
925.16        72.68473
925.55        74.27358
925.95        75.10285
926.34        74.91962
926.74        73.98124
927.13        72.77538
927.52        72.04304
927.92        71.97253
928.31        72.31861
928.70        72.80137
929.10         72.9451
929.49        72.64796
929.89        72.12918
930.28        71.58378
930.67        71.25528
931.07        71.21828
931.46        71.35928
931.85        71.71703
932.24         72.3979
932.64        73.33189
933.03        74.55755
933.42        75.68179
933.82        76.06539
934.21         75.6211
934.60        74.51882
934.99        73.31405
935.39        72.84533
935.78        73.27974
936.17        74.34209
936.56        75.58872
936.96        76.25482
937.35        76.14622
937.74        75.50626
938.13        74.50555
938.53        73.40941
938.92        72.37445
939.31        71.40411
939.70         70.7115
940.09        70.63745
940.49        71.15524
940.88        72.16872
941.27        73.43138
941.66        74.47678
942.05        75.06586
942.44        75.29914
942.84        74.98048
943.23         73.8457
943.62        72.06486
944.01        69.89515
944.40        68.00281
944.79        67.21332
945.18        67.62198
945.57        69.03901
945.97        70.93233
946.36        72.45753
946.75        73.07909
947.14        73.01842
947.53        72.62064
947.92        72.50497
948.31        72.85093
948.70        73.37666
949.09        73.95954
949.48        74.44178
949.87        74.73129
950.26        74.94935
950.65        74.95933
951.04         74.5007
951.43        73.60151
951.82        72.37637
952.21         71.2051
952.60        70.66038
952.99        70.84827
953.38        71.60641
953.77        72.57413
954.16          73.117
954.55        73.01885
954.94        72.42463
955.33        71.59761
955.72        70.98378
956.11        70.72707
956.50        70.71874
956.89        70.75546
957.28        70.50982
957.66        69.94038
958.05        69.18457
958.44        68.54622
958.83         68.4759
959.22        69.05676
959.61        70.10405
960.00        71.29803
960.39        72.08578
960.78        72.26653
961.16        71.99128
961.55        71.40588
961.94        70.74527
962.33        70.13468
962.72        69.51719
963.11        69.01346
963.49        68.84659
963.88        69.00632
964.27        69.48561
964.66        70.09708
965.04        70.51035
965.43        70.57401
965.82        70.39548
966.21        70.11127
966.60        69.97556
966.98        70.07314
967.37        70.27779
967.76        70.52914
968.15        70.71643
968.53        70.81468
968.92        70.84277
969.31        70.79898
969.69        70.65868
970.08        70.40266
970.47        70.04026
970.86        69.69789
971.24        69.57449
971.63        69.72494
972.02         70.1949
972.40        70.81043
972.79        71.19415
973.17        71.32462
973.56        71.18074
973.95        71.21079
974.33        72.15112
974.72         74.0323
975.11        76.70094
975.49        79.46539
975.88        80.72058
976.26        79.98334
976.65        77.72124
977.04        74.84555
977.42        72.57944
977.81        71.28089
978.19        70.55155
978.58        70.24828
978.96        69.95483
979.35        69.54787
979.74        69.16553
980.12        68.82713
980.51          68.384
980.89        67.92893
981.28        67.49191
981.66        67.15598
982.05        67.02666
982.43        67.17342
982.82        67.47652
983.20        68.16585
983.59        69.63138
983.97        71.93352
984.35        74.93396
984.74        77.66309
985.12        78.63726
985.51        77.31603
985.89        74.35555
986.28        70.95142
986.66        68.43218
987.04        67.23007
987.43        66.87164
987.81         67.2913
988.20        68.16166
988.58        69.32804
988.96        70.95313
989.35        72.38966
989.73        72.71978
990.12        71.78036
990.50        69.69305
990.88        67.54958
991.27        67.03578
991.65        68.49216
992.03        71.67303
992.42        75.09597
992.80        75.97827
993.18        73.33338
993.56        68.50426
993.95        63.77423
994.33        61.40863
994.71        61.86783
995.10          64.354
995.48        68.12035
995.86         70.9251
996.24        71.66687
996.63        71.13984
997.01        69.96284
997.39        68.97025
997.77        68.45996
998.15        67.91113
998.54        67.73137
998.92        68.82787
999.30        71.29765
999.68         75.1125
1000.06        78.75195
1000.45        79.29742
1000.83        76.37651
1001.21        71.01599
1001.59        65.54448
1001.97        63.12202
1002.35        64.32047
1002.73        68.20088
1003.12        73.43964
1003.50        77.53683
1003.88        79.33302
1004.26        79.56801
1004.64        78.69268
1005.02         77.4939
1005.40        76.30635
1005.78        74.63204
1006.16        72.90007
1006.54        71.94305
1006.92         71.9296
1007.30        72.96811
1007.69        74.04256
1008.07        73.21349
1008.45        70.27743
1008.83        66.18929
1009.21        62.65211
1009.59        61.44661
1009.97        62.73643
1010.35        66.23751
1010.73         70.7842
1011.11        73.48947
1011.49        72.97856
1011.86        69.64192
1012.24        65.91889
1012.62        65.63663
1013.00        69.93158
1013.38        78.53623
1013.76         88.3979
1014.14        91.38203
1014.52        85.34919
1014.90        74.73566
1015.28        65.15609
1015.66        61.46673
1016.04        63.84518
1016.41         71.2402
1016.79        81.90565
1017.17        90.97182
1017.55        94.76236
1017.93        94.08214
1018.31        89.36885
1018.69        82.95956
1019.06        76.94168
1019.44        71.51139
1019.82        67.73983
1020.20         66.4922
1020.58        67.36533
1020.95        70.44443
1021.33        74.53051
1021.71        76.30556
1022.09        74.39021
1022.46         69.5189
1022.84        64.37094
1023.22        62.22717
1023.60        63.86334
1023.97        69.25826
1024.35        76.66205
1024.73        79.67131
