SpectraSmart Spectrum 2.9.0.0
--------- Device Information -----------
Spectrum Name :  反射率_0
Saving Time :  2024/05/03 20:48:40
Spectro-Module Model Name : SE2030-DUVN
Spectro-Module Serial Number : OS361AC55029948
Wavelength Start : 200
Wavelength End : 1025
Wavelength Unit : Wavelength(nm)
Spectrum Unit : Reflectance(%)
-----------Spectrum Setting ------------
Integration Time : 20ms
Average : 10
Boxcar : 0
Background removal :  enabled
linearity correction :  enabled
SC :  disabled
Intensity correction :  disabled
DWT denoise :  enabled
savitzky-golay :  disabled
FFT :  disabled
Running average :  disabled
Kalman :  disabled
High pass :  disabled
---------------BEGIN--------------------
Wavelength(nm)             Reflectance(%)
200.29               0
200.75        98.50605
201.21         184.142
201.67       -5467.542
202.13       -171.2217
202.58       -81.05829
203.04       -44.13189
203.50       -25.09829
203.96       -20.41575
204.42       -31.51113
204.88       -93.56968
205.34        2216.448
205.80        216.7622
206.26         199.417
206.72        27421.77
207.18       -32.68727
207.64       -10.17143
208.10       -35.18551
208.55       -147.4966
209.01       -1297.153
209.47       -1907.353
209.93       -238.5573
210.39       -68.19952
210.85       -21.45805
211.31       -6.343861
211.77       -3.198401
212.23       -7.715951
212.69       -30.60698
213.14       -67.62968
213.60       -57.00173
214.06       -39.68488
214.52       -31.04774
214.98       -28.02787
215.44       -28.55654
215.90        -35.9168
216.36        65.36445
216.81       -10.74312
217.27       -21.13955
217.73       -40.72149
218.19       -128.6494
218.65       -1625.658
219.11       -8.102638
219.57        45.11441
220.02         56.6783
220.48        92.17541
220.94       -39.60459
221.40        12.56177
221.86        21.14815
222.32        23.46397
222.77        23.44925
223.23        21.92715
223.69         18.5863
224.15        15.18861
224.61         14.5611
225.06         15.7413
225.52         17.1774
225.98        18.09658
226.44        18.63003
226.90        18.91866
227.36        19.80729
227.81        22.57874
228.27        26.67999
228.73        30.96922
229.19        33.20485
229.65        31.88799
230.10        28.14203
230.56        23.51976
231.02         20.0202
231.48        19.82132
231.93        22.52496
232.39        26.96366
232.85        31.42747
233.31        33.50259
233.77         32.8017
234.22        30.13659
234.68         26.8901
235.14        25.37687
235.60        26.35335
236.05        29.26389
236.51        33.07421
236.97         35.5629
237.43        35.75493
237.88        34.55108
238.34        32.92509
238.80        31.80977
239.26        31.42041
239.71        33.78978
240.17        35.30332
240.63        38.01373
241.08        38.51311
241.54        36.26653
242.00        33.64486
242.46        33.37731
242.91        36.12735
243.37        42.26382
243.83         51.5702
244.28        53.62051
244.74        35.06512
245.20        4.087502
245.66       -22.39143
246.11       -35.74013
246.57       -38.78528
247.03       -35.56337
247.48       -29.54025
247.94       -24.30221
248.40       -20.21005
248.85       -16.60699
249.31       -13.82234
249.77       -13.81482
250.22       -16.24248
250.68       -19.78151
251.14       -22.64437
251.59       -23.59555
252.05       -22.07815
252.51        -16.6922
252.96       -5.802068
253.42        9.888258
253.88        24.95275
254.33        35.40085
254.79        41.34705
255.25        44.83495
255.70        46.67438
256.16        47.38246
256.62        47.46444
257.07        47.31979
257.53        47.32526
257.99        47.26169
258.44        46.80453
258.90        46.02674
259.35        44.75455
259.81        43.53536
260.27        42.39653
260.72        41.40034
261.18        40.78849
261.63         40.3086
262.09        40.02738
262.55         39.7555
263.00        39.39802
263.46        39.02057
263.91        38.61967
264.37        38.41684
264.83        38.35089
265.28        38.32445
265.74        38.18559
266.19        37.54185
266.65        36.48517
267.11          35.128
267.56        33.76909
268.02        32.89146
268.47        32.52709
268.93        32.54421
269.38        32.66855
269.84        32.43588
270.30        31.76141
270.75        30.81135
271.21        29.87811
271.66        29.28984
272.12        29.10641
272.57        29.15202
273.03        29.23997
273.48        29.11335
273.94        28.70783
274.39        28.13129
274.85        27.45221
275.31        26.67872
275.76        25.85426
276.22        25.03262
276.67        24.32366
277.13        23.96317
277.58        23.90299
278.04        24.08862
278.49        24.28021
278.95         24.1508
279.40        23.62314
279.86        22.89056
280.31        22.12589
280.77        21.64302
281.22        21.42712
281.68        21.40557
282.13        21.43162
282.59        21.34941
283.04        21.10758
283.50        20.78588
283.95        20.45371
284.41        20.22225
284.86        20.10593
285.32        20.09079
285.77        20.10492
286.22        20.09508
286.68        20.05523
287.13        19.98183
287.59        19.94378
288.04        20.00143
288.50         20.1688
288.95        20.38711
289.41        20.58778
289.86        20.62477
290.32        20.49767
290.77        20.25724
291.22         19.9972
291.68        19.83889
292.13        19.81469
292.59         19.9173
293.04         20.1302
293.50        20.43804
293.95        20.81411
294.40        21.25888
294.86        21.76738
295.31         22.3348
295.77        22.95292
296.22        23.59944
296.68        24.23007
297.13        24.77492
297.58        25.20497
298.04        25.55526
298.49        25.84054
298.95        26.12127
299.40        26.41408
299.85        26.71948
300.31        27.09241
300.76        27.58636
301.21        28.20662
301.67        28.92961
302.12        29.64653
302.58        30.20437
303.03        30.55364
303.48        30.74483
303.94        30.89071
304.39        31.11342
304.84        31.46164
305.30        31.88846
305.75        32.31369
306.20        32.64343
306.66        32.86184
307.11        32.98715
307.57        33.06901
308.02        33.11477
308.47        33.15696
308.93        33.19191
309.38        33.22022
309.83        33.28411
310.29        33.38446
310.74        33.49882
311.19         33.5953
311.65        33.61645
312.10         33.5398
312.55        33.38519
313.00        33.17356
313.46        32.94156
313.91        32.69683
314.36        32.44943
314.82        32.21402
315.27        32.00039
315.72        31.81917
316.18        31.66901
316.63        31.55134
317.08        31.46847
317.53        31.41211
317.99        31.37135
318.44        31.32136
318.89        31.20979
319.35        31.02441
319.80         30.7768
320.25        30.50186
320.70        30.26137
321.16        30.06402
321.61          29.899
322.06          29.728
322.51        29.49086
322.97        29.17463
323.42        28.81101
323.87        28.43596
324.32        28.10877
324.78        27.84275
325.23        27.62655
325.68        27.43535
326.13        27.23248
326.59        26.99583
327.04        26.75481
327.49        26.50839
327.94        26.26397
328.39        26.02747
328.85         25.7893
329.30        25.56981
329.75        25.38003
330.20        25.22267
330.66        25.08386
331.11        24.96707
331.56        24.84113
332.01        24.69837
332.46        24.54807
332.92        24.37912
333.37        24.20672
333.82        24.02646
334.27        23.83567
334.72         23.6635
335.17        23.56121
335.63        23.52671
336.08        23.55461
336.53        23.58541
336.98         23.5295
337.43         23.3658
337.88        23.12698
338.34        22.85363
338.79        22.61496
339.24         22.4404
339.69        22.31668
340.14        22.24761
340.59        22.23917
341.05        22.27884
341.50        22.35521
341.95        22.43894
342.40        22.48588
342.85         22.4769
343.30        22.41835
343.75        22.29466
344.20        22.08982
344.66        21.82399
345.11         21.5101
345.56        21.21338
346.01        21.02734
346.46        20.97342
346.91        21.02758
347.36        21.13843
347.81        21.22042
348.26        21.24438
348.72        21.22829
349.17        21.18835
349.62        21.16046
350.07        21.15285
350.52        21.14855
350.97        21.12745
351.42        21.06404
351.87        20.95419
352.32        20.80974
352.77        20.65903
353.22        20.54374
353.67        20.47602
354.13        20.45392
354.58        20.43771
355.03        20.38274
355.48        20.28154
355.93        20.14978
356.38        20.02544
356.83        19.96888
357.28        19.98651
357.73         20.0485
358.18        20.10884
358.63        20.09598
359.08        19.98953
359.53        19.81408
359.98         19.5922
360.43        19.35991
360.88        19.13557
361.33        18.91284
361.78        18.70609
362.23        18.53524
362.68        18.40251
363.13        18.30753
363.58        18.22761
364.03        18.12332
364.48        17.98685
364.93         17.8288
365.38        17.67426
365.83        17.56208
366.28        17.49929
366.73        17.47092
367.18        17.45084
367.63        17.40036
368.08        17.30711
368.53        17.17888
368.98        17.03669
369.43        16.91118
369.88        16.80747
370.33        16.71748
370.78        16.61354
371.23        16.45235
371.68        16.23232
372.13        15.97615
372.58        15.73058
373.03        15.56225
373.48        15.48138
373.93        15.46207
374.38          15.465
374.83        15.42532
375.28        15.32212
375.72        15.17082
376.17        14.99763
376.62        14.81275
377.07        14.62425
377.52        14.42547
377.97        14.23867
378.42        14.10524
378.87        14.03459
379.32        14.01927
379.77        14.02349
380.22        13.99019
380.67        13.90689
381.11        13.78981
381.56        13.66726
382.01        13.60115
382.46        13.60693
382.91        13.66282
383.36        13.73046
383.81        13.75421
384.26        13.72158
384.71           13.65
385.15        13.56252
385.60        13.51278
386.05        13.50467
386.50        13.51576
386.95        13.52603
387.40        13.50559
387.85        13.45003
388.29        13.37365
388.74        13.28989
389.19        13.18305
389.64        13.05776
390.09        12.91395
390.54        12.79656
390.98        12.76652
391.43        12.83124
391.88        12.98611
392.33        13.15241
392.78        13.15034
393.23        12.99946
393.67        12.86983
394.12        12.79744
394.57        12.70124
395.02        12.59262
395.47        12.52088
395.91        12.48896
396.36        12.46035
396.81        12.43985
397.26        12.44841
397.71        12.45495
398.15        12.42576
398.60        12.37549
399.05        12.23613
399.50        12.08193
399.95        12.15934
400.39        12.42105
400.84        12.49895
401.29        12.36871
401.74        12.29302
402.18        12.27538
402.63        12.15575
403.08         12.0024
403.53        11.90988
403.97         12.0687
404.42        12.28018
404.87        12.51509
405.32        12.64381
405.76        12.63227
406.21        12.52351
406.66        12.37165
407.11         12.2647
407.55         12.2318
408.00        12.24496
408.45        12.27396
408.90        12.26463
409.34        12.20226
409.79        12.10893
410.24        12.02222
410.68        11.98926
411.13        12.01956
411.58        12.09725
412.03        12.17964
412.47        12.19573
412.92        12.12582
413.37        11.99784
413.81        11.86518
414.26        11.81449
414.71        11.85589
415.15        11.97059
415.60        12.10318
416.05        12.16518
416.49        12.13039
416.94        12.03016
417.39        11.91695
417.83        11.86704
418.28        11.89688
418.73        11.97544
419.17        12.06986
419.62        12.12039
420.07        12.10884
420.51        12.05574
420.96        11.97733
421.41        11.88613
421.85        11.78873
422.30        11.69211
422.74        11.60669
423.19        11.58406
423.64        11.61866
424.08        11.68492
424.53        11.75569
424.98        11.83239
425.42        11.91019
425.87        11.94858
426.31        11.95907
426.76        12.03892
427.21        12.15612
427.65        12.13603
428.10        12.01765
428.54         11.9897
428.99        12.06904
429.44         12.2269
429.88        12.37029
430.33        12.28561
430.77         12.0261
431.22        11.88006
431.66        11.88678
432.11        11.95526
432.56        12.04502
433.00        12.14914
433.45         12.1559
433.89        12.03601
434.34        11.47109
434.78        11.50461
435.23        12.01173
435.67        12.20069
436.12        12.05438
436.57        12.01127
437.01        12.10036
437.46        12.13561
437.90        12.11533
438.35         12.0919
438.79        12.05936
439.24        11.99908
439.68         11.9204
440.13        11.86216
440.57        11.81761
441.02        11.76235
441.46        11.69706
441.91        11.62689
442.35        11.56397
442.80        11.60776
443.24        11.72085
443.69        11.76346
444.13        11.73096
444.58         11.7404
445.02        11.78992
445.47        11.80257
445.91        11.78359
446.36        11.78616
446.80        11.81095
447.24        11.84851
447.69         11.8815
448.13        11.88154
448.58        11.84682
449.02        11.78572
449.47        11.73057
449.91        11.72324
450.36        11.77295
450.80        11.86212
451.25        11.95509
451.69        11.99162
452.13        11.95846
452.58        11.87343
453.02        11.76947
453.47        11.70505
453.91        11.69416
454.36         11.7195
454.80        11.74774
455.24        11.74297
455.69        11.70143
456.13        11.59783
456.58        11.46684
457.02        11.49261
457.46        11.49853
457.91        11.50688
458.35        11.45765
458.79        11.46291
459.24        11.50338
459.68         11.4521
460.13        11.34767
460.57        11.30351
461.01        11.33568
461.46        11.38289
461.90        11.42248
462.34         11.4317
462.79        11.39981
463.23        11.33476
463.68        11.26752
464.12        11.23676
464.56        11.25071
465.01        11.32712
465.45        11.41597
465.89        11.41175
466.34        11.33908
466.78        11.32422
467.22        11.38071
467.67         11.4268
468.11        11.45391
468.55        11.46655
468.99        11.46538
469.44        11.46761
469.88        11.47579
470.32        11.46762
470.77        11.45353
471.21        11.46825
471.65        11.51351
472.10        11.57651
472.54        11.63977
472.98        11.68348
473.42        11.70166
473.87        11.70559
474.31        11.69273
474.75          11.671
475.20        11.64992
475.64         11.6218
476.08        11.59585
476.52        11.60251
476.97        11.64726
477.41        11.69208
477.85        11.71144
478.29        11.88619
478.74        11.81486
479.18        11.90715
479.62        12.03039
480.06         12.1034
480.50        12.11619
480.95        12.12049
481.39        12.13059
481.83        12.15431
482.27        12.20386
482.72        12.29207
483.16         12.3858
483.60        12.43677
484.04        12.44656
484.48        12.37638
484.93         12.3258
485.37        12.49545
485.81         12.8781
486.25        13.02721
486.69        13.15065
487.14        12.95339
487.58        13.48964
488.02        13.05881
488.46        13.44517
488.90        13.28772
489.34        12.99308
489.79        13.09153
490.23        13.49641
490.67        13.91623
491.11        14.20593
491.55        14.20447
491.99        13.99056
492.43        13.97114
492.88        14.18178
493.32        14.35867
493.76        14.46173
494.20        14.57425
494.64        14.69217
495.08        14.79224
495.52        14.88913
495.96        15.01763
496.41        15.18028
496.85        15.34002
497.29        15.48968
497.73         15.6745
498.17         15.8603
498.61        15.93731
499.05        15.92181
499.49        15.90288
499.93        15.93022
500.37        16.07425
500.82        16.29512
501.26         16.4297
501.70        16.45905
502.14        16.47989
502.58        16.52505
503.02         16.6009
503.46        16.71567
503.90        16.86602
504.34        17.01839
504.78        17.11736
505.22        17.14974
505.66        17.12735
506.10        17.07766
506.54        17.08354
506.98        17.16805
507.42        17.24283
507.86        17.26098
508.30        17.52311
508.74        17.40659
509.18        17.42124
509.62        17.41909
510.06        17.47188
510.50        17.58521
510.94        17.74193
511.38        17.90653
511.82        18.00406
512.26        18.01813
512.70        17.97428
513.14        17.90174
513.58        17.84733
514.02        17.82667
514.46        17.82286
514.90         17.8371
515.34        17.87076
515.78        17.91923
516.22        17.98806
516.66        18.04944
517.10        18.05622
517.54        18.00398
517.98        17.90636
518.42        17.81129
518.86        17.79747
519.30        17.87894
519.74         18.0276
520.18          18.192
520.62        18.28738
521.06        18.28898
521.50          18.223
521.93        18.11907
522.37        18.02736
522.81        17.96505
523.25        17.91709
523.69        17.88053
524.13        17.85133
524.57        17.82677
525.01        17.81372
525.45         17.8042
525.89        17.78193
526.32        17.74258
526.76        17.68928
527.20         17.6347
527.64        17.60214
528.08        17.59515
528.52        17.60627
528.96        17.61456
529.40         17.5878
529.83        17.51686
530.27        17.41492
530.71        17.30591
531.15        17.22799
531.59        17.19025
532.03        17.18513
532.46        17.18478
532.90        17.14551
533.34         17.0619
533.78        16.95137
534.22        16.85095
534.66        16.81354
535.09        16.84357
535.53        16.92304
535.97        17.01272
536.41        17.03711
536.85        16.97856
537.28        16.90638
537.72        16.84505
538.16        16.72808
538.60        16.62292
539.04        16.74225
539.47        17.02343
539.91        17.17315
540.35        17.16282
540.79        17.15221
541.22        17.16487
541.66        17.18543
542.10        17.22722
542.54        17.26816
542.97        17.31258
543.41        17.43788
543.85        17.61334
544.29        17.70777
544.72        17.73076
545.16        17.82131
545.60        17.98165
546.04         18.1374
546.47        18.27725
546.91        18.41703
547.35        18.55242
547.79        18.68592
548.22        18.82403
548.66        18.97559
549.10        19.14905
549.53        19.38659
549.97        19.65709
550.41        19.86413
550.84        19.98897
551.28        20.07763
551.72        20.15098
552.15        20.22765
552.59        20.32932
553.03        20.44149
553.46        20.55796
553.90        20.69742
554.34        20.84814
554.77        20.98764
555.21        21.11799
555.65        21.25829
556.08        21.40306
556.52        21.54055
556.96        21.66053
557.39        21.76927
557.83        21.87337
558.27        21.94125
558.70        21.98676
559.14        22.08467
559.57        22.21435
560.01        22.28247
560.45        22.29225
560.88        22.32807
561.32        22.40549
561.75         22.4635
562.19        22.52226
562.63        22.58955
563.06        22.65859
563.50        22.80056
563.93        22.97395
564.37        22.95571
564.80         22.8127
565.24        22.93497
565.68        23.27094
566.11        23.44653
566.55        23.45116
566.98        23.47651
567.42        23.55036
567.85        23.69967
568.29        23.77402
568.72         23.9031
569.16         24.0539
569.60        24.24031
570.03        24.45525
570.47        24.66705
570.90        24.82998
571.34        25.06725
571.77        25.29678
572.21        25.20077
572.64        25.25968
573.08        25.28171
573.51        25.84457
573.95        25.98079
574.38        25.89371
574.82        25.70355
575.25        26.21585
575.69         26.2414
576.12        26.10562
576.56        25.95775
576.99        26.19497
577.42         26.6598
577.86        26.20858
578.29        26.49718
578.73          26.249
579.16        26.24579
579.60        26.14019
580.03         26.0679
580.47        26.04339
580.90        25.73188
581.33        25.62617
581.77        25.70885
582.20        25.95332
582.64        25.70994
583.07        25.62897
583.51        25.40436
583.94        25.32232
584.37        25.13376
584.81        24.91823
585.24        24.74585
585.68        25.04493
586.11        24.72294
586.54        24.68523
586.98        24.43523
587.41        24.51448
587.85         24.4474
588.28        24.34471
588.71        24.29984
589.15        24.19344
589.58        24.26054
590.01         24.2963
590.45        24.15627
590.88        23.97249
591.31        23.99412
591.75        24.22853
592.18        24.30603
592.61        24.20308
593.05        24.27411
593.48        24.55038
593.91        24.40726
594.35        24.60855
594.78        24.61099
595.21         24.6685
595.65        24.73264
596.08        24.75816
596.51        25.24464
596.94        25.16059
597.38        25.38688
597.81        25.63408
598.24        25.83376
598.68        26.00348
599.11        26.19504
599.54        27.10677
599.97        26.56774
600.41        27.33918
600.84        27.50494
601.27        27.81964
601.70        28.13139
602.14        28.44843
602.57        28.87455
603.00        29.33554
603.43        29.64349
603.87        29.83569
604.30        30.14364
604.73         30.6199
605.16        31.02875
605.60         31.3406
606.03        31.69788
606.46        32.15845
606.89        32.02262
607.32         33.0058
607.76        33.16117
608.19        33.51089
608.62        33.80347
609.05        34.17175
609.48         34.4436
609.92         34.7662
610.35        34.72504
610.78        35.80501
611.21         36.4692
611.64        36.34288
612.07        36.52984
612.50        36.87091
612.94        37.03604
613.37        36.99803
613.80        37.67802
614.23        37.63491
614.66        37.95665
615.09        38.20567
615.52        38.41541
615.96        38.58286
616.39        38.75711
616.82        38.96368
617.25        39.10426
617.68          39.434
618.11         39.4296
618.54        39.27596
618.97        39.39485
619.40        39.79934
619.84        40.15109
620.27        40.39629
620.70         40.6409
621.13        40.86768
621.56        40.83488
621.99        40.64579
622.42        40.87452
622.85        41.35699
623.28        41.44179
623.71        41.04139
624.14        41.28353
624.57        40.75319
625.00        40.86731
625.43        40.77184
625.86        40.85564
626.29         40.9239
626.72        40.92043
627.15        40.83135
627.58        40.64725
628.01         40.3899
628.44        40.21928
628.87         39.8941
629.30        39.71468
629.73         39.5755
630.16        39.36946
630.59        39.08195
631.02        38.78384
631.45        38.50608
631.88        38.23737
632.31        37.97404
632.74        37.81336
633.17        37.52716
633.60        37.21001
634.03        36.79542
634.46        36.31425
634.89         35.7998
635.32        35.30684
635.75        34.85813
636.18        34.44038
636.61        34.05413
637.04        33.69889
637.47        33.37113
637.89        33.06571
638.32        32.75478
638.75        32.44575
639.18        32.14281
639.61        31.71884
640.04        31.43017
640.47         31.1116
640.90        30.84308
641.33        30.61451
641.76        30.42753
642.18        30.28394
642.61        30.17056
643.04        30.09314
643.47        30.04856
643.90        30.02954
644.33        30.03182
644.76        30.06062
645.18        30.11466
645.61        30.15488
646.04          30.177
646.47        30.25752
646.90        30.44209
647.33        30.43784
647.75        30.82761
648.18        31.13398
648.61        31.49723
649.04        31.84985
649.47        32.18634
649.89        32.52478
650.32        32.85873
650.75        33.22616
651.18        33.62148
651.61        33.98648
652.03         34.3611
652.46        34.83849
652.89        35.37628
653.32        35.84911
653.74        36.34351
654.17        36.38797
654.60          36.707
655.03        37.21328
655.46        37.58548
655.88        37.87036
656.31        40.41637
656.74        44.03495
657.16         42.0483
657.59        39.67629
658.02        40.18053
658.45        41.15282
658.87        41.38774
659.30        41.48398
659.73        41.45068
660.15        41.71626
660.58        41.98983
661.01        42.36633
661.44        42.66242
661.86        42.87202
662.29        42.99818
662.72        43.14399
663.14         43.3504
663.57        43.49454
664.00        43.61364
664.42        43.87613
664.85        44.25792
665.27        44.50813
665.70         44.6159
666.13        44.78708
666.55        45.02539
666.98        45.18954
667.41        45.29231
667.83         45.4142
668.26        45.56003
668.69        45.72501
669.11        45.87678
669.54        45.95553
669.96        45.95638
670.39        45.91645
670.82        45.92955
671.24        46.07044
671.67        46.36828
672.09        46.92556
672.52        47.60367
672.94        47.75536
673.37        47.88469
673.80        47.65445
674.22        47.39337
674.65        47.32603
675.07        47.52724
675.50        47.91006
675.92        48.34764
676.35        48.61264
676.77        48.65639
677.20        48.54973
677.62        48.39801
678.05        48.39388
678.47        48.56335
678.90        48.78181
679.32        49.00986
679.75        49.27302
680.17        49.54764
680.60        49.78368
681.02        49.92167
681.45        50.11102
681.87        49.86507
682.30        49.80285
682.72        49.81189
683.15        49.80779
683.57        49.81193
684.00        49.91462
684.42        50.09152
684.85        50.24716
685.27        50.35836
685.70        50.39835
686.12        50.38166
686.54        50.50953
686.97        50.71657
687.39        50.68778
687.82        50.45115
688.24        50.36177
688.66        50.44733
689.09        50.50728
689.51        50.54354
689.94        50.68873
690.36        50.95773
690.78         51.2135
691.21        51.35238
691.63        51.90899
692.06        51.56944
692.48        51.82007
692.90        52.21643
693.33        52.41945
693.75        52.41545
694.17        52.33979
694.60         52.2528
695.02        52.57477
695.44        52.57533
695.87        52.87811
696.29        53.17541
696.71        53.23475
697.14        53.06028
697.56        52.85577
697.98        52.72963
698.41        52.71809
698.83        52.79676
699.25        53.04895
699.68        53.36168
700.10        53.58482
700.52        53.65359
700.94        53.61548
701.37        53.52928
701.79        53.51204
702.21        53.58257
702.64        53.70504
703.06        53.82932
703.48        53.88157
703.90         53.8538
704.33        53.78686
704.75        53.72643
705.17         53.7284
705.59        53.80884
706.01        53.93585
706.44        54.11266
706.86        54.34753
707.28        54.60268
707.70        54.93089
708.12         55.2486
708.55        55.27562
708.97        55.06104
709.39        54.98547
709.81        55.07843
710.23         55.0912
710.66        55.03391
711.08        55.09408
711.50        55.25154
711.92        55.39365
712.34        55.50512
712.76        55.61609
713.19        55.69738
713.61        55.74886
714.03        55.74592
714.45        55.68359
714.87        55.59443
715.29        55.53326
715.71        55.51073
716.13        55.51994
716.56        55.51081
716.98        55.45295
717.40        55.32487
717.82        55.15847
718.24        55.01757
718.66        54.99028
719.08        55.09204
719.50        55.31384
719.92         55.6045
720.34        55.80439
720.76        55.92038
721.19        56.13957
721.61        56.41684
722.03        56.51881
722.45        56.45704
722.87        56.21944
723.29        55.89998
723.71        55.98384
724.13        56.51073
724.55          56.125
724.97        56.52667
725.39        56.50644
725.81        56.57054
726.23        56.53399
726.65        56.45509
727.07        56.47449
727.49        56.59741
727.91        56.79242
728.33         57.0215
728.75        57.22504
729.17        57.37634
729.59        57.49117
730.01         57.5768
730.43        57.64249
730.85        57.69564
731.27        57.73172
731.69         57.7518
732.10          57.769
732.52        57.78048
732.94        57.77786
733.36        57.77217
733.78        57.77502
734.20        57.80027
734.62        57.87173
735.04        57.93711
735.46        57.93679
735.88        57.85856
736.30        57.62633
736.72        57.39147
737.13        57.54313
737.55        57.97275
737.97        58.41906
738.39        58.71052
738.81        58.37928
739.23        57.67769
739.65        57.81585
740.06        58.61048
740.48        58.80444
740.90        58.36275
741.32        57.69671
741.74         57.6384
742.16        57.52909
742.57        57.64187
742.99         57.8745
743.41        58.13786
743.83        58.79348
744.25        58.91737
744.67        59.21968
745.08        59.43276
745.50        59.53235
745.92        59.52766
746.34         59.4295
746.75        59.28149
747.17        59.15383
747.59        59.06658
748.01          58.995
748.42        58.95333
748.84        58.94945
749.26        58.94174
749.68        58.98079
750.09        59.05241
750.51        58.85515
750.93        58.58289
751.35        59.06104
751.76        60.08999
752.18        60.47857
752.60        60.12235
753.01        59.65446
753.43         59.2774
753.85        59.08003
754.27        59.13423
754.68        59.38826
755.10        59.72491
755.52        59.95952
755.93        60.05963
756.35        60.10506
756.77        60.05484
757.18        60.05648
757.60        60.18487
758.02        59.87868
758.43        59.27354
758.85        60.43713
759.26        61.27135
759.68        61.60094
760.10         60.9312
760.51        60.54945
760.93        60.61946
761.34        60.51162
761.76        60.82417
762.18        60.47485
762.59        59.85692
763.01        60.02913
763.42         60.9168
763.84        61.19663
764.26        60.81134
764.67        60.37407
765.09        60.10529
765.50        60.23173
765.92         60.6509
766.33        60.57434
766.75        60.02368
767.16        59.99761
767.58        60.50124
768.00          60.829
768.41        60.96493
768.83        61.40017
769.24         61.8804
769.66        61.84396
770.07        60.81003
770.49        60.13887
770.90        59.83454
771.32        59.89971
771.73        60.25685
772.15        60.57476
772.56        60.84613
772.97        60.99651
773.39        61.54799
773.80        61.75985
774.22          61.739
774.63        61.56964
775.05        61.32393
775.46        61.16183
775.88        61.11453
776.29        61.17203
776.70        61.28194
777.12         61.3638
777.53        61.40173
777.95        61.39796
778.36        61.39567
778.77        61.39674
779.19        61.41463
779.60        61.55179
780.02        61.73574
780.43        61.67489
780.84        61.47781
781.26        61.52671
781.67        61.87851
782.09        62.38658
782.50        62.87535
782.91        62.96302
783.33        62.65717
783.74        62.49303
784.15        62.48043
784.57         62.2735
784.98        61.96166
785.39        61.86845
785.81        62.03097
786.22        62.36613
786.63        62.72256
787.04        62.85255
787.46        62.71744
787.87        62.36885
788.28        62.01154
788.70        61.90623
789.11        62.08531
789.52        62.57435
789.93        63.16126
790.35        63.25402
790.76        62.89579
791.17        62.71366
791.58        62.80073
792.00        62.79773
792.41        62.74775
792.82        62.95416
793.23         63.3557
793.65        63.52047
794.06        63.49659
794.47        63.72611
794.88        64.08578
795.29        64.12138
795.71        63.78935
796.12        63.34936
796.53        62.95116
796.94        62.77433
797.35        62.89838
797.76        63.30623
798.18        63.80257
798.59        64.07806
799.00        64.01911
799.41        63.72412
799.82        63.33902
800.23        63.09286
800.64        63.05335
801.06        63.12526
801.47        63.27385
801.88        63.33597
802.29        63.26147
802.70        63.09718
803.11        62.92852
803.52        62.87803
803.93        62.98078
804.34        63.21077
804.75        63.46309
805.17        63.56855
805.58         63.5253
805.99        63.32447
806.40        63.10142
806.81        63.22828
807.22        63.64048
807.63        63.86875
808.04        63.86124
808.45         63.8763
808.86        63.89638
809.27        63.72928
809.68        63.43398
810.09        63.23398
810.50        63.17484
810.91        63.19318
811.32        63.26671
811.73        63.34468
812.14        63.39862
812.55         63.4887
812.96        63.59452
813.37        63.55984
813.78          63.433
814.19        63.47899
814.60        63.65314
815.01        63.68401
815.42        63.56393
815.83        63.43244
816.24        63.38215
816.65         63.5083
817.05        63.83197
817.46        64.27367
817.87        64.70087
818.28          64.874
818.69        64.74973
819.10        64.39627
819.51        63.93888
819.92         63.6467
820.33         63.6132
820.74        63.67632
821.14        63.78414
821.55        64.05569
821.96        64.36089
822.37        64.33099
822.78        63.98884
823.19         63.7656
823.60        63.71843
824.00         63.5951
824.41        63.43425
824.82         63.5103
825.23        63.84045
825.64        64.34092
826.04         64.8995
826.45        65.22816
826.86        65.27589
827.27        65.12682
827.68         64.8455
828.08        64.56725
828.49        64.31694
828.90        64.07449
829.31         63.9301
829.72        64.02853
830.12        64.40755
830.53        64.99046
830.94        65.58662
831.35        65.80562
831.75        65.56143
832.16        64.90962
832.57        64.13456
832.97        63.67877
833.38        63.65984
833.79        63.95009
834.20        64.34271
834.60        64.50059
835.01        64.36031
835.42         64.0505
835.82        63.72802
836.23        63.59275
836.64        63.72424
837.04        64.05646
837.45        64.47897
837.86        64.92386
838.26        65.33415
838.67        65.67562
839.08         65.8915
839.48        65.87345
839.89        65.61157
840.29        65.12305
840.70        64.53774
841.11        63.99734
841.51        63.58247
841.92        63.29842
842.33        63.11637
842.73        62.98077
843.14        62.84319
843.54         62.7266
843.95         62.7628
844.35        63.19189
844.76        63.98286
845.17        65.05679
845.57        66.08635
845.98        66.38599
846.38        65.85614
846.79        64.71714
847.19        63.39952
847.60        62.59242
848.00        62.46609
848.41         62.8046
848.81        63.45041
849.22        64.02768
849.62        64.43309
850.03        64.72311
850.43        64.88721
850.84        64.79395
851.24        64.48803
851.65        63.95964
852.05        63.37575
852.46        63.03173
852.86        62.97335
853.27        63.14732
853.67        63.40872
854.07        63.71041
854.48        63.96807
854.88        64.27568
855.29        64.43603
855.69        64.29379
856.10        63.74525
856.50        62.91918
856.90        62.09671
857.31        61.72454
857.71        61.92596
858.12        62.55333
858.52        63.41859
858.92        63.97935
859.33         64.0414
859.73        63.77955
860.13        63.37207
860.54        63.14263
860.94        63.21437
861.34        63.44516
861.75        63.69855
862.15        63.85207
862.55        63.81072
862.96        63.65449
863.36        63.40447
863.76        63.09339
864.17          62.749
864.57        62.39797
864.97        62.06582
865.38        61.78197
865.78        61.59404
866.18        61.46776
866.58        61.44077
866.99        61.56689
867.39         61.8436
867.79        62.21782
868.19        62.54209
868.60        62.57145
869.00        62.28484
869.40        61.78354
869.80        61.22797
870.21        60.91391
870.61        60.96081
871.01        61.22686
871.41        61.66868
871.81        62.22815
872.22        62.83323
872.62        63.55342
873.02        64.19783
873.42         64.3981
873.82        64.08336
874.22         63.3704
874.63         62.6195
875.03        62.35196
875.43        62.67673
875.83        63.41445
876.23        64.30351
876.63        64.87628
877.03         64.9854
877.44        64.81964
877.84        64.41878
878.24        63.87799
878.64        63.28159
879.04        62.56808
879.44        61.98097
879.84         61.8847
880.24        62.29401
880.64        63.13708
881.04        63.96003
881.44        63.93674
881.84        62.92533
882.24        61.26104
882.65        59.59395
883.05        58.76104
883.45         58.9745
883.85        59.97219
884.25        61.38043
884.65        62.49794
885.05        63.03237
885.45        63.16222
885.85        63.05426
886.25        62.97563
886.65        63.01744
887.05        63.05968
887.45        63.04819
887.85        62.93848
888.25        62.71882
888.65        62.44507
889.04          62.167
889.44        61.96055
889.84        61.84003
890.24        61.81937
890.64        61.84381
891.04         61.8246
891.44        61.75126
891.84        61.63856
892.24        61.62653
892.64         61.9306
893.04        62.58146
893.44        63.52157
893.83         64.5182
894.23        65.09809
894.63        65.16377
895.03        64.78812
895.43        64.29939
895.83        64.23106
896.23        64.69287
896.63         65.5435
897.02        66.35146
897.42        66.41959
897.82        65.63452
898.22        64.24516
898.62        62.81896
899.01        62.13514
899.41        62.36309
899.81        63.31174
900.21        64.45043
900.61         64.7895
901.00        64.06963
901.40        62.69191
901.80        61.35674
902.20        61.01781
902.59         61.8685
902.99        63.59324
903.39         65.6218
903.79        66.74785
904.18        66.53581
904.58        65.40175
904.98        64.00702
905.38        63.25787
905.77        63.34033
906.17        63.97811
906.57        64.80261
906.96        65.25385
907.36        65.10976
907.76        64.58281
908.15        63.94105
908.55        63.53249
908.95        63.50606
909.34        63.72775
909.74        64.01008
910.14        64.04861
910.53        63.78328
910.93        63.34801
911.33        62.95848
911.72        62.96115
912.12        63.41718
912.52        64.18541
912.91        65.03925
913.31        65.60294
913.70        65.79172
914.10        65.66042
914.49        65.37156
914.89        65.13372
915.29        65.05764
915.68        65.09364
916.08        65.17831
916.47        65.16155
916.87        65.03947
917.26        64.81243
917.66        64.64896
918.05        64.78575
918.45        65.21733
918.84        65.92268
919.24        66.50992
919.64        66.40525
920.03         65.5144
920.42         64.0637
920.82        62.63567
921.21        61.90716
921.61        62.01136
922.00        62.79068
922.40        63.84095
922.79         64.5145
923.19        64.54389
923.58        64.12827
923.98        63.61062
924.37        63.47219
924.77        63.82304
925.16        64.51146
925.55        65.24355
925.95        65.50428
926.34        65.19503
926.74        64.49776
927.13        63.70365
927.52        63.22916
927.92        63.18209
928.31         63.4057
928.70        63.78251
929.10        64.10032
929.49        64.29083
929.89        64.44548
930.28        64.53655
930.67        64.47325
931.07        64.25287
931.46        63.87917
931.85        63.57346
932.24        63.73813
932.64        64.41145
933.03        65.54864
933.42        66.71609
933.82        67.18777
934.21        66.82858
934.60        65.85662
934.99        64.77707
935.39        64.34194
935.78        64.70715
936.17        65.59526
936.56        66.65139
936.96        67.28294
937.35        67.32078
937.74        66.94872
938.13        66.21639
938.53        65.19096
938.92        63.99374
939.31        62.71369
939.70        61.64818
940.09        61.26086
940.49        61.57301
940.88        62.43931
941.27        63.64502
941.66        64.77232
942.05        65.58076
942.44        66.17369
942.84        66.22677
943.23        65.25313
943.62        63.38287
944.01        60.92868
944.40        58.73351
944.79        57.86634
945.18        58.46059
945.57        60.27148
945.97        62.60327
946.36        64.24017
946.75        64.53826
947.14        63.82132
947.53        62.68271
947.92        62.12202
948.31        62.40203
948.70        63.12987
949.09        63.97214
949.48        64.40845
949.87        64.26571
950.26        63.82337
950.65        63.13324
951.04        62.22904
951.43         61.2351
951.82        60.15342
952.21        59.31665
952.60        59.24069
952.99         59.9712
953.38        61.34909
953.77        62.89357
954.16        63.74935
954.55        63.65684
954.94         62.8322
955.33        61.66571
955.72        60.83699
956.11        60.56949
956.50        60.67327
956.89        60.97541
957.28         61.1829
957.66        61.21327
958.05        61.20366
958.44        61.22004
958.83        61.32662
959.22        61.53577
959.61        61.74548
960.00        61.97977
960.39        62.31255
960.78        62.71238
961.16        63.15403
961.55        63.41987
961.94        63.14931
962.33        62.32683
962.72        61.10623
963.11         59.8694
963.49        59.25935
963.88        59.40027
964.27         60.1239
964.66        61.14326
965.04        61.97362
965.43        62.38151
965.82        62.53059
966.21        62.48424
966.60        62.35639
966.98        62.23788
967.37        62.06119
967.76        61.91536
968.15        61.96369
968.53        62.23822
968.92        62.64044
969.31        63.11777
969.69        63.54168
970.08        63.81487
970.47        63.99186
970.86        63.95295
971.24        63.51187
971.63        62.68965
972.02        61.60641
972.40        60.61003
972.79        60.26912
973.17        60.77755
973.56        61.85867
973.95        63.27565
974.33        64.67057
974.72        65.81336
975.11        66.82759
975.49         67.5804
975.88        67.71727
976.26        67.21127
976.65        66.07864
977.04        64.70637
977.42        63.61628
977.81        62.92983
978.19        62.48632
978.58        62.14879
978.96         61.4833
979.35        60.44304
979.74        59.18237
980.12        57.92549
980.51        56.91916
980.89        56.37069
981.28        56.23983
981.66        56.51604
982.05        57.10879
982.43        57.93828
982.82        58.89165
983.20        60.05536
983.59        61.61858
983.97        63.62687
984.35        65.99953
984.74        67.93127
985.12        68.30484
985.51        66.76222
985.89        63.84033
986.28        60.74605
986.66        58.83134
987.04          58.472
987.43        59.24534
987.81        60.68948
988.20        61.73605
988.58        62.02193
988.96         61.8998
989.35        61.41801
989.73        60.78717
990.12        60.10125
990.50        59.20193
990.88        58.49163
991.27        58.62465
991.65        59.71864
992.03        61.79211
992.42         63.9811
992.80        64.76407
993.18        63.48836
993.56        60.79438
993.95        58.15834
994.33         57.0396
994.71         57.7738
995.10        59.88247
995.48        62.61512
995.86        63.88076
996.24        62.88021
996.63        60.41678
997.01        57.66797
997.39        56.14934
997.77        56.18746
998.15        57.22531
998.54         58.9045
998.92        60.56845
999.30        61.89329
999.68        63.22204
1000.06        64.14061
1000.45        63.87552
1000.83        62.56045
1001.21        60.29247
1001.59        58.28837
1001.97        58.29084
1002.35        60.54741
1002.73        64.68777
1003.12        69.35754
1003.50        71.99229
1003.88        71.68724
1004.26        69.17151
1004.64        65.91712
1005.02        64.35515
1005.40        65.07851
1005.78        67.20736
1006.16        69.71792
1006.54         70.9109
1006.92        70.19901
1007.30        68.25865
1007.69         65.2622
1008.07        61.80357
1008.45        58.60744
1008.83        55.71547
1009.21        53.84452
1009.59        53.72659
1009.97        55.30685
1010.35        58.63394
1010.73        62.75037
1011.11        65.12726
1011.49        64.57678
1011.86        61.36838
1012.24        57.56993
1012.62        56.45424
1013.00        58.97367
1013.38         64.8254
1013.76        71.84972
1014.14        74.17551
1014.52        70.17961
1014.90        63.06785
1015.28         56.6506
1015.66        54.20037
1016.04        55.88507
1016.41        61.00116
1016.79        68.45734
1017.17        75.40967
1017.55        79.41037
1017.93        80.70818
1018.31        79.00175
1018.69         74.8563
1019.06        69.58165
1019.44        64.15275
1019.82        59.58345
1020.20        56.43505
1020.58        54.37117
1020.95        53.19538
1021.33         52.8073
1021.71        53.03095
1022.09        53.74437
1022.46        54.71532
1022.84        55.97905
1023.22        57.55597
1023.60        59.51872
1023.97        62.03739
1024.35        64.19542
1024.73        63.82318
