SpectraSmart Spectrum 2.9.0.0
--------- Device Information -----------
Spectrum Name :  反射率_0
Saving Time :  2024/05/03 20:49:55
Spectro-Module Model Name : SE2030-DUVN
Spectro-Module Serial Number : OS361AC55029948
Wavelength Start : 200
Wavelength End : 1025
Wavelength Unit : Wavelength(nm)
Spectrum Unit : Reflectance(%)
-----------Spectrum Setting ------------
Integration Time : 20ms
Average : 10
Boxcar : 0
Background removal :  enabled
linearity correction :  enabled
SC :  disabled
Intensity correction :  disabled
DWT denoise :  enabled
savitzky-golay :  disabled
FFT :  disabled
Running average :  disabled
Kalman :  disabled
High pass :  disabled
---------------BEGIN--------------------
Wavelength(nm)             Reflectance(%)
200.29               0
200.75        -23.7569
201.21       -31.50065
201.67         471.096
202.13        9.242133
202.58        8.197088
203.04        12.20074
203.50        15.95186
203.96        16.29132
204.42         11.3449
204.88       -10.45027
205.34        740.0204
205.80        81.29061
206.26        55.18312
206.72       -3512.319
207.18        70.24701
207.64        63.03982
208.10        59.18813
208.55        53.91377
209.01        -16.2935
209.47       -107.1947
209.93        25.06191
210.39        40.03495
210.85        45.53626
211.31        50.25762
211.77        57.11036
212.23        72.45925
212.69        109.0361
213.14        127.1299
213.60        71.86145
214.06        39.65635
214.52        27.78578
214.98        24.13689
215.44        24.89496
215.90        35.34365
216.36       -159.5746
216.81       -38.97747
217.27       -62.97087
217.73       -154.1735
218.19       -681.9843
218.65       -14841.92
219.11       -1088.592
219.57       -278.3659
220.02       -147.3882
220.48       -237.7637
220.94        288.9988
221.40        99.36411
221.86        73.13647
222.32        68.10992
222.77         71.2891
223.23        82.32861
223.69        102.3255
224.15        117.9676
224.61        115.9234
225.06         105.264
225.52        97.85606
225.98         98.9009
226.44        108.1454
226.90        124.0034
227.36        145.1369
227.81        162.0053
228.27        165.7078
228.73        160.4535
229.19        149.9038
229.65        136.8817
230.10        123.3579
230.56         111.019
231.02        101.2433
231.48        95.90747
231.93        94.44489
232.39        95.84704
232.85        98.76384
233.31        101.6794
233.77        103.9766
234.22        105.6904
234.68        107.0968
235.14        108.6617
235.60        110.4419
236.05        112.5868
236.51        113.3064
236.97        110.0234
237.43        102.7928
237.88        93.12267
238.34        84.65724
238.80        81.40772
239.26        84.39146
239.71        96.12346
240.17        117.5132
240.63        138.3412
241.08        140.2418
241.54        118.9975
242.00        91.96911
242.46        77.02847
242.91        75.46851
243.37        85.07182
243.83        109.7052
244.28        140.5173
244.74        148.7886
245.20        134.8266
245.66        108.1688
246.11        77.95632
246.57        49.51974
247.03        22.49885
247.48        2.613295
247.94       -5.350022
248.40       -2.625096
248.85        7.888992
249.31         23.5322
249.77        35.13917
250.22        38.47152
250.68        37.23151
251.14        35.09245
251.59        35.51601
252.05        39.74924
252.51         48.3347
252.96        62.39145
253.42         78.1694
253.88        88.35912
254.33        91.40109
254.79        90.44688
255.25        88.57699
255.70        86.95258
256.16        86.36981
256.62        86.15327
257.07        86.05803
257.53        86.53732
257.99        86.89824
258.44        87.23489
258.90        88.34313
259.35         89.3829
259.81        90.69206
260.27        91.07755
260.72         89.3858
261.18        86.66795
261.63        83.32495
262.09        80.76514
262.55        79.79764
263.00        80.15324
263.46        81.42023
263.91         82.7559
264.37        83.44959
264.83        83.23329
265.28        82.39018
265.74        81.29822
266.19        80.01865
266.65        78.81822
267.11         77.5249
267.56        76.23985
268.02        75.29066
268.47        74.61644
268.93        74.21425
269.38        73.83921
269.84        73.06976
270.30        71.89206
270.75        70.46673
271.21        69.18333
271.66        68.44267
272.12        68.30573
272.57        68.49833
273.03        68.76586
273.48        68.71599
273.94        68.25205
274.39        67.51463
274.85        66.51375
275.31        65.09588
275.76        63.33662
276.22        61.44289
276.67        59.76279
277.13        58.98759
277.58        59.01454
278.04        59.64125
278.49        60.26414
278.95        60.02925
279.40        58.73409
279.86        56.87799
280.31        54.83404
280.77        53.28117
281.22        52.20367
281.68        51.46564
282.13        50.86093
282.59        50.24801
283.04          49.529
283.50          48.826
283.95        48.12066
284.41        47.44878
284.86        46.78303
285.32        46.16053
285.77        45.54664
286.22        44.99879
286.68        44.54552
287.13        44.11834
287.59        43.77688
288.04        43.50502
288.50         43.3167
288.95        43.16426
289.41        42.97994
289.86        42.59473
290.32        42.03518
290.77        41.33758
291.22        40.66269
291.68        40.21621
292.13        40.01601
292.59        40.03093
293.04        40.14858
293.50        40.21049
293.95        40.16247
294.40        40.05722
294.86        39.99808
295.31        40.11544
295.77        40.43008
296.22         40.8693
296.68        41.31439
297.13        41.58232
297.58        41.61864
298.04        41.51961
298.49        41.34538
298.95        41.23644
299.40        41.21524
299.85        41.25434
300.31        41.39486
300.76        41.66479
301.21        42.05701
301.67        42.55264
302.12        43.01666
302.58        43.27345
303.03        43.26826
303.48        43.07142
303.94        42.83091
304.39        42.69519
304.84        42.72784
305.30        42.87501
305.75        43.04659
306.20        43.14404
306.66        43.15662
307.11        43.10265
307.57        43.03424
308.02        42.94143
308.47         42.8554
308.93        42.76774
309.38        42.68409
309.83        42.66742
310.29        42.71946
310.74        42.81222
311.19        42.88111
311.65        42.81722
312.10        42.59163
312.55        42.24123
313.00        41.84807
313.46        41.54293
313.91        41.34425
314.36          41.233
314.82        41.15034
315.27        40.98674
315.72         40.7286
316.18        40.41407
316.63        40.11234
317.08        39.93614
317.53        39.90584
317.99        39.97309
318.44        40.06885
318.89        40.06145
319.35         39.9134
319.80        39.66442
320.25        39.36954
320.70        39.12336
321.16        38.94323
321.61        38.80061
322.06        38.65818
322.51        38.46192
322.97        38.19584
323.42        37.90019
323.87         37.5836
324.32        37.25841
324.78        36.93552
325.23         36.6258
325.68        36.35909
326.13        36.19152
326.59        36.11874
327.04        36.14126
327.49        36.20229
327.94        36.21826
328.39        36.15759
328.85        36.02443
329.30        35.85271
329.75        35.66634
330.20        35.48298
330.66        35.28475
331.11        35.10023
331.56        34.93213
332.01        34.78557
332.46        34.66611
332.92        34.56081
333.37        34.48436
333.82        34.42056
334.27         34.3689
334.72        34.32427
335.17        34.28083
335.63        34.22385
336.08        34.16722
336.53        34.10295
336.98        34.03647
337.43        33.96949
337.88        33.90534
338.34        33.83371
338.79        33.74146
339.24        33.63213
339.69        33.52093
340.14        33.43407
340.59        33.41434
341.05        33.46389
341.50        33.55635
341.95        33.67108
342.40         33.7817
342.85        33.86787
343.30        33.93526
343.75        33.93642
344.20        33.79911
344.66        33.53773
345.11        33.18504
345.56        32.84945
346.01        32.69185
346.46        32.74971
346.91        32.97476
347.36         33.2895
347.81        33.56717
348.26        33.75945
348.72        33.89176
349.17        33.97298
349.62        34.03144
350.07        34.07482
350.52        34.08422
350.97        34.04935
351.42        33.96504
351.87        33.83309
352.32         33.6618
352.77        33.47804
353.22        33.31822
353.67        33.19512
354.13        33.11767
354.58        33.03952
355.03        32.91064
355.48        32.72739
355.93        32.51064
356.38        32.31739
356.83        32.23755
357.28        32.28086
357.73        32.40553
358.18        32.54335
358.63        32.58511
359.08        32.50009
359.53        32.32535
359.98          32.089
360.43        31.83991
360.88         31.5983
361.33        31.34154
361.78        31.10014
362.23        30.92036
362.68        30.80384
363.13        30.74972
363.58        30.67839
364.03         30.4584
364.48        30.07552
364.93        29.57534
365.38          29.087
365.83        28.80892
366.28        28.78014
366.73        28.93891
367.18        29.15209
367.63        29.20251
368.08        29.02876
368.53        28.68999
368.98        28.29807
369.43        28.02391
369.88        27.90878
370.33        27.90252
370.78        27.90566
371.23        27.75791
371.68         27.4269
372.13        26.97587
372.58        26.53076
373.03        26.27352
373.48        26.24017
373.93        26.37117
374.38         26.5453
374.83        26.56266
375.28        26.37122
375.72        26.02871
376.17        25.66307
376.62        25.41833
377.07        25.32657
377.52        25.33246
377.97        25.37068
378.42        25.34111
378.87        25.21684
379.32        25.03904
379.77        24.84673
380.22         24.6875
380.67        24.57156
381.11        24.48281
381.56        24.39589
382.01        24.29397
382.46        24.17464
382.91        24.05185
383.36        23.93344
383.81        23.82518
384.26        23.72721
384.71        23.63381
385.15         23.5403
385.60        23.45979
386.05        23.38417
386.50        23.30697
386.95        23.22061
387.40        23.11303
387.85        22.98584
388.29        22.84042
388.74        22.69888
389.19        22.53852
389.64        22.36059
390.09         22.1677
390.54        22.00085
390.98        21.90444
391.43        21.89329
391.88        21.98768
392.33        22.11753
392.78        22.07223
393.23        21.89566
393.67         21.8377
394.12        21.90839
394.57        21.89546
395.02        21.79483
395.47        21.71316
395.91         21.6692
396.36        21.62714
396.81        21.60146
397.26        21.61186
397.71        21.60829
398.15        21.54144
398.60        21.43885
399.05        21.19279
399.50        20.91406
399.95        20.99892
400.39         21.3601
400.84        21.36758
401.29         21.0299
401.74        20.87351
402.18        20.91717
402.63        20.86267
403.08        20.74851
403.53        20.60947
403.97        20.74809
404.42         20.8646
404.87        20.99141
405.32        21.03632
405.76        20.97671
406.21        20.84975
406.66        20.68919
407.11        20.55462
407.55        20.46966
408.00         20.4109
408.45        20.37225
408.90        20.33742
409.34        20.29965
409.79        20.26929
410.24          20.248
410.68        20.23151
411.13        20.22072
411.58         20.2109
412.03        20.19784
412.47        20.18168
412.92        20.15554
413.37         20.1221
413.81        20.08187
414.26        20.05909
414.71        20.04647
415.15        20.04775
415.60        20.03672
416.05        19.99512
416.49        19.92162
416.94        19.82894
417.39        19.73873
417.83        19.67957
418.28        19.65726
418.73        19.65637
419.17         19.6687
419.62        19.67051
420.07        19.65553
420.51         19.6249
420.96        19.57825
421.41        19.49849
421.85        19.38197
422.30        19.25211
422.74        19.12244
423.19        19.06779
423.64        19.08208
424.08        19.12215
424.53        19.16443
424.98        19.24788
425.42        19.37341
425.87        19.46192
426.31        19.51251
426.76        19.64567
427.21        19.79846
427.65        19.69869
428.10        19.41681
428.54        19.26668
428.99        19.29004
429.44        19.44625
429.88        19.60277
430.33        19.44456
430.77        19.05537
431.22        18.87829
431.66        18.96815
432.11        19.16994
432.56         19.4072
433.00        19.66654
433.45         19.7356
433.89        19.51762
434.34        18.49585
434.78        18.38261
435.23        19.00212
435.67        19.15564
436.12          18.845
436.57        18.74852
437.01        18.89351
437.46        18.95895
437.90         18.9315
438.35        18.90217
438.79         18.8723
439.24        18.82959
439.68        18.78815
440.13        18.79762
440.57        18.82417
441.02        18.79321
441.46         18.6973
441.91        18.55605
442.35        18.41444
442.80        18.46556
443.24        18.65663
443.69        18.75404
444.13        18.73348
444.58        18.75364
445.02        18.80555
445.47        18.78028
445.91         18.6969
446.36         18.6561
446.80        18.66293
447.24        18.69373
447.69        18.72456
448.13        18.71729
448.58          18.667
449.02        18.58613
449.47         18.5048
449.91        18.45454
450.36        18.44787
450.80        18.46943
451.25        18.49899
451.69         18.4967
452.13        18.45568
452.58        18.38981
453.02        18.31848
453.47        18.28084
453.91        18.28456
454.36        18.31614
454.80        18.35002
455.24         18.3752
455.69        18.39178
456.13         18.3388
456.58        18.23554
457.02        18.32573
457.46        18.31869
457.91        18.27122
458.35        18.11644
458.79        18.07417
459.24        18.12397
459.68        18.05246
460.13        17.91026
460.57        17.86375
461.01        17.93153
461.46        18.02545
461.90        18.10022
462.34         18.1073
462.79        18.02844
463.23        17.87776
463.68        17.72351
464.12        17.66191
464.56        17.70972
465.01        17.88276
465.45        18.07561
465.89        18.08404
466.34        17.94095
466.78         17.8597
467.22         17.8791
467.67         17.9028
468.11        17.92931
468.55        17.95264
468.99        17.96402
469.44        17.97452
469.88        17.98163
470.32        17.95733
470.77        17.91208
471.21        17.89116
471.65        17.89877
472.10        17.91822
472.54        17.94255
472.98        17.97158
473.42        18.00188
473.87        18.04295
474.31        18.06893
474.75        18.05705
475.20        18.01322
475.64        17.93432
476.08          17.854
476.52        17.85019
476.97        17.93631
477.41        18.04204
477.85        18.10368
478.29        18.36314
478.74        18.19261
479.18        18.23826
479.62        18.32026
480.06        18.35354
480.50        18.33461
480.95        18.33272
481.39        18.35247
481.83        18.37472
482.27        18.41371
482.72         18.5033
483.16        18.60517
483.60        18.67042
484.04        18.69483
484.48        18.60052
484.93        18.53431
485.37        18.81244
485.81        19.26675
486.25        19.65421
486.69        19.91942
487.14        19.57452
487.58        19.66833
488.02        19.34694
488.46        19.47905
488.90        19.42163
489.34        19.26243
489.79        19.27846
490.23        19.44281
490.67        19.77154
491.11         20.1505
491.55        20.21666
491.99        20.01768
492.43        20.00183
492.88        20.19547
493.32        20.32901
493.76        20.38043
494.20        20.45835
494.64        20.56611
495.08        20.67921
495.52        20.79128
495.96        20.90203
496.41        21.00773
496.85        21.07482
497.29        21.12571
497.73        21.26939
498.17        21.46995
498.61        21.56425
499.05        21.54889
499.49        21.50265
499.93        21.48169
500.37         21.5943
500.82        21.80479
501.26         21.9242
501.70        21.93565
502.14        21.95745
502.58        22.01942
503.02        22.11035
503.46        22.23394
503.90        22.38944
504.34        22.54251
504.78         22.6354
505.22        22.65626
505.66        22.62058
506.10        22.54745
506.54        22.51932
506.98        22.56291
507.42         22.5674
507.86        22.50836
508.30        22.83625
508.74        22.74595
509.18        22.88018
509.62        22.98831
510.06        23.07147
510.50        23.11918
510.94        23.14303
511.38        23.15195
511.82        23.14107
512.26        23.11795
512.70        23.08533
513.14        23.05878
513.58        23.06236
514.02        23.09884
514.46        23.15997
514.90        23.22782
515.34        23.27056
515.78        23.28008
516.22        23.26931
516.66        23.24434
517.10        23.21557
517.54         23.1906
517.98        23.16526
518.42        23.15699
518.86        23.19421
519.30        23.27709
519.74        23.39451
520.18         23.5105
520.62        23.56576
521.06        23.54519
521.50        23.46495
521.93         23.3548
522.37        23.26815
522.81        23.21925
523.25          23.194
523.69        23.17862
524.13        23.14958
524.57        23.10245
525.01        23.05241
525.45        23.00507
525.89        22.96665
526.32        22.93867
526.76        22.91659
527.20        22.90909
527.64        22.93354
528.08        22.98767
528.52        23.06423
528.96        23.12982
529.40        23.13255
529.83        23.05996
530.27        22.93229
530.71        22.79019
531.15        22.70005
531.59        22.67774
532.03          22.708
532.46        22.75102
532.90        22.74249
533.34        22.67146
533.78        22.56406
534.22         22.4618
534.66        22.42398
535.09        22.45612
535.53        22.53572
535.97        22.62785
536.41        22.66123
536.85        22.61666
537.28        22.57756
537.72        22.54997
538.16        22.40189
538.60        22.21676
539.04        22.29605
539.47        22.58136
539.91        22.72376
540.35        22.69626
540.79        22.69653
541.22         22.7402
541.66         22.7821
542.10        22.83051
542.54        22.86309
542.97        22.88949
543.41        23.01667
543.85        23.20625
544.29        23.28325
544.72        23.26033
545.16        23.32036
545.60         23.4666
546.04        23.60245
546.47         23.7192
546.91        23.84638
547.35        23.98029
547.79        24.12337
548.22        24.27297
548.66        24.42274
549.10        24.57978
549.53        24.80086
549.97        25.06127
550.41         25.2642
550.84        25.38857
551.28        25.49081
551.72        25.57771
552.15        25.61749
552.59        25.62784
553.03         25.7039
553.46        25.69046
553.90        25.77426
554.34        25.89942
554.77        26.03207
555.21        26.16908
555.65        26.32828
556.08        26.49896
556.52        26.66609
556.96        26.80798
557.39        26.91805
557.83        27.00122
558.27        27.02045
558.70        27.00491
559.14        27.06774
559.57        27.19028
560.01        27.25609
560.45        27.25788
560.88        27.28031
561.32        27.33957
561.75        27.36706
562.19        27.40309
562.63        27.48176
563.06        27.59658
563.50        27.82231
563.93        28.08593
564.37        28.07982
564.80        27.87799
565.24        27.97035
565.68        28.30827
566.11        28.46071
566.55        28.42365
566.98        28.42197
567.42        28.48805
567.85        28.64981
568.29        28.72177
568.72         28.8745
569.16        29.07434
569.60        29.25941
570.03        29.38493
570.47        29.60968
570.90        29.95521
571.34        29.78716
571.77        30.08644
572.21        30.34571
572.64        30.31906
573.08        30.12121
573.51        30.63626
573.95        30.71957
574.38         30.7225
574.82        30.70883
575.25        31.34768
575.69         31.3264
576.12        30.99373
576.56        30.71642
576.99        31.15792
577.42        31.60406
577.86         31.4159
578.29        31.67071
578.73        31.43216
579.16        31.41643
579.60        31.31159
580.03        31.25354
580.47        31.27201
580.90        30.85488
581.33        30.52679
581.77        30.96667
582.20        31.54402
582.64        31.02185
583.07        31.06783
583.51        30.56878
583.94        30.25313
584.37        30.07544
584.81        30.11522
585.24        30.07498
585.68         30.4703
586.11        29.85775
586.54        30.12327
586.98        29.77431
587.41        29.78533
587.85        29.66598
588.28        29.56963
588.71        29.55975
589.15        29.40981
589.58         29.3889
590.01        29.40741
590.45        29.35423
590.88        29.25451
591.31        29.25151
591.75        29.35394
592.18         29.3844
592.61        29.35054
593.05        29.58274
593.48        30.14034
593.91         29.9114
594.35        29.98192
594.78        29.92824
595.21        30.06788
595.65        30.09984
596.08        30.02218
596.51        30.33001
596.94        30.46616
597.38        30.65266
597.81        30.69381
598.24        30.83651
598.68        31.11126
599.11        30.94736
599.54        31.95485
599.97        32.02974
600.41         32.2921
600.84        32.49824
601.27        32.84793
601.70        32.98727
602.14         33.1356
602.57        33.50813
603.00         34.1016
603.43        34.51804
603.87        34.73766
604.30        35.03201
604.73        35.42628
605.16        35.62753
605.60         35.6212
606.03        35.96501
606.46        36.58894
606.89         36.8214
607.32        37.20843
607.76        37.48366
608.19        37.82237
608.62        38.11723
609.05        38.38401
609.48        38.63729
609.92        38.97624
610.35        39.09972
610.78         40.1855
611.21        40.39919
611.64        40.72134
612.07        40.83777
612.50        41.00481
612.94        41.11285
613.37        41.19308
613.80        41.50175
614.23        41.62173
614.66        41.90335
615.09        42.25896
615.52        42.60355
615.96        42.90188
616.39        43.20871
616.82        43.54028
617.25        43.41334
617.68        43.89592
618.11        43.71244
618.54        43.37041
618.97          43.514
619.40        44.12319
619.84        44.58469
620.27        44.79031
620.70        44.97446
621.13        45.15904
621.56        45.14098
621.99        44.97728
622.42        45.13827
622.85        45.61314
623.28        45.21469
623.71        45.33077
624.14        45.27767
624.57        45.05176
625.00        45.10519
625.43        45.10874
625.86        45.22269
626.29        45.30933
626.72        45.32648
627.15        45.25795
627.58        45.06621
628.01        44.74483
628.44         44.6764
628.87        44.34081
629.30        44.15002
629.73        43.95025
630.16        44.18476
630.59        43.61597
631.02        43.35733
631.45         43.0787
631.88        42.80912
632.31        42.54934
632.74        42.30661
633.17        42.06303
633.60         41.7573
634.03        41.38366
634.46        40.96306
634.89        40.52477
635.32        40.11446
635.75        39.74461
636.18        39.39969
636.61        39.06594
637.04        38.72296
637.47        38.36584
637.89        37.99769
638.32        37.60534
638.75        37.22862
639.18        36.88653
639.61        36.43093
640.04        36.15548
640.47        35.86682
640.90         35.6511
641.33         35.4924
641.76        35.38581
642.18        35.32165
642.61         35.2761
643.04        35.25478
643.47        35.23841
643.90        35.19781
644.33        35.12835
644.76         35.0435
645.18        34.97691
645.61        34.93916
646.04        34.93774
646.47         35.0475
646.90        35.28594
647.33        35.25274
647.75        35.60996
648.18        35.82511
648.61        36.08909
649.04        36.37888
649.47        36.69838
649.89         37.0174
650.32        37.31911
650.75        37.69429
651.18        38.10548
651.61        38.36789
652.03        38.52792
652.46        38.85031
652.89        39.32259
653.32        39.63689
653.74        39.93441
654.17         40.1675
654.60        40.53728
655.03        41.15149
655.46        41.58732
655.88        41.79707
656.31        44.46336
656.74        49.71685
657.16        46.98618
657.59        43.83022
658.02        44.38337
658.45        44.63475
658.87        45.58024
659.30        44.71125
659.73        44.95491
660.15        45.42416
660.58        45.38786
661.01        45.76071
661.44        46.00595
661.86        46.18373
662.29         46.2695
662.72        46.41435
663.14        46.66364
663.57        46.84454
664.00        46.99222
664.42        47.30319
664.85        47.74554
665.27        48.02787
665.70        48.13494
666.13        48.30137
666.55        48.53423
666.98        48.67452
667.41        48.75417
667.83        48.89217
668.26         49.0984
668.69        49.35876
669.11        49.61104
669.54        49.74658
669.96        49.74972
670.39        49.66908
670.82        49.63115
671.24        49.76913
671.67        50.11942
672.09        50.75301
672.52        51.50947
672.94        51.69484
673.37        51.84897
673.80        51.60009
674.22        51.30735
674.65        51.21963
675.07         51.4135
675.50         51.8176
675.92        52.30621
676.35         52.5677
676.77        52.53211
677.20        52.61476
677.62        52.36081
678.05        52.40163
678.47        52.60847
678.90        52.92579
679.32        53.27925
679.75        53.60379
680.17        53.87133
680.60        54.06213
681.02        54.15228
681.45         54.3612
681.87        54.16536
682.30        54.20629
682.72        54.32855
683.15        54.37205
683.57        54.36783
684.00        54.51002
684.42        54.77395
684.85        54.98117
685.27        55.10738
685.70        55.16858
686.12        55.18215
686.54        55.35433
686.97        55.62323
687.39        55.61621
687.82        55.34332
688.24        55.27467
688.66        55.46465
689.09        55.22969
689.51        55.39947
689.94        55.49482
690.36        55.77953
690.78        56.07404
691.21        56.26221
691.63        56.90323
692.06        56.55061
692.48        56.84175
692.90        57.28396
693.33        57.49271
693.75        57.45774
694.17        57.33399
694.60         57.2085
695.02        57.58581
695.44         57.6753
695.87        58.11657
696.29        58.55602
696.71        58.78072
697.14        58.74471
697.56        58.51513
697.98         58.2538
698.41        58.18203
698.83        58.32623
699.25        58.64834
699.68        59.01603
700.10        59.27605
700.52        59.35349
700.94        59.30285
701.37        59.20916
701.79        59.23137
702.21        59.39499
702.64        59.64751
703.06        59.91126
703.48        60.07124
703.90        60.10649
704.33        60.06754
704.75        60.01476
705.17        60.02708
705.59        60.13032
706.01        60.28794
706.44        60.49509
706.86        60.75349
707.28        61.02474
707.70        61.35439
708.12        61.67738
708.55        61.76681
708.97        61.67518
709.39        61.66814
709.81        61.78227
710.23        61.85447
710.66        61.89477
711.08        62.03717
711.50        62.24816
711.92        62.42534
712.34        62.55404
712.76        62.66253
713.19        62.73849
713.61        62.81623
714.03        62.87572
714.45        62.90385
714.87        62.91425
715.29        62.93299
715.71        62.96351
716.13        63.00563
716.56        63.02109
716.98        63.00734
717.40        62.94765
717.82          62.866
718.24         62.8065
718.66        62.83933
719.08        62.97461
719.50        63.17345
719.92        63.41378
720.34           63.66
720.76        63.89288
721.19        64.11506
721.61         64.2811
722.03         64.3164
722.45        64.24583
722.87        63.94368
723.29         63.5351
723.71        63.65288
724.13        64.34734
724.55        64.05303
724.97        64.67019
725.39        64.73789
725.81        64.81361
726.23        64.74121
726.65        64.64249
727.07        64.57388
727.49        64.86429
727.91        65.20921
728.33        65.60952
728.75        65.90829
729.17        66.05668
729.59        66.09933
730.01        66.08707
730.43        66.10586
730.85        66.18401
731.27        66.29188
731.69        66.40582
732.10        66.50542
732.52        66.58511
732.94        66.62972
733.36        66.63126
733.78         66.6986
734.20        66.86074
734.62        66.75401
735.04        66.78458
735.46         67.0719
735.88        66.86904
736.30        66.76678
736.72        66.73019
737.13        66.82716
737.55        67.01581
737.97        67.38495
738.39        67.79456
738.81        67.51203
739.23        66.78688
739.65        67.03265
740.06          68.042
740.48        68.31515
740.90        67.78591
741.32        67.26792
741.74        66.95604
742.16        66.99926
742.57        67.11523
742.99        67.57902
743.41        68.14902
743.83         68.5961
744.25        68.84147
744.67        68.93394
745.08        68.93866
745.50         68.9191
745.92        68.92242
746.34        68.91025
746.75        68.87301
747.17        68.80829
747.59        68.71278
748.01        68.64084
748.42        68.60448
748.84        68.51291
749.26        68.39499
749.68         68.4773
750.09        68.72875
750.51        68.77541
750.93        68.70509
751.35        69.10623
751.76        69.85888
752.18        70.17352
752.60        69.98851
753.01        69.69682
753.43        69.44085
753.85        69.32159
754.27         69.3923
754.68        69.59892
755.10        69.87059
755.52        70.10204
755.93        70.27759
756.35         70.4454
756.77        70.52298
757.18        70.61781
757.60        70.81447
758.02        70.47684
758.43        69.72506
758.85        71.00393
759.26        72.18523
759.68        72.01909
760.10        70.84586
760.51        70.99349
760.93        71.43313
761.34        71.13939
761.76        71.51359
762.18        70.97904
762.59        70.33275
763.01        70.46883
763.42        71.33241
763.84         71.6423
764.26        71.31503
764.67        70.76835
765.09        70.30115
765.50        70.57653
765.92        71.37989
766.33        71.24816
766.75        70.26743
767.16         70.1484
767.58        70.95457
768.00        71.60246
768.41        71.96831
768.83        72.52179
769.24         73.0221
769.66        72.74921
770.07        71.91358
770.49        71.09751
770.90        70.98711
771.32        71.11929
771.73        71.54762
772.15        71.85849
772.56        72.01406
772.97        72.25433
773.39        72.52582
773.80        72.69843
774.22          72.714
774.63        72.64627
775.05        72.51347
775.46         72.4109
775.88        72.35468
776.29         72.3522
776.70        72.39409
777.12        72.47256
777.53        72.58767
777.95        72.70341
778.36        72.82174
778.77        72.87492
779.19        72.86466
779.60         72.9256
780.02        73.00056
780.43        72.85657
780.84        72.64047
781.26        72.59135
781.67        72.81092
782.09        73.56651
782.50        74.58591
782.91         74.5078
783.33        74.11705
783.74        73.91371
784.15        74.13115
784.57        74.20087
784.98        74.09608
785.39        73.80607
785.81         73.4659
786.22        73.68253
786.63        74.20697
787.04        74.38708
787.46        74.15491
787.87        73.87171
788.28        73.71715
788.70        73.76733
789.11        74.03185
789.52        74.56137
789.93        75.15033
790.35        75.27274
790.76        74.96009
791.17        74.70688
791.58        74.63446
792.00        74.55953
792.41        74.55548
792.82        74.79656
793.23        75.19994
793.65         75.5551
794.06        75.89842
794.47        76.18106
794.88        76.17815
795.29        76.90285
795.71        75.84901
796.12        75.27483
796.53        74.65646
796.94        74.14521
797.35        73.94614
797.76        74.57516
798.18        75.71918
798.59         76.2865
799.00        76.07477
799.41        75.57082
799.82        75.05329
800.23        74.81395
800.64        74.96428
801.06         75.3594
801.47        75.89027
801.88        76.24927
802.29        76.32215
802.70        76.18668
803.11        75.93852
803.52        75.72473
803.93        75.61209
804.34        75.57088
804.75          75.542
805.17         75.4851
805.58        75.42874
805.99        75.21118
806.40         74.9801
806.81        75.36192
807.22        76.17039
807.63        76.45172
808.04        76.18771
808.45        76.12711
808.86        76.29169
809.27        76.18713
809.68        75.87756
810.09        75.74084
810.50          75.828
810.91        76.03712
811.32        76.28931
811.73        76.44957
812.14         76.4735
812.55        76.41158
812.96        76.31528
813.37         76.2634
813.78        76.28826
814.19        76.36702
814.60        76.46783
815.01        76.54792
815.42        76.59755
815.83        76.62849
816.24        76.67231
816.65        76.77993
817.05        76.95713
817.46        77.13931
817.87        77.29571
818.28        77.32944
818.69         77.2285
819.10        77.02859
819.51        76.79693
819.92        76.66241
820.33        76.66096
820.74        76.73295
821.14         76.8477
821.55        76.97692
821.96        77.08994
822.37        77.23186
822.78        77.31185
823.19        77.16591
823.60        76.78888
824.00        76.24532
824.41        75.75449
824.82        75.77005
825.23         76.3728
825.64        77.42444
826.04        78.62412
826.45         79.3367
826.86        79.41182
827.27         79.0196
827.68        78.37347
828.08        77.87011
828.49        77.61237
828.90        77.50364
829.31        77.54878
829.72        77.75893
830.12        78.13107
830.53        78.62282
830.94        79.09876
831.35        79.24429
831.75        79.00111
832.16        78.39012
832.57         77.6433
832.97        77.11897
833.38        76.92654
833.79        76.97885
834.20        77.14921
834.60        77.21902
835.01        77.14893
835.42        77.01888
835.82        76.91835
836.23        76.93351
836.64        77.10613
837.04        77.40387
837.45        77.72387
837.86        78.04276
838.26        78.33491
838.67        78.55795
839.08        78.67577
839.48         78.6063
839.89        78.34856
840.29        77.91517
840.70        77.44505
841.11        77.07999
841.51        76.89362
841.92        76.88234
842.33        76.96858
842.73        77.01676
843.14        76.94427
843.54        76.78709
843.95        76.74038
844.35        77.16189
844.76        78.04022
845.17        79.27517
845.57        80.46613
845.98         80.7702
846.38        80.06829
846.79        78.63886
847.19        77.01961
847.60        76.06151
848.00        75.96578
848.41        76.45819
848.81         77.3158
849.22        78.03587
849.62         78.4848
850.03        78.75616
850.43        78.86039
850.84        78.67355
851.24        78.27132
851.65        77.61929
852.05        76.96031
852.46        76.70878
852.86        76.90023
853.27        77.43527
853.67        78.02122
854.07        78.45714
854.48         78.6187
854.88        78.65574
855.29        78.42731
855.69        77.97778
856.10        77.26406
856.50        76.38266
856.90        75.56236
857.31        75.16352
857.71        75.28763
858.12        75.82488
858.52        76.60217
858.92        77.06274
859.33        77.01744
859.73        76.62987
860.13        76.13357
860.54         75.9562
860.94        76.23141
861.34        76.78468
861.75        77.34038
862.15         77.5546
862.55        77.28196
862.96        76.67744
863.36        75.93469
863.76        75.35919
864.17        75.05843
864.57        74.98874
864.97        75.04955
865.38        75.06582
865.78        75.02042
866.18        74.91894
866.58        74.87862
866.99        75.08701
867.39        75.57198
867.79        76.21709
868.19        76.74445
868.60        76.71857
869.00        76.09129
869.40         75.0359
869.80        73.88723
870.21         73.2376
870.61         73.2941
871.01         73.8289
871.41        74.63078
871.81        75.39014
872.22        75.96228
872.62        76.48827
873.02        76.88885
873.42        77.00549
873.82        76.82755
874.22        76.39294
874.63        75.92863
875.03        75.75831
875.43        75.95457
875.83        76.39928
876.23        76.95882
876.63        77.37238
877.03        77.55794
877.44        77.65775
877.84        77.57944
878.24        77.20275
878.64        76.56516
879.04        75.66632
879.44        74.91283
879.84        74.91013
880.24        75.70406
880.64         77.1387
881.04        78.55484
881.44        78.75789
881.84        77.51952
882.24        75.32718
882.65        73.06078
883.05        71.85751
883.45        72.01671
883.85        73.17907
884.25        74.90227
884.65        76.35616
885.05        77.16473
885.45        77.52744
885.85        77.56551
886.25        77.47796
886.65          77.353
887.05        77.08501
887.45         76.6768
887.85        76.19612
888.25        75.69144
888.65        75.22538
889.04        74.85765
889.44        74.66796
889.84        74.66229
890.24        74.85161
890.64        75.16986
891.04         75.5032
891.44        75.80396
891.84        76.05396
892.24        76.34226
892.64        76.82262
893.04        77.51461
893.44         78.3824
893.83        79.21969
894.23        79.59395
894.63        79.44359
895.03        78.83735
895.43        78.15546
895.83        78.00394
896.23        78.49438
896.63        79.46694
897.02        80.39675
897.42        80.42863
897.82        79.42995
898.22        77.72161
898.62         75.9643
899.01        75.06865
899.41        75.23846
899.81        76.22734
900.21        77.50677
900.61        78.07855
901.00        77.63702
901.40        76.57909
901.80         75.5014
902.20        75.23022
902.59         75.9511
902.99        77.35135
903.39        78.98873
903.79        79.91709
904.18        79.78935
904.58        78.96443
904.98         77.9269
905.38        77.33262
905.77        77.32471
906.17        77.69844
906.57        78.25368
906.96        78.71954
907.36        78.92634
907.76        78.99202
908.15        78.95997
908.55        78.79189
908.95        78.54964
909.34        78.23074
909.74        77.88664
910.14        77.56498
910.53        77.29735
910.93        77.10921
911.33        77.08119
911.72        77.34274
912.12        77.87948
912.52        78.61848
912.91        79.39211
913.31        79.90932
913.70        80.11726
914.10        80.02934
914.49        79.77551
914.89        79.50429
915.29         79.3222
915.68        79.20618
916.08        79.15317
916.47        79.10039
916.87        79.05732
917.26        78.97898
917.66        78.96894
918.05        79.15365
918.45        79.50222
918.84        80.04911
919.24         80.4241
919.64        80.13715
920.03        79.13433
920.42         77.6031
920.82        76.17596
921.21        75.57279
921.61        75.91912
922.00        77.05742
922.40        78.44603
922.79        79.21289
923.19        79.03191
923.58        78.18659
923.98        77.21256
924.37        76.85764
924.77        77.30257
925.16        78.33701
925.55        79.54387
925.95        80.17262
926.34        80.02922
926.74        79.31826
927.13        78.42944
927.52        77.93797
927.92        77.98574
928.31        78.38816
928.70        78.86307
929.10        78.93366
929.49        78.52309
929.89        77.83978
930.28        77.18875
930.67        76.99506
931.07        77.35796
931.46        78.11493
931.85          79.124
932.24         80.1952
932.64        81.16735
933.03        82.13318
933.42         82.8599
933.82        83.00843
934.21        82.57339
934.60        81.63673
934.99        80.57093
935.39        79.92167
935.78        79.81785
936.17        80.12432
936.56         80.6074
936.96        80.85268
937.35        80.77368
937.74        80.47701
938.13         80.0326
938.53         79.5362
938.92        79.05219
939.31        78.63787
939.70        78.37533
940.09        78.41924
940.49        78.71136
940.88        79.13866
941.27        79.74162
941.66        80.59454
942.05        81.59464
942.44        82.74775
942.84        83.33833
943.23        82.21882
943.62        79.45409
944.01        75.68731
944.40        72.27657
944.79        70.93574
945.18        71.88722
945.57        74.66887
945.97        78.27645
946.36        80.88934
946.75        81.56237
947.14        80.82561
947.53        79.39368
947.92        78.47906
948.31        78.46407
948.70        78.83926
949.09        79.50855
949.48         80.3738
949.87        81.28928
950.26        82.41807
950.65        83.27866
951.04        83.01346
951.43        81.56404
951.82        79.20754
952.21        76.84241
952.60        75.86097
952.99        76.52898
953.38        78.44036
953.77        80.74338
954.16        81.94059
954.55        81.56895
954.94        80.05807
955.33        78.08035
955.72        76.74789
956.11        76.42102
956.50         76.7776
956.89        77.43299
957.28        77.76928
957.66        77.62431
958.05        77.23965
958.44        76.91808
958.83        77.08794
959.22        77.83557
959.61        78.92963
960.00        80.09768
960.39        80.90972
960.78        81.18304
961.16        81.03493
961.55        80.52385
961.94        79.73853
962.33        78.78223
962.72        77.66942
963.11        76.60962
963.49        75.96084
963.88        75.77586
964.27        76.03848
964.66        76.56171
965.04        77.00915
965.43        77.20933
965.82        77.25648
966.21        77.27879
966.60        77.51334
966.98        78.01344
967.37        78.62729
967.76        79.19582
968.15        79.46445
968.53        79.38956
968.92        79.02644
969.31         78.5296
969.69        78.14011
970.08        77.91129
970.47        77.79472
970.86        77.78084
971.24        77.83644
971.63        77.94997
972.02        78.24129
972.40        78.64035
972.79        78.93336
973.17        79.15759
973.56        79.23354
973.95        79.52952
974.33        80.67951
974.72        82.66875
975.11        85.35384
975.49        88.10093
975.88        89.38572
976.26        88.73576
976.65        86.56155
977.04        83.64342
977.42        81.01562
977.81         79.0518
978.19        77.46646
978.58        76.28196
978.96        75.31538
979.35        74.52964
979.74        74.00766
980.12        73.74802
980.51        73.55822
980.89        73.48434
981.28        73.53503
981.66         73.7252
982.05        74.02357
982.43        74.44252
982.82        74.86833
983.20         75.5219
983.59        76.80166
983.97        78.80378
984.35        81.39907
984.74        83.73927
985.12        84.61221
985.51        83.54082
985.89         81.0813
986.28        78.26403
986.66        76.18616
987.04        75.22938
987.43        74.96617
987.81        75.32671
988.20        75.95826
988.58        76.75087
988.96        77.87483
989.35        78.81313
989.73        78.85179
990.12        77.87299
990.50          75.952
990.88        74.07293
991.27        73.74113
991.65        75.25704
992.03        78.43456
992.42        81.81394
992.80        82.70677
993.18        80.14101
993.56        75.40131
993.95        70.81145
994.33        68.68954
994.71        69.52716
995.10         72.5376
995.48        76.86385
995.86        79.93899
996.24        80.51501
996.63        79.43653
997.01        77.61907
997.39        76.31364
997.77        75.90099
998.15        75.82681
998.54        76.11467
998.92        76.98354
999.30        78.35665
999.68        80.36468
1000.06        82.23809
1000.45        82.44429
1000.83        80.87636
1001.21         77.9716
1001.59        74.98589
1001.97         73.6532
1002.35        74.28064
1002.73        76.38343
1003.12        79.16815
1003.50        81.23709
1003.88         81.9416
1004.26        81.71452
1004.64        80.92986
1005.02        80.23133
1005.40        79.79458
1005.78         79.1974
1006.16        78.50735
1006.54        77.90088
1006.92        77.35545
1007.30        77.03706
1007.69        76.29847
1008.07        74.09476
1008.45        70.62037
1008.83        66.65747
1009.21        63.53175
1009.59        62.56654
1009.97        63.82817
1010.35         67.1031
1010.73        71.53243
1011.11          74.811
1011.49        75.73177
1011.86        74.52641
1012.24        72.80498
1012.62        73.26871
1013.00        76.73626
1013.38        82.83083
1013.76        89.58055
1014.14        91.73923
1014.52        87.91571
1014.90        81.19567
1015.28        74.91374
1015.66        71.77468
1016.04        71.82946
1016.41         74.3129
1016.79        78.61316
1017.17        83.66608
1017.55        88.12901
1017.93        92.24496
1018.31        94.06475
1018.69        90.76793
1019.06        83.14046
1019.44        73.87573
1019.82        66.11259
1020.20          62.258
1020.58        61.94253
1020.95        64.43571
1021.33        68.67272
1021.71        71.79008
1022.09        72.25407
1022.46        70.56861
1022.84        68.44905
1023.22        68.06228
1023.60        70.02488
1023.97        74.29165
1024.35        79.11515
1024.73        79.55421
