SpectraSmart Spectrum 2.9.0.0
--------- Device Information -----------
Spectrum Name :  反射率_0
Saving Time :  2024/05/03 21:01:00
Spectro-Module Model Name : SE2030-DUVN
Spectro-Module Serial Number : OS361AC55029948
Wavelength Start : 200
Wavelength End : 1025
Wavelength Unit : Wavelength(nm)
Spectrum Unit : Reflectance(%)
-----------Spectrum Setting ------------
Integration Time : 20ms
Average : 10
Boxcar : 0
Background removal :  enabled
linearity correction :  enabled
SC :  disabled
Intensity correction :  disabled
DWT denoise :  enabled
savitzky-golay :  disabled
FFT :  disabled
Running average :  disabled
Kalman :  disabled
High pass :  disabled
---------------BEGIN--------------------
Wavelength(nm)             Reflectance(%)
200.29               0
200.75        66.75484
201.21        147.0955
201.67       -4857.376
202.13       -157.1053
202.58       -71.03668
203.04       -31.33716
203.50        -7.89545
203.96        1.409588
204.42       -3.050618
204.88       -42.89749
205.34        1521.747
205.80        171.9399
206.26        168.6555
206.72        24626.15
207.18       -31.46276
207.64       -5.058973
208.10       -14.34755
208.55       -69.50929
209.01       -648.4091
209.47       -939.9462
209.93       -107.3999
210.39       -23.26144
210.85      -0.2904442
211.31        7.414811
211.77         9.64002
212.23        8.985948
212.69        2.903127
213.14       -5.343508
213.60       -2.256915
214.06        2.478221
214.52        4.949316
214.98        6.280077
215.44        7.557339
215.90        10.81547
216.36       -44.55511
216.81        -12.3315
217.27       -22.97766
217.73       -60.94032
218.19       -274.1158
218.65       -5672.832
219.11       -369.9019
219.57        -73.9971
220.02       -27.31995
220.48        -60.5072
220.94        129.3677
221.40        61.12203
221.86        52.24205
222.32        51.73092
222.77        55.19337
223.23        63.38017
223.69        76.86185
224.15        86.00299
224.61        82.38878
225.06        73.12578
225.52        66.84703
225.98        66.92548
226.44        72.89887
226.90         83.8814
227.36        98.58089
227.81           109.4
228.27        110.4632
228.73        105.5239
229.19        98.13917
229.65        91.07135
230.10        84.98238
230.56         79.9719
231.02          76.377
231.48        74.95129
231.93        75.28424
232.39        77.07238
232.85        79.31232
233.31        80.74043
233.77        81.05865
234.22        80.46178
234.68         79.6376
235.14        79.79024
235.60        81.22034
236.05        83.77303
236.51        86.10746
236.97        85.94873
237.43        82.83257
237.88        77.90225
238.34        73.08997
238.80        70.40456
239.26         70.2053
239.71        73.85866
240.17        80.15057
240.63        87.67088
241.08        90.39439
241.54        86.19047
242.00        79.41051
242.46        75.20351
242.91        74.05495
243.37        74.02326
243.83        73.36134
244.28        65.03234
244.74        44.54375
245.20        21.54953
245.66         5.22701
246.11       -3.966286
246.57       -8.049593
247.03       -7.672978
247.48       -5.012307
247.94       -2.569925
248.40      -0.3374309
248.85        1.579928
249.31        5.107693
249.77         12.0507
250.22        20.47701
250.68        28.15504
251.14        34.13918
251.59        38.97068
252.05        43.93968
252.51        50.00497
252.96        58.38744
253.42        68.16938
253.88        75.47145
254.33        78.71127
254.79        77.67945
255.25         72.9872
255.70        67.55348
256.16        63.54661
256.62        61.65566
257.07        62.42101
257.53        65.35493
257.99        68.97703
258.44        71.99294
258.90        73.53743
259.35        73.16403
259.81        72.14873
260.27        70.56044
260.72        68.48886
261.18        66.63246
261.63        64.77238
262.09        63.46834
262.55         62.8452
263.00        62.69875
263.46        62.93854
263.91        63.23112
264.37         63.4538
264.83        63.44249
265.28        63.23258
265.74         62.8105
266.19        61.83877
266.65        60.50117
267.11        58.83097
267.56        57.18794
268.02        56.20579
268.47        55.89575
268.93        56.11846
269.38        56.44122
269.84        56.12247
270.30        55.05044
270.75        53.50322
271.21        52.00485
271.66        51.17614
272.12         51.1246
272.57        51.51538
273.03        52.02687
273.48        52.16933
273.94        51.80196
274.39        51.11592
274.85        50.14353
275.31        48.79026
275.76        47.15482
276.22        45.39945
276.67        43.86483
277.13        43.17259
277.58        43.24934
278.04        43.90933
278.49        44.61683
278.95        44.58723
279.40        43.63417
279.86        42.18739
280.31        40.58651
280.77        39.42229
281.22        38.69541
281.68        38.26107
282.13        37.95246
282.59        37.64588
283.04        37.25331
283.50        36.87169
283.95        36.45347
284.41        35.96663
284.86        35.39451
285.32         34.7882
285.77        34.18752
286.22        33.74161
286.68        33.48836
287.13        33.33951
287.59        33.27628
288.04         33.1951
288.50        33.08692
288.95        32.94409
289.41        32.75489
289.86        32.44882
290.32        32.06169
290.77        31.59894
291.22        31.15954
291.68        30.86882
292.13        30.73758
292.59        30.76342
293.04        30.87602
293.50        30.97803
293.95        31.03458
294.40        31.07601
294.86        31.18125
295.31        31.45733
295.77        31.91741
296.22         32.5045
296.68        33.10615
297.13        33.53998
297.58        33.75395
298.04        33.83614
298.49        33.85374
298.95        33.95422
299.40        34.16269
299.85         34.4372
300.31        34.81324
300.76          35.313
301.21         35.9244
301.67        36.63814
302.12        37.29777
302.58        37.68676
303.03         37.7557
303.48        37.58483
303.94        37.38631
304.39        37.41449
304.84        37.73839
305.30        38.26607
305.75        38.81705
306.20        39.14413
306.66         39.2053
307.11        39.07442
307.57        38.88554
308.02        38.75861
308.47        38.75517
308.93        38.82606
309.38        38.93144
309.83        39.06137
310.29        39.19553
310.74        39.32928
311.19        39.42434
311.65        39.40955
312.10        39.26523
312.55        39.01352
313.00        38.70422
313.46        38.42354
313.91        38.18514
314.36          37.985
314.82        37.81242
315.27        37.63164
315.72        37.44401
316.18        37.26884
316.63          37.116
317.08        37.00264
317.53        36.92864
317.99        36.87187
318.44        36.83184
318.89        36.79387
319.35        36.74478
319.80         36.6828
320.25        36.58417
320.70        36.41916
321.16         36.1784
321.61        35.87955
322.06         35.5493
322.51        35.23819
322.97        34.96606
323.42        34.73833
323.87        34.54075
324.32        34.34929
324.78        34.15284
325.23        33.96838
325.68        33.80664
326.13        33.68919
326.59         33.6058
327.04        33.56225
327.49        33.52042
327.94         33.4346
328.39        33.28939
328.85        33.08237
329.30        32.85685
329.75        32.65281
330.20        32.48589
330.66        32.33737
331.11        32.19954
331.56        32.01393
332.01        31.77431
332.46         31.5067
332.92          31.239
333.37        31.05497
333.82        30.96204
334.27        30.93608
334.72        30.95892
335.17         30.9999
335.63        31.02666
336.08        31.05713
336.53        31.05198
336.98        30.96444
337.43        30.78976
337.88        30.54403
338.34        30.27171
338.79        30.05202
339.24        29.91306
339.69        29.84771
340.14        29.83803
340.59        29.84881
341.05        29.86377
341.50        29.88723
341.95        29.92708
342.40        30.00196
342.85        30.10381
343.30        30.21206
343.75        30.27813
344.20        30.23155
344.66        30.07442
345.11        29.83836
345.56        29.58638
346.01        29.40892
346.46        29.33791
346.91        29.34976
347.36        29.43577
347.81        29.58062
348.26        29.76035
348.72        29.96494
349.17        30.14809
349.62        30.24538
350.07        30.24051
350.52        30.15191
350.97        29.99615
351.42        29.80736
351.87        29.60791
352.32        29.39437
352.77        29.20823
353.22        29.11235
353.67        29.11273
354.13        29.19774
354.58        29.28686
355.03        29.27469
355.48        29.13857
355.93        28.91193
356.38        28.65285
356.83        28.45599
357.28        28.34616
357.73        28.29179
358.18        28.26091
358.63        28.20166
359.08        28.09942
359.53        27.97799
359.98        27.84509
360.43         27.7111
360.88        27.57787
361.33        27.42858
361.78        27.28034
362.23        27.16107
362.68        27.07306
363.13        27.01971
363.58        26.94456
364.03        26.75744
364.48         26.4523
364.93         26.0589
365.38        25.69047
365.83        25.52034
366.28        25.57613
366.73        25.80252
367.18        26.05712
367.63        26.10694
368.08        25.89434
368.53        25.48949
368.98        25.02874
369.43        24.72113
369.88        24.61927
370.33        24.66367
370.78        24.75035
371.23        24.70594
371.68        24.48607
372.13        24.15327
372.58        23.81196
373.03        23.61427
373.48        23.59081
373.93        23.68451
374.38        23.79985
374.83        23.78483
375.28        23.59902
375.72        23.28852
376.17        22.95164
376.62        22.68903
377.07        22.52731
377.52        22.43216
377.97        22.36607
378.42        22.27333
378.87        22.14097
379.32        21.99418
379.77        21.85883
380.22         21.7649
380.67        21.71502
381.11        21.69764
381.56        21.68012
382.01        21.62929
382.46        21.53753
382.91        21.41858
383.36        21.29501
383.81         21.1974
384.26        21.13238
384.71        21.09102
385.15        21.05263
385.60        21.00244
386.05        20.92793
386.50        20.83179
386.95        20.73036
387.40        20.64773
387.85        20.58709
388.29        20.53181
388.74        20.47258
389.19        20.34827
389.64        20.15274
390.09        19.90429
390.54        19.66033
390.98        19.49395
391.43        19.43239
391.88        19.48705
392.33         19.5903
392.78        19.54738
393.23        19.39178
393.67        19.34394
394.12        19.41465
394.57        19.41665
395.02        19.34478
395.47        19.29381
395.91        19.26534
396.36        19.20387
396.81        19.12253
397.26        19.04893
397.71        18.97298
398.15        18.90098
398.60        18.86161
399.05        18.73944
399.50        18.59407
399.95        18.72553
400.39        19.04657
400.84        19.01062
401.29        18.65002
401.74        18.47432
402.18        18.51049
402.63        18.47729
403.08        18.39711
403.53        18.28289
403.97        18.39601
404.42        18.48137
404.87        18.55946
405.32        18.53294
405.76         18.3862
406.21        18.15997
406.66        17.91554
407.11        17.75398
407.55        17.70518
408.00        17.73513
408.45        17.80569
408.90        17.84246
409.34        17.81742
409.79        17.75206
410.24        17.67299
410.68        17.61439
411.13        17.58704
411.58        17.57792
412.03        17.56303
412.47        17.51031
412.92        17.41083
413.37        17.28238
413.81        17.16177
414.26        17.11663
414.71        17.14596
415.15        17.23885
415.60        17.33131
416.05        17.33012
416.49        17.21462
416.94        17.02345
417.39        16.82364
417.83        16.71091
418.28        16.70555
418.73        16.76898
419.17        16.86822
419.62        16.93802
420.07        16.95405
420.51        16.93344
420.96        16.87545
421.41          16.764
421.85        16.60312
422.30        16.41427
422.74        16.23048
423.19        16.14945
423.64         16.1695
424.08        16.24409
424.53        16.33076
424.98        16.42117
425.42        16.50397
425.87        16.52792
426.31        16.50539
426.76        16.55901
427.21        16.64539
427.65        16.53032
428.10        16.28598
428.54        16.19625
428.99        16.29038
429.44        16.51947
429.88         16.7451
430.33        16.65917
430.77        16.32585
431.22        16.13956
431.66         16.1524
432.11        16.24416
432.56        16.35908
433.00        16.46949
433.45        16.42451
433.89        16.22694
434.34         15.4376
434.78         15.3956
435.23        15.94054
435.67         16.0959
436.12         15.8527
436.57        15.75037
437.01        15.82384
437.46        15.84531
437.90        15.81387
438.35        15.79391
438.79        15.77801
439.24        15.74341
439.68        15.69876
440.13        15.68991
440.57        15.69818
441.02         15.6756
441.46         15.6157
441.91        15.52655
442.35        15.42938
442.80         15.4639
443.24        15.58389
443.69        15.60514
444.13        15.52276
444.58        15.49253
445.02        15.51583
445.47        15.49563
445.91        15.44799
446.36        15.45536
446.80        15.51763
447.24        15.61416
447.69        15.70937
448.13        15.74603
448.58        15.71419
449.02        15.62948
449.47        15.53421
449.91        15.48371
450.36         15.4952
450.80        15.54797
451.25        15.61033
451.69         15.6257
452.13        15.58267
452.58        15.50072
453.02        15.40949
453.47        15.36223
453.91        15.37015
454.36         15.4154
454.80        15.46445
455.24         15.4879
455.69        15.48389
456.13        15.41194
456.58        15.30062
457.02        15.37278
457.46        15.38695
457.91        15.37727
458.35        15.28498
458.79        15.29244
459.24        15.37774
459.68        15.36235
460.13        15.26585
460.57        15.19446
461.01        15.16402
461.46        15.11181
461.90        15.04673
462.34        15.00251
462.79        14.98126
463.23        14.97438
463.68        14.98947
464.12        15.02302
464.56        15.06687
465.01         15.1596
465.45        15.25254
465.89        15.23237
466.34        15.13751
466.78         15.1256
467.22        15.20181
467.67        15.23688
468.11        15.21724
468.55        15.16119
468.99        15.08587
469.44        15.03554
469.88        15.02044
470.32        15.00533
470.77        14.99942
471.21        15.04031
471.65        15.12443
472.10         15.2356
472.54        15.34372
472.98        15.41184
473.42        15.43019
473.87        15.41507
474.31        15.37174
474.75        15.32533
475.20        15.29134
475.64        15.25577
476.08        15.22399
476.52        15.22502
476.97         15.2637
477.41         15.2948
477.85        15.28922
478.29        15.48996
478.74        15.37576
479.18        15.47685
479.62        15.62149
480.06        15.70433
480.50        15.71375
480.95        15.72365
481.39        15.74352
481.83        15.76442
482.27        15.80056
482.72        15.87657
483.16        15.97687
483.60        16.05894
484.04        16.11603
484.48          16.152
484.93         16.2443
485.37          16.419
485.81        16.71451
486.25        17.07884
486.69        17.33417
487.14        17.17991
487.58        17.32346
488.02         16.7898
488.46        17.34473
488.90         16.9052
489.34        16.83021
489.79        16.84602
490.23        17.18336
490.67        17.53352
491.11        17.78719
491.55        17.82063
491.99        17.68286
492.43        17.69871
492.88        17.89238
493.32        18.05983
493.76        18.16471
494.20        18.26377
494.64        18.35488
495.08        18.42661
495.52        18.49078
495.96        18.57774
496.41        18.69178
496.85        18.79174
497.29        18.88565
497.73        19.05318
498.17        19.25654
498.61        19.35574
499.05        19.34917
499.49        19.31021
499.93        19.29109
500.37        19.38578
500.82        19.56797
501.26        19.67856
501.70        19.70329
502.14        19.74625
502.58        19.82303
503.02        19.90385
503.46        19.99057
503.90        20.09241
504.34        20.19302
504.78        20.26417
505.22         20.3005
505.66        20.30757
506.10        20.30579
506.54        20.34076
506.98        20.42317
507.42        20.51962
507.86        20.60335
508.30        20.74154
508.74        20.73514
509.18        20.74905
509.62        20.74826
510.06        20.77487
510.50        20.83562
510.94        20.91924
511.38        21.00375
511.82        21.04759
512.26         21.0428
512.70        21.00624
513.14        20.95803
513.58        20.92983
514.02        20.92916
514.46         20.9404
514.90        20.96121
515.34        20.98729
515.78        21.01434
516.22        21.05128
516.66        21.07212
517.10        21.03429
517.54        20.93727
517.98        20.79385
518.42         20.6658
518.86        20.65217
519.30        20.76847
519.74        20.98179
520.18        21.21287
520.62        21.33041
521.06        21.30145
521.50        21.16709
521.93        20.99101
522.37        20.87993
522.81        20.86096
523.25        20.89577
523.69        20.95444
524.13        20.98989
524.57        20.98731
525.01        20.97338
525.45        20.94185
525.89         20.8786
526.32        20.78788
526.76        20.67129
527.20        20.57446
527.64        20.57424
528.08        20.67783
528.52        20.85851
528.96        21.04046
529.40        21.10188
529.83        21.01335
530.27        20.81815
530.71        20.58664
531.15        20.43139
531.59        20.38289
532.03        20.41033
532.46          20.468
532.90        20.48209
533.34        20.43586
533.78        20.36115
534.22        20.29086
534.66        20.26961
535.09        20.30193
535.53        20.36672
535.97        20.44367
536.41        20.48865
536.85        20.48748
537.28        20.50954
537.72         20.5428
538.16        20.43816
538.60        20.26519
539.04        20.30744
539.47        20.53069
539.91        20.64695
540.35        20.63912
540.79        20.67963
541.22        20.76381
541.66        20.81935
542.10        20.84851
542.54        20.84269
542.97        20.83429
543.41        20.95703
543.85        21.18099
544.29        21.32949
544.72        21.39001
545.16         21.4952
545.60        21.63949
546.04        21.74809
546.47        21.81902
546.91        21.88989
547.35        21.96522
547.79        22.04291
548.22        22.13848
548.66        22.27365
549.10        22.45627
549.53        22.73221
549.97        23.04518
550.41        23.24856
550.84        23.31446
551.28        23.30828
551.72        23.27599
552.15        23.27398
552.59        23.33629
553.03        23.43494
553.46        23.55181
553.90         23.6906
554.34        23.83125
554.77        23.95386
555.21        24.06021
555.65        24.17083
556.08        24.28155
556.52        24.37907
556.96        24.45888
557.39        24.53912
557.83        24.62947
558.27        24.69291
558.70        24.73884
559.14        24.84042
559.57        24.97171
560.01        25.03096
560.45         25.0279
560.88        25.06549
561.32        25.16145
561.75        25.24508
562.19        25.33063
562.63        25.40804
563.06        25.46929
563.50        25.61276
563.93        25.79183
564.37        25.74247
564.80         25.5423
565.24        25.63967
565.68        25.97522
566.11        26.12591
566.55        26.08148
566.98        26.05699
567.42        26.09329
567.85        26.23351
568.29        26.31218
568.72         26.4739
569.16        26.66821
569.60        26.85423
570.03         27.0152
570.47        27.18361
570.90        27.35839
571.34        27.41644
571.77        27.81897
572.21        27.68565
572.64        27.94078
573.08        27.77992
573.51        28.35208
573.95        28.35845
574.38        28.16555
574.82        28.12312
575.25        28.50794
575.69        28.62903
576.12        28.60377
576.56        28.39854
576.99        28.57386
577.42        28.90301
577.86        28.59427
578.29        29.08477
578.73        28.71213
579.16        28.68163
579.60        28.54994
580.03        28.44057
580.47        28.35519
580.90        28.44103
581.33        28.16401
581.77        28.35338
582.20        28.94518
582.64        28.35647
583.07        28.51979
583.51        28.13778
583.94        27.91157
584.37        27.77294
584.81        27.77883
585.24        27.66354
585.68        27.92186
586.11        27.46078
586.54        27.58088
586.98        27.43437
587.41        27.37534
587.85        27.42292
588.28        27.39804
588.71        27.32083
589.15         27.1362
589.58        27.14694
590.01        27.13732
590.45        26.77677
590.88        26.68542
591.31        26.73994
591.75        27.10033
592.18        27.17043
592.61        26.89895
593.05        27.47614
593.48        27.56988
593.91         27.5441
594.35        27.49461
594.78        27.43586
595.21        27.52896
595.65        27.62517
596.08          27.637
596.51        28.04022
596.94        27.76159
597.38        27.86638
597.81         28.0483
598.24         28.3182
598.68        28.50183
599.11        28.50878
599.54        29.32259
599.97        29.01522
600.41        29.57487
600.84        29.72759
601.27        29.97072
601.70         30.1761
602.14        30.37697
602.57        30.73446
603.00        31.16387
603.43         31.5726
603.87        31.70804
604.30        31.91907
604.73        32.10201
605.16         32.4831
605.60         32.4632
606.03        32.77859
606.46        33.20567
606.89         33.4419
607.32         33.7726
607.76        34.01416
608.19        34.26345
608.62        34.51934
609.05        34.78136
609.48         34.9374
609.92        35.10976
610.35        35.26539
610.78        36.26723
611.21        36.60318
611.64        36.75576
612.07        36.82873
612.50        36.97644
612.94        37.05734
613.37        37.09387
613.80        37.51048
614.23        37.56803
614.66        37.85003
615.09        38.13227
615.52        38.35762
615.96        38.49928
616.39        38.83598
616.82        38.90438
617.25        39.02943
617.68        39.34838
618.11        39.20714
618.54        38.85412
618.97        38.97815
619.40        39.55744
619.84        39.89447
620.27         39.9325
620.70        40.14096
621.13         40.4777
621.56        40.42302
621.99        40.10107
622.42        40.23336
622.85        40.72367
623.28        40.88713
623.71        40.69695
624.14        40.49902
624.57        40.17835
625.00        40.37828
625.43        40.58432
625.86        40.63409
626.29        40.32525
626.72        40.71331
627.15         40.4348
627.58        40.41955
628.01        40.26329
628.44        40.04901
628.87        39.80025
629.30        39.59667
629.73        39.45211
630.16        39.27509
630.59        39.06534
631.02        38.87477
631.45        38.71011
631.88         38.5533
632.31        38.39696
632.74        38.23973
633.17        38.05143
633.60        37.78569
634.03        37.43827
634.46        37.02941
634.89        36.59776
635.32        36.20464
635.75        35.86949
636.18        35.57708
636.61         35.3148
637.04        35.06056
637.47         34.8051
637.89        34.55122
638.32        34.27925
638.75        34.00562
639.18        33.73988
639.61        33.37521
640.04        33.13063
640.47        32.87217
640.90        32.66719
641.33        32.50328
641.76        32.38142
642.18        32.30268
642.61         32.2488
643.04        32.22273
643.47        32.20548
643.90        32.16583
644.33        32.09776
644.76         32.0167
645.18        31.94817
645.61        31.89298
646.04        31.85795
646.47        31.91355
646.90        32.08886
647.33        32.04167
647.75        32.37607
648.18        32.60041
648.61        32.86943
649.04         33.1236
649.47        33.35498
649.89        33.57092
650.32        33.77013
650.75        33.98616
651.18        34.22001
651.61        34.47353
652.03        34.74951
652.46        34.98163
652.89        35.17099
653.32         35.4015
653.74         35.8023
654.17        35.79034
654.60        36.16318
655.03        36.46906
655.46        36.67321
655.88        36.77625
656.31        39.39131
656.74        43.85081
657.16        41.78632
657.59        39.16923
658.02        39.38148
658.45        39.41406
658.87        39.83191
659.30        39.72538
659.73        39.44437
660.15        39.75114
660.58        39.75769
661.01        39.93579
661.44        39.97403
661.86         40.0698
662.29        40.22401
662.72        40.48372
663.14        40.83047
663.57        40.98928
664.00        41.00692
664.42        41.23577
664.85        41.65582
665.27        41.88962
665.70        41.92437
666.13        42.03419
666.55        42.22867
666.98        42.34762
667.41        42.41485
667.83        42.52864
668.26        42.69492
668.69        42.90603
669.11        43.10457
669.54         43.1926
669.96        43.15847
670.39        43.03727
670.82        42.95126
671.24        43.05876
671.67        43.38294
672.09        43.92754
672.52        44.55386
672.94        44.70529
673.37        44.84997
673.80         44.6423
674.22        44.38521
674.65        44.30011
675.07        44.45889
675.50        44.77243
675.92         45.1475
676.35         45.4123
676.77        45.52365
677.20        45.54315
677.62        45.52168
678.05        45.53775
678.47        45.61699
678.90        45.72817
679.32        45.86465
679.75        46.06027
680.17        46.30875
680.60        46.54313
681.02        46.71061
681.45        46.99894
681.87        46.90151
682.30        46.88463
682.72        46.84648
683.15        46.73748
683.57        46.64851
684.00        46.85881
684.42        47.27691
684.85        47.49253
685.27         47.4626
685.70        47.34578
686.12        47.22327
686.54        47.31485
686.97        47.57965
687.39        47.69218
687.82        47.62162
688.24        47.65683
688.66        47.77678
689.09        47.70857
689.51        47.52683
689.94        47.57552
690.36        47.90014
690.78        48.26844
691.21        48.53101
691.63        49.14209
692.06        48.83627
692.48         49.0462
692.90        49.36868
693.33        49.50829
693.75        49.46358
694.17        49.35098
694.60        49.24908
695.02        49.57467
695.44        49.64165
695.87        50.07994
696.29        50.53981
696.71        50.60901
697.14        50.30997
697.56        50.05251
697.98        49.97435
698.41        49.98874
698.83        50.11323
699.25        50.48041
699.68        50.94555
700.10        51.23631
700.52        51.26794
700.94        51.12512
701.37        50.91887
701.79        50.85012
702.21        50.96214
702.64        51.19222
703.06        51.44895
703.48        51.59724
703.90        51.60738
704.33        51.53132
704.75        51.44581
705.17        51.45742
705.59        51.59764
706.01         51.8243
706.44        52.08963
706.86        52.34111
707.28         52.5373
707.70        52.69408
708.12        52.82273
708.55        52.93656
708.97        53.03491
709.39        53.10946
709.81        53.16636
710.23        53.23233
710.66        53.31245
711.08        53.41238
711.50        53.51344
711.92        53.60308
712.34        53.68078
712.76        53.74943
713.19        53.80948
713.61        53.91087
714.03        54.03131
714.45        54.14656
714.87        54.24288
715.29        54.30185
715.71        54.31733
716.13        54.30625
716.56        54.23569
716.98        54.10665
717.40         53.9194
717.82        53.69893
718.24        53.53167
718.66        53.55196
719.08        53.77848
719.50        54.15646
719.92         54.5957
720.34        54.94809
720.76        55.16478
721.19        55.27428
721.61        55.29636
722.03        55.26922
722.45        55.24237
722.87        55.07632
723.29        54.82759
723.71        54.96171
724.13        55.50247
724.55        55.13203
724.97        55.53962
725.39        55.52991
725.81        55.59876
726.23        55.62096
726.65        55.67087
727.07        55.57941
727.49        55.88922
727.91        56.13225
728.33        56.41353
728.75        56.62796
729.17        56.74722
729.59        56.79529
730.01        56.79468
730.43        56.79451
730.85         56.8143
731.27        56.84262
731.69        56.88163
732.10        56.94088
732.52        57.01394
732.94        57.09904
733.36        57.18894
733.78        57.25034
734.20        57.28094
734.62        57.34034
735.04        57.40882
735.46        57.37534
735.88        57.27136
736.30        57.26909
736.72        57.41077
737.13        57.56197
737.55        57.64681
737.97        57.94176
738.39        58.32583
738.81        58.02536
739.23        57.28699
739.65        57.50923
740.06        58.48392
740.48        58.76945
740.90        58.29144
741.32        57.80986
741.74        57.60849
742.16        57.50358
742.57        57.59227
742.99        57.89591
743.41        58.30966
743.83        58.59871
744.25        58.72498
744.67        58.82737
745.08        58.94201
745.50        59.00167
745.92        59.03107
746.34        59.06351
746.75        59.08681
747.17        59.06544
747.59        58.99375
748.01        58.91953
748.42        58.86997
748.84        58.78969
749.26        58.70251
749.68        58.82529
750.09        59.10456
750.51        59.08849
750.93        58.89708
751.35        59.26126
751.76        60.05642
752.18        60.37816
752.60        60.15965
753.01        59.86526
753.43        59.64943
753.85        59.59144
754.27          59.738
754.68        60.04256
755.10        60.39491
755.52        60.61089
755.93         60.6709
756.35        60.68332
756.77        60.61956
757.18        60.57751
757.60        60.62634
758.02        60.31353
758.43        59.79554
758.85         60.7286
759.26        61.73684
759.68        62.05165
760.10        61.29725
760.51        60.96177
760.93        61.16702
761.34        60.70598
761.76         61.3931
762.18        61.06794
762.59        60.46836
763.01        60.49773
763.42        61.17134
763.84        61.51384
764.26        61.39662
764.67        61.07591
765.09        60.73559
765.50        60.65366
765.92        60.82318
766.33         60.8014
766.75        60.57356
767.16         60.6002
767.58        60.89774
768.00        61.31894
768.41        61.79998
768.83        62.29388
769.24        62.61043
769.66        62.40119
770.07        61.77532
770.49        61.16248
770.90        60.74385
771.32        60.79597
771.73        61.24432
772.15        61.53034
772.56        61.61572
772.97        61.83328
773.39        62.14122
773.80        62.35198
774.22        62.40734
774.63        62.39239
775.05        62.30205
775.46        62.19015
775.88        62.06657
776.29          61.934
776.70        61.83898
777.12        61.86809
777.53        62.04591
777.95        62.32946
778.36        62.62349
778.77        62.73598
779.19        62.64072
779.60        62.41111
780.02        62.15223
780.43        62.07695
780.84        62.24696
781.26        62.45255
781.67        62.70456
782.09        63.23614
782.50        63.86544
782.91        63.98539
783.33         63.6289
783.74        63.47161
784.15        63.53708
784.57        63.44859
784.98         63.2435
785.39        63.15577
785.81        63.20689
786.22         63.3476
786.63        63.50599
787.04        63.55313
787.46        63.48247
787.87        63.31471
788.28        63.15918
788.70        63.16113
789.11        63.32878
789.52        63.63081
789.93        63.97076
790.35        64.16352
790.76        64.19315
791.17        64.14326
791.58         64.0726
792.00        64.01987
792.41         64.0326
792.82        64.11065
793.23        64.25362
793.65        64.38867
794.06        64.54095
794.47        64.81421
794.88        65.06455
795.29        65.07107
795.71         64.7102
796.12        64.17863
796.53        63.62798
796.94        63.37727
797.35         63.5163
797.76        63.93119
798.18         64.4359
798.59         64.7966
799.00        64.89793
799.41         64.7977
799.82        64.60243
800.23        64.50153
800.64        64.54717
801.06        64.63811
801.47        64.78194
801.88        64.89211
802.29        64.93243
802.70        64.92891
803.11        64.89082
803.52        64.81955
803.93        64.73366
804.34        64.64613
804.75        64.55799
805.17        64.50681
805.58         64.5312
805.99        64.48473
806.40        64.43414
806.81        64.75325
807.22        65.29759
807.63        65.44347
808.04        65.18486
808.45        65.03556
808.86        65.02676
809.27        64.82869
809.68        64.50885
810.09        64.36668
810.50        64.44656
810.91        64.66471
811.32        64.95113
811.73        65.18336
812.14        65.31204
812.55        65.37419
812.96        65.37463
813.37        65.31936
813.78        65.23019
814.19        65.11403
814.60        65.00678
815.01        64.96503
815.42        65.00291
815.83        65.10739
816.24        65.27763
816.65        65.49355
817.05        65.73045
817.46        65.95199
817.87        66.12652
818.28        66.16755
818.69        66.06695
819.10        65.83995
819.51        65.57993
819.92        65.46619
820.33        65.54368
820.74        65.75235
821.14        65.98486
821.55        66.09027
821.96        66.01936
822.37        65.83759
822.78        65.58669
823.19        65.34137
823.60        65.15169
824.00        65.01267
824.41        64.94916
824.82        65.07504
825.23        65.39203
825.64        65.86635
826.04        66.40176
826.45        66.73626
826.86        66.82802
827.27        66.73514
827.68        66.52826
828.08        66.36156
828.49        66.25153
828.90        66.17112
829.31        66.15794
829.72         66.2716
830.12        66.53674
830.53        66.89943
830.94         67.2478
831.35        67.33126
831.75        67.10812
832.16        66.59883
832.57        66.02187
832.97        65.70401
833.38        65.73054
833.79        66.01273
834.20        66.37401
834.60         66.5279
835.01         66.4192
835.42        66.13426
835.82        65.83427
836.23        65.73107
836.64        65.89954
837.04        66.29216
837.45        66.71877
837.86        66.97412
838.26        66.99577
838.67        66.80309
839.08        66.53399
839.48        66.38609
839.89        66.40204
840.29        66.49077
840.70         66.5668
841.11        66.43833
841.51        66.09889
841.92        65.64888
842.33         65.1823
842.73        64.86047
843.14        64.71458
843.54         64.7014
843.95        64.90342
844.35        65.49281
844.76        66.40714
845.17        67.59097
845.57        68.73069
845.98        69.14299
846.38        68.72425
846.79         67.6857
847.19        66.40929
847.60        65.52177
848.00        65.19395
848.41        65.23164
848.81        65.58066
849.22        66.03555
849.62        66.53281
850.03        67.08162
850.43        67.54646
850.84        67.56937
851.24        67.13727
851.65        66.31448
852.05        65.38019
852.46        64.81959
852.86        64.73777
853.27        65.01208
853.67        65.44711
854.07        65.94453
854.48          66.395
854.88        66.91358
855.29        67.26519
855.69        67.21814
856.10        66.63348
856.50        65.65135
856.90        64.60102
857.31        64.00992
857.71        64.02882
858.12        64.50237
858.52        65.23431
858.92        65.65952
859.33        65.58324
859.73        65.19426
860.13        64.70448
860.54         64.4808
860.94        64.65182
861.34         65.0653
861.75        65.50829
862.15        65.73872
862.55        65.62935
862.96        65.27606
863.36        64.81889
863.76        64.48441
864.17        64.34141
864.57        64.37439
864.97        64.43381
865.38        64.26789
865.78        63.87158
866.18        63.28701
866.58        62.78917
866.99         62.8415
867.39        63.52814
867.79        64.64409
868.19        65.74755
868.60        66.14486
869.00        65.70514
869.40        64.67277
869.80        63.41189
870.21        62.57292
870.61        62.41398
871.01        62.70304
871.41        63.30246
871.81        64.01469
872.22        64.72147
872.62        65.53996
873.02          66.326
873.42        66.77114
873.82        66.78984
874.22        66.43157
874.63        65.95061
875.03        65.73621
875.43         65.8818
875.83        66.26054
876.23        66.71401
876.63         66.9484
877.03        66.89075
877.44        66.70694
877.84        66.40296
878.24        66.00548
878.64        65.56435
879.04        65.02282
879.44        64.63531
879.84         64.7865
880.24        65.48823
880.64        66.65493
881.04          67.754
881.44        67.82824
881.84        66.70803
882.24        64.76836
882.65        62.79708
883.05        61.82472
883.45        62.09993
883.85         63.3127
884.25        64.95939
884.65        66.09943
885.05        66.38686
885.45        66.09738
885.85        65.54496
886.25        65.21288
886.65        65.23973
887.05        65.42152
887.45        65.63492
887.85        65.71868
888.25         65.6125
888.65        65.42239
889.04        65.16337
889.44        64.85717
889.84        64.52634
890.24        64.18589
890.64        63.91405
891.04        63.85147
891.44        64.02127
891.84        64.36389
892.24        64.82116
892.64        65.29346
893.04        65.74315
893.44        66.21098
893.83        66.63966
894.23        66.85577
894.63        66.86421
895.03        66.65571
895.43        66.45001
895.83        66.60778
896.23         67.1793
896.63        68.07283
897.02        68.90972
897.42        69.06621
897.82        68.44518
898.22         67.2627
898.62        66.01704
899.01        65.40453
899.41        65.58071
899.81        66.36372
900.21        67.32789
900.61        67.67047
901.00        67.16248
901.40        66.14149
901.80        65.11411
902.20         64.7729
902.59        65.26879
902.99        66.33927
903.39        67.62691
903.79        68.35949
904.18        68.25603
904.58        67.61722
904.98        66.81207
905.38        66.34017
905.77        66.31292
906.17         66.5616
906.57        66.97369
906.96        67.42008
907.36        67.76874
907.76        68.08179
908.15        68.29007
908.55        68.18071
908.95        67.77201
909.34        67.13189
909.74        66.42472
910.14        65.87073
910.53        65.54678
910.93        65.42494
911.33        65.52471
911.72        65.87228
912.12        66.42234
912.52        67.14188
912.91        67.88372
913.31        68.38725
913.70        68.60548
914.10        68.52728
914.49        68.28453
914.89        68.05683
915.29        67.93491
915.68        67.87929
916.08        67.83331
916.47        67.64563
916.87        67.32555
917.26        66.89902
917.66        66.52086
918.05        66.39507
918.45        66.52505
918.84        66.90282
919.24        67.24256
919.64        67.16477
920.03        66.59148
920.42        65.64268
920.82        64.72713
921.21        64.29095
921.61        64.42271
922.00        65.04383
922.40        65.79873
922.79        66.15092
923.19        65.91568
923.58        65.28335
923.98        64.67656
924.37        64.68875
924.77         65.4376
925.16        66.74583
925.55        68.19453
925.95        69.01231
926.34        68.98298
926.74        68.30953
927.13        67.36015
927.52        66.69212
927.92        66.46999
928.31        66.53015
928.70         66.7069
929.10        66.71175
929.49        66.49091
929.89        66.18439
930.28        65.94356
930.67        65.94113
931.07        66.21108
931.46        66.67355
931.85        67.26965
932.24        67.94676
932.64        68.61843
933.03        69.33708
933.42        69.92878
933.82         70.1498
934.21        69.97812
934.60        69.44665
934.99        68.80835
935.39        68.42611
935.78        68.37897
936.17        68.58655
936.56        68.82843
936.96        68.72679
937.35        68.25214
937.74         67.5332
938.13        66.77463
938.53         66.2856
938.92        66.13973
939.31        66.28133
939.70        66.64489
940.09        67.14974
940.49        67.68242
940.88        68.23014
941.27        68.76765
941.66        69.27332
942.05        69.67211
942.44        69.95419
942.84        69.82031
943.23         68.8046
943.62        67.01353
944.01        64.80926
944.40        62.85257
944.79        61.93545
945.18        62.15693
945.57        63.29839
945.97        64.92814
946.36        66.40289
946.75        67.24773
947.14        67.62606
947.53        67.68394
947.92        67.72668
948.31        67.86661
948.70        67.90992
949.09        67.92046
949.48        68.06715
949.87         68.3506
950.26        68.78189
950.65        69.09039
951.04        68.79527
951.43        67.85821
951.82        66.48689
952.21        65.10036
952.60        64.31881
952.99         64.2832
953.38        64.80839
953.77        65.60798
954.16        66.18304
954.55        66.33878
954.94         66.1872
955.33        65.86288
955.72         65.5896
956.11         65.4536
956.50        65.40124
956.89        65.32465
957.28        65.07237
957.66        64.63922
958.05        64.07446
958.44        63.63511
958.83        63.70226
959.22        64.32867
959.61        65.38698
960.00         66.4794
960.39        66.91229
960.78        66.50662
961.16        65.48379
961.55        64.26106
961.94        63.48719
962.33        63.36068
962.72         63.6956
963.11        64.30475
963.49        64.90534
963.88        65.31811
964.27        65.62194
964.66        65.83588
965.04        65.99631
965.43          66.063
965.82        66.05566
966.21         65.8934
966.60        65.47215
966.98        64.84675
967.37        64.08149
967.76        63.47229
968.15        63.46851
968.53        64.15646
968.92        65.32043
969.31        66.65999
969.69        67.64444
970.08        68.04878
970.47        68.02856
970.86        67.64043
971.24        67.00166
971.63        66.22497
972.02        65.33611
972.40        64.60324
972.79        64.44734
973.17        65.02067
973.56        66.12937
973.95         67.5592
974.33        68.97646
974.72        70.15908
975.11        71.18009
975.49        71.97468
975.88        72.31485
976.26        72.15911
976.65        71.45593
977.04         70.3681
977.42        69.08809
977.81        67.76374
978.19        66.43216
978.58        65.20116
978.96        64.01664
979.35        62.92868
979.74        61.90151
980.12        61.18439
980.51        61.05955
980.89        61.63336
981.28        62.84745
981.66        64.17619
982.05        64.63824
982.43        64.03849
982.82        62.58361
983.20        61.18976
983.59        61.30075
983.97        63.28117
984.35        66.76295
984.74        70.47631
985.12        72.24281
985.51        71.21097
985.89        68.20564
986.28        64.66293
986.66        62.26215
987.04        61.48739
987.43        61.72799
987.81        62.58667
988.20         63.1877
988.58         63.2667
988.96        63.26572
989.35        63.06008
989.73        62.51543
990.12        61.66316
990.50         60.3857
990.88        59.42331
991.27        59.96993
991.65        62.21572
992.03        66.05241
992.42        70.01339
992.80        71.26447
993.18        68.79878
993.56        63.90265
993.95        58.95115
994.33        56.38628
994.71        56.68942
995.10        59.04172
995.48        62.67345
995.86        65.32221
996.24        65.87968
996.63        65.16556
997.01        63.76763
997.39        62.42205
997.77        61.43245
998.15        60.37029
998.54        59.70998
998.92        60.46313
999.30        62.81495
999.68         66.6757
1000.06        70.72644
1000.45        72.36732
1000.83        71.10897
1001.21        67.70219
1001.59        63.88093
1001.97        62.06564
1002.35          62.741
1002.73        65.19904
1003.12        68.51787
1003.50        71.02547
1003.88        71.95829
1004.26        71.88698
1004.64        71.17211
1005.02        70.38902
1005.40        69.75353
1005.78        68.87549
1006.16        67.98106
1006.54        67.53613
1006.92        67.59927
1007.30        68.25418
1007.69        68.73162
1008.07        67.64093
1008.45        64.92796
1008.83        61.36834
1009.21        58.31028
1009.59         57.1242
1009.97        57.91745
1010.35        60.47211
1010.73        63.92411
1011.11        66.10352
1011.49        65.97702
1011.86        63.83489
1012.24         61.4739
1012.62        61.72901
1013.00        65.44736
1013.38        72.36596
1013.76        80.24194
1014.14        83.00836
1014.52        78.95029
1014.90        71.38742
1015.28        64.32452
1015.66        61.16254
1016.04        62.03441
1016.41        66.14326
1016.79        72.45715
1017.17        78.49741
1017.55        82.11069
1017.93        83.65693
1018.31         82.5202
1018.69        78.52428
1019.06        72.82285
1019.44        66.68816
1019.82        61.61631
1020.20        58.62852
1020.58        57.40759
1020.95        57.70459
1021.33        59.02363
1021.71         60.1287
1022.09         60.3659
1022.46        59.69024
1022.84        59.11917
1023.22        59.94803
1023.60        62.56085
1023.97        67.27248
1024.35        72.15904
1024.73        71.68534
