SpectraSmart Spectrum 2.9.0.0
--------- Device Information -----------
Spectrum Name :  反射率_0
Saving Time :  2024/05/03 20:34:47
Spectro-Module Model Name : SE2030-DUVN
Spectro-Module Serial Number : OS361AC55029948
Wavelength Start : 200
Wavelength End : 1025
Wavelength Unit : Wavelength(nm)
Spectrum Unit : Reflectance(%)
-----------Spectrum Setting ------------
Integration Time : 20ms
Average : 10
Boxcar : 0
Background removal :  enabled
linearity correction :  enabled
SC :  disabled
Intensity correction :  disabled
DWT denoise :  enabled
savitzky-golay :  disabled
FFT :  disabled
Running average :  disabled
Kalman :  disabled
High pass :  disabled
---------------BEGIN--------------------
Wavelength(nm)             Reflectance(%)
200.29               0
200.75         14.7583
201.21        32.50289
201.67       -995.7098
202.13       -18.26318
202.58        8.081568
203.04        25.16362
203.50        38.35069
203.96        48.22884
204.42        58.46569
204.88        85.38665
205.34       -854.7677
205.80       -59.41726
206.26       -97.72492
206.72       -37558.77
207.18        182.7858
207.64        131.2844
208.10        123.6732
208.55        148.3357
209.01        368.4506
209.47        178.6137
209.93         32.3727
210.39        28.20492
210.85        30.94282
211.31        37.05305
211.77        48.61551
212.23         77.0216
212.69        149.3988
213.14        200.1813
213.60        106.1322
214.06         42.5798
214.52        17.86483
214.98        11.96267
215.44        18.40346
215.90        58.52033
216.36       -537.7787
216.81       -119.5457
217.27       -116.0015
217.73       -178.8119
218.19       -587.8027
218.65       -11863.92
219.11       -968.7537
219.57       -312.9216
220.02       -225.7997
220.48       -434.8982
220.94        510.3586
221.40        156.2826
221.86        103.2248
222.32        89.98875
222.77        91.00172
223.23         102.556
223.69        124.6681
224.15        140.3931
224.61        134.9052
225.06        120.5283
225.52        111.0953
225.98        112.0244
226.44        122.6628
226.90        141.1588
227.36        165.3181
227.81        182.8645
228.27        183.9146
228.73        174.6124
229.19        160.4265
229.65        145.4277
230.10        131.2477
230.56        118.7715
231.02        109.1568
231.48        104.1301
231.93        102.9658
232.39         104.799
232.85        107.7492
233.31         109.502
233.77         109.458
234.22        107.9413
234.68        106.1967
235.14        106.3935
235.60        109.0771
236.05        114.0069
236.51        118.5979
236.97        118.2657
237.43        112.1284
237.88        102.2433
238.34        92.78477
238.80        88.47172
239.26        90.47919
239.71        100.5644
240.17        120.0153
240.63        140.7624
241.08        147.0162
241.54        133.9071
242.00        114.4613
242.46         103.935
242.91        104.4501
243.37        113.7204
243.83        135.2839
244.28        162.8895
244.74        172.0012
245.20        162.7733
245.66        141.7688
246.11        115.4381
246.57        89.07117
247.03        62.61442
247.48         42.0559
247.94        32.39772
248.40        32.39821
248.85        39.51691
249.31        50.41642
249.77        56.08311
250.22        54.19397
250.68         49.3112
251.14        45.59198
251.59        46.94006
252.05        54.43987
252.51        68.70145
252.96        90.47758
253.42        110.8448
253.88        117.8211
254.33          112.76
254.79        101.8823
255.25        90.84884
255.70        82.42645
256.16        76.95908
256.62        74.16525
257.07        74.03452
257.53        75.98994
257.99        78.60521
258.44        80.61728
258.90        81.24962
259.35         80.1048
259.81        78.54311
260.27        76.54582
260.72        74.13966
261.18        72.04399
261.63        69.96772
262.09        68.61704
262.55        68.24013
263.00        68.56711
263.46        69.44508
263.91        70.26238
264.37        70.53407
264.83        70.10307
265.28        69.20109
265.74        68.14806
266.19        67.01004
266.65        66.01575
267.11        65.00697
267.56        64.12552
268.02        63.72965
268.47        63.74785
268.93        64.12458
269.38        64.47182
269.84        64.12404
270.30        62.99418
270.75        61.31437
271.21         59.6174
271.66        58.52641
272.12        58.16941
272.57        58.25755
273.03        58.47881
273.48        58.34328
273.94        57.74078
274.39        56.85998
274.85        55.81961
275.31         54.6334
275.76        53.35768
276.22        52.07147
276.67        50.94157
277.13         50.3954
277.58        50.32623
278.04        50.63196
278.49        50.86793
278.95        50.42977
279.40         49.1957
279.86        47.55204
280.31         45.8204
280.77        44.58194
281.22        43.80547
281.68        43.36965
282.13        43.03708
282.59        42.58528
283.04        41.91961
283.50        41.17647
283.95        40.40869
284.41        39.74783
284.86        39.18698
285.32        38.71051
285.77        38.24999
286.22        37.79753
286.68        37.35999
287.13        36.91172
287.59        36.49248
288.04         36.0679
288.50        35.66393
288.95        35.25445
289.41        34.85086
289.86        34.42124
290.32        33.99839
290.77        33.56258
291.22        33.17012
291.68        32.88047
292.13        32.67764
292.59         32.5682
293.04        32.47198
293.50        32.28861
293.95        31.99859
294.40        31.64492
294.86        31.34843
295.31        31.26837
295.77        31.43028
296.22        31.77356
296.68        32.16194
297.13        32.37399
297.58        32.34643
298.04        32.16659
298.49        31.93303
298.95         31.8344
299.40        31.89416
299.85        32.05607
300.31        32.27582
300.76        32.45963
301.21        32.58513
301.67        32.68181
302.12          32.731
302.58        32.72648
303.03        32.65912
303.48        32.54091
303.94        32.42603
304.39        32.33967
304.84        32.31074
305.30        32.33247
305.75        32.36375
306.20        32.37319
306.66        32.36028
307.11        32.30855
307.57        32.25321
308.02        32.18483
308.47           32.12
308.93        32.06147
309.38        31.97464
309.83        31.84448
310.29        31.67139
310.74         31.4545
311.19        31.23197
311.65        31.06182
312.10        30.94682
312.55        30.86922
313.00        30.78367
313.46        30.62155
313.91        30.36047
314.36        30.03949
314.82        29.70313
315.27        29.41008
315.72        29.18836
316.18        29.02067
316.63         28.8998
317.08         28.8171
317.53        28.76175
317.99        28.73152
318.44        28.71175
318.89        28.66297
319.35        28.57366
319.80        28.44804
320.25        28.30077
320.70        28.16526
321.16        28.04227
321.61        27.92288
322.06        27.79018
322.51        27.62002
322.97        27.40781
323.42        27.17837
323.87        26.93492
324.32        26.68312
324.78        26.42944
325.23          26.181
325.68        25.96622
326.13          25.835
326.59        25.78448
327.04        25.81479
327.49        25.86554
327.94        25.84398
328.39        25.72279
328.85        25.51558
329.30        25.28038
329.75        25.09665
330.20        24.99178
330.66        24.93355
331.11        24.90356
331.56        24.83623
332.01        24.71578
332.46        24.56799
332.92        24.40876
333.37        24.29194
333.82        24.22438
334.27        24.19426
334.72        24.19831
335.17        24.23299
335.63        24.28122
336.08        24.35044
336.53        24.41999
336.98        24.46742
337.43        24.48345
337.88        24.47241
338.34        24.42707
338.79        24.34219
339.24        24.22674
339.69        24.09351
340.14        23.97683
340.59        23.93104
341.05        23.96602
341.50        24.06318
341.95        24.19428
342.40        24.31538
342.85        24.40541
343.30        24.47239
343.75        24.49703
344.20        24.45306
344.66        24.35133
345.11        24.19772
345.56        24.04306
346.01        23.96417
346.46        23.97962
346.91        24.06914
347.36        24.19688
347.81        24.30249
348.26        24.36591
348.72        24.40348
349.17        24.41973
349.62        24.43151
350.07        24.44135
350.52         24.4338
350.97        24.40797
351.42        24.36762
351.87        24.31211
352.32        24.24653
352.77        24.15868
353.22        24.02697
353.67        23.85649
354.13        23.66831
354.58        23.48728
355.03         23.3698
355.48        23.32705
355.93        23.34331
356.38        23.38775
356.83        23.41148
357.28        23.39685
357.73        23.35088
358.18        23.28795
358.63        23.23347
359.08        23.19386
359.53         23.1608
359.98        23.11221
360.43        23.01722
360.88        22.87076
361.33        22.68118
361.78        22.48662
362.23        22.34351
362.68        22.26086
363.13        22.22445
363.58        22.17926
364.03        22.03739
364.48        21.78752
364.93        21.46455
365.38        21.14262
365.83        20.93423
366.28         20.8615
366.73        20.88377
367.18        20.93897
367.63        20.92661
368.08        20.81639
368.53        20.64264
368.98        20.43475
369.43        20.23406
369.88        20.05779
370.33         19.8928
370.78        19.74493
371.23         19.6309
371.68        19.55125
372.13        19.49927
372.58        19.46301
373.03        19.41876
373.48         19.3536
373.93        19.27059
374.38        19.15144
374.83        18.97244
375.28        18.74137
375.72        18.46838
376.17        18.21393
376.62        18.03258
377.07        17.93151
377.52        17.88767
377.97        17.87377
378.42        17.84396
378.87        17.78216
379.32        17.70542
379.77         17.6084
380.22        17.48012
380.67        17.32447
381.11        17.14709
381.56        16.97744
382.01        16.88406
382.46        16.88299
382.91        16.95338
383.36        17.05071
383.81         17.1065
384.26         17.1018
384.71        17.05298
385.15        16.97433
385.60        16.90936
386.05        16.86079
386.50        16.80894
386.95        16.74753
387.40        16.66815
387.85         16.5726
388.29          16.471
388.74        16.36828
389.19        16.22791
389.64        16.05085
390.09        15.84267
390.54        15.66475
390.98        15.60119
391.43        15.66506
391.88        15.84812
392.33        16.04917
392.78        16.04178
393.23        15.84921
393.67        15.68206
394.12        15.59054
394.57        15.48662
395.02        15.38542
395.47        15.34299
395.91        15.35174
396.36        15.34971
396.81         15.3349
397.26        15.33361
397.71        15.31886
398.15        15.26661
398.60        15.19876
399.05        15.03094
399.50        14.83644
399.95        14.89105
400.39        15.13161
400.84        15.11446
401.29        14.84953
401.74        14.71379
402.18        14.72103
402.63        14.65933
403.08        14.55853
403.53         14.4471
403.97        14.53798
404.42        14.62245
404.87        14.71285
405.32        14.72696
405.76        14.64822
406.21        14.50833
406.66        14.35313
407.11         14.2588
407.55        14.24762
408.00        14.29252
408.45        14.36074
408.90        14.39028
409.34        14.35964
409.79        14.28763
410.24        14.20339
410.68        14.14488
411.13        14.12293
411.58        14.12572
412.03        14.12814
412.47        14.09239
412.92        14.00922
413.37        13.89872
413.81        13.79674
414.26        13.76619
414.71        13.80861
415.15        13.91055
415.60        14.02059
416.05        14.06189
416.49        14.01207
416.94        13.89892
417.39        13.76757
417.83        13.68307
418.28        13.66161
418.73        13.67836
419.17        13.71489
419.62        13.73459
420.07        13.72521
420.51        13.69613
420.96        13.65121
421.41        13.58378
421.85        13.49164
422.30        13.38643
422.74        13.27688
423.19        13.21557
423.64        13.19867
424.08        13.20178
424.53        13.20311
424.98        13.22216
425.42        13.26177
425.87         13.2714
426.31        13.27293
426.76        13.38465
427.21        13.56778
427.65        13.62367
428.10        13.55788
428.54        13.52338
428.99        13.53477
429.44         13.5835
429.88        13.61282
430.33        13.45866
430.77        13.19168
431.22        13.10017
431.66        13.20151
432.11        13.35385
432.56        13.49409
433.00        13.62515
433.45        13.61662
433.89        13.43155
434.34        12.72501
434.78        12.66149
435.23        13.11159
435.67        13.23536
436.12        13.02748
436.57        12.96169
437.01        13.05513
437.46        13.08133
437.90        13.03408
438.35        12.97937
438.79        12.92732
439.24        12.88363
439.68        12.85985
440.13        12.88252
440.57        12.92482
441.02        12.92872
441.46        12.88262
441.91        12.80137
442.35        12.70436
442.80         12.7084
443.24          12.778
443.69        12.76125
444.13        12.66549
444.58        12.63634
445.02        12.67723
445.47        12.70255
445.91        12.70901
446.36        12.73864
446.80        12.78518
447.24        12.83817
447.69        12.88011
448.13        12.88331
448.58        12.84607
449.02        12.77689
449.47        12.70228
449.91        12.65596
450.36        12.64861
450.80        12.66588
451.25        12.69254
451.69        12.69826
452.13        12.67598
452.58        12.63815
453.02        12.58902
453.47        12.54102
453.91        12.49965
454.36        12.46036
454.80        12.42718
455.24         12.4252
455.69        12.46037
456.13        12.48082
456.58        12.47505
457.02        12.57216
457.46        12.56476
457.91        12.50273
458.35        12.36025
458.79        12.31692
459.24        12.36612
459.68        12.35205
460.13        12.29438
460.57        12.28462
461.01        12.33158
461.46        12.38077
461.90        12.41636
462.34        12.42636
462.79        12.40338
463.23        12.35037
463.68        12.29574
464.12        12.27542
464.56        12.29566
465.01        12.37742
465.45        12.47081
465.89        12.46712
466.34        12.39354
466.78        12.38585
467.22        12.45073
467.67         12.4848
468.11        12.47699
468.55        12.43836
468.99        12.38229
469.44        12.34631
469.88        12.33765
470.32        12.32646
470.77        12.31597
471.21        12.33019
471.65        12.36555
472.10        12.41171
472.54        12.45096
472.98        12.46347
473.42        12.44503
473.87        12.40844
474.31        12.35347
474.75        12.29284
475.20        12.23812
475.64        12.18018
476.08        12.13049
476.52        12.12303
476.97        12.16216
477.41        12.20665
477.85        12.22232
478.29        12.38577
478.74        12.27696
479.18        12.32641
479.62        12.40456
480.06        12.44338
480.50        12.43559
480.95         12.4272
481.39        12.42933
481.83        12.44476
482.27        12.48711
482.72        12.57501
483.16        12.66739
483.60        12.71788
484.04        12.71993
484.48        12.60158
484.93        12.50208
485.37        12.72631
485.81        13.16313
486.25        13.48536
486.69        13.21955
487.14        13.01613
487.58         13.2832
488.02        13.13587
488.46        13.42809
488.90        13.14868
489.34        12.79014
489.79         12.7571
490.23        13.09961
490.67        13.47534
491.11        13.74498
491.55        13.72418
491.99        13.47864
492.43        13.42603
492.88        13.59559
493.32        13.70547
493.76        13.72859
494.20        13.77803
494.64        13.85456
495.08        13.92983
495.52        13.99853
495.96        14.06274
496.41        14.12092
496.85        14.14871
497.29        14.17501
497.73        14.29469
498.17        14.48508
498.61        14.62916
499.05        14.69392
499.49        14.68336
499.93        14.62623
500.37        14.61186
500.82         14.6488
501.26        14.66367
501.70        14.66119
502.14        14.70615
502.58        14.79416
503.02          14.878
503.46         14.9496
503.90        15.02166
504.34        15.09011
504.78        15.14608
505.22        15.18927
505.66        15.21808
506.10        15.22661
506.54        15.24373
506.98        15.27916
507.42        15.26395
507.86        15.19695
508.30        15.40588
508.74        15.35413
509.18        15.47085
509.62        15.56756
510.06         15.6151
510.50        15.60145
510.94        15.54285
511.38        15.47823
511.82        15.45668
512.26        15.49294
512.70        15.57273
513.14        15.65932
513.58        15.69608
514.02        15.66912
514.46        15.59303
514.90        15.50729
515.34        15.47495
515.78        15.51186
516.22          15.603
516.66        15.69887
517.10        15.72155
517.54         15.6578
517.98        15.53274
518.42         15.4128
518.86        15.40271
519.30        15.52067
519.74        15.72792
520.18        15.94722
520.62        16.05402
521.06        16.01563
521.50        15.87219
521.93        15.68351
522.37        15.54605
522.81        15.48861
523.25        15.48228
523.69        15.50103
524.13        15.50337
524.57        15.47787
525.01        15.44616
525.45        15.41585
525.89        15.39478
526.32        15.38495
526.76        15.37699
527.20        15.37827
527.64        15.40533
528.08        15.45626
528.52        15.52599
528.96        15.58265
529.40        15.57601
529.83        15.49648
530.27        15.36319
530.71        15.22038
531.15         15.1383
531.59        15.13267
532.03        15.18573
532.46        15.25328
532.90        15.26315
533.34        15.20123
533.78         15.0946
534.22        14.98676
534.66        14.94084
535.09        14.96556
535.53        15.03732
535.97        15.12183
536.41        15.15368
536.85        15.11595
537.28        15.07235
537.72        15.03442
538.16        14.92492
538.60        14.80289
539.04        14.86333
539.47        15.06842
539.91        15.18703
540.35        15.19893
540.79        15.23575
541.22        15.29717
541.66        15.33474
542.10        15.35205
542.54        15.34102
542.97         15.3242
543.41        15.39901
543.85        15.54503
544.29         15.6363
544.72        15.66901
545.16        15.74766
545.60         15.8687
546.04        15.97292
546.47        16.05589
546.91        16.13966
547.35        16.22387
547.79        16.30786
548.22        16.39613
548.66         16.4948
549.10         16.6104
549.53        16.78059
549.97        16.97813
550.41        17.11953
550.84        17.18893
551.28        17.22554
551.72        17.24937
552.15        17.27932
552.59        17.33516
553.03        17.40618
553.46        17.48196
553.90        17.57005
554.34        17.65982
554.77        17.73382
555.21        17.80671
555.65        17.91571
556.08        18.05817
556.52        18.21566
556.96        18.35804
557.39        18.45846
557.83        18.51563
558.27        18.51224
558.70        18.48008
559.14        18.51425
559.57        18.60738
560.01        18.67374
560.45        18.70025
560.88        18.73352
561.32        18.78152
561.75        18.80009
562.19        18.82281
562.63        18.88148
563.06        18.97285
563.50        19.14496
563.93        19.34014
564.37        19.33476
564.80        19.17931
565.24        19.21602
565.68        19.42059
566.11        19.51372
566.55        19.49697
566.98        19.51266
567.42        19.57666
567.85         19.7146
568.29         19.7889
568.72        19.87981
569.16        19.96556
569.60        20.09297
570.03        20.26096
570.47        20.41798
570.90         20.5311
571.34        20.71365
571.77        20.93664
572.21        20.81111
572.64        20.94605
573.08        20.90252
573.51        21.36546
573.95        21.46854
574.38        21.38708
574.82        21.36919
575.25        21.65633
575.69        21.67909
576.12         21.5531
576.56        21.54714
576.99         21.6785
577.42        21.89718
577.86        21.80572
578.29        21.94927
578.73        21.78777
579.16        21.77212
579.60        21.71327
580.03        21.67195
580.47        21.65475
580.90        21.50243
581.33        21.19627
581.77        21.58437
582.20        21.69492
582.64        21.42851
583.07        21.23323
583.51        21.01275
583.94        21.04955
584.37        21.02663
584.81        20.81215
585.24        20.63914
585.68        20.88999
586.11        20.41258
586.54        20.59057
586.98        20.51045
587.41        20.53955
587.85        20.58944
588.28        20.37514
588.71        20.37846
589.15        20.36786
589.58        20.14661
590.01        20.21508
590.45        20.08935
590.88        19.97745
591.31        20.06091
591.75        20.31568
592.18        20.35041
592.61        20.12745
593.05        20.35573
593.48        20.59337
593.91        20.33578
594.35        20.45204
594.78        20.48358
595.21        20.70391
595.65        20.76111
596.08        20.63223
596.51        20.96668
596.94        20.91599
597.38        21.07788
597.81        21.19712
598.24        21.37478
598.68          21.607
599.11        21.62436
599.54        22.07992
599.97        21.90495
600.41        22.57198
600.84        22.79573
601.27        22.96745
601.70        23.09525
602.14        23.25216
602.57        23.68053
603.00        24.28908
603.43        24.68578
603.87        24.86788
604.30        25.09227
604.73        25.38671
605.16         25.8652
605.60         25.8563
606.03        26.19856
606.46         26.6715
606.89        26.69961
607.32        27.13349
607.76        27.36183
608.19         27.6461
608.62        28.01665
609.05        28.40716
609.48         28.6273
609.92        28.77999
610.35        28.95302
610.78         29.8186
611.21        30.37319
611.64        30.45244
612.07        30.63709
612.50        30.86772
612.94        31.05718
613.37        31.23207
613.80         31.4227
614.23        31.63235
614.66        31.86323
615.09         32.1094
615.52         32.3399
615.96        32.55066
616.39        32.82492
616.82        32.96881
617.25        33.25582
617.68        33.57953
618.11        33.57014
618.54        33.34798
618.97        33.51915
619.40        34.08989
619.84        34.42662
620.27         34.6915
620.70        34.91531
621.13        35.14605
621.56        35.13093
621.99        34.96641
622.42        35.07426
622.85        35.38592
623.28        35.46974
623.71        35.31877
624.14        35.14834
624.57        35.01751
625.00        35.10555
625.43        35.05107
625.86        35.15746
626.29        35.26224
626.72        35.28966
627.15        35.21094
627.58        35.04359
628.01        34.80086
628.44        34.56421
628.87        34.36635
629.30        34.07278
629.73        33.65868
630.16        33.72871
630.59        33.26194
631.02         33.0772
631.45        32.86431
631.88        32.63482
632.31        32.37281
632.74        32.08684
633.17        31.77652
633.60        31.41597
634.03          31.011
634.46        30.57503
634.89        30.12844
635.32        29.70219
635.75        29.30681
636.18        28.93558
636.61        28.58777
637.04        28.25995
637.47        27.94878
637.89        27.65118
638.32        27.34116
638.75        27.02183
639.18        26.70081
639.61        26.27807
640.04        25.98172
640.47        25.69805
640.90        25.49598
641.33        25.35698
641.76        25.26622
642.18        25.19792
642.61        25.13025
643.04        25.07382
643.47        25.02448
643.90        24.97606
644.33        24.92932
644.76        24.88835
645.18        24.86786
645.61        24.86326
646.04        24.87457
646.47         24.9551
646.90        25.12765
647.33         25.1241
647.75        25.42338
648.18         25.6461
648.61        25.90756
649.04        26.17533
649.47        26.45462
649.89        26.68037
650.32         26.8855
650.75        27.33811
651.18        27.96043
651.61        28.29979
652.03        28.40161
652.46        28.76737
652.89        29.37411
653.32        29.76826
653.74        30.05376
654.17        30.40889
654.60        30.53871
655.03        31.53907
655.46        31.78106
655.88        32.01286
656.31        34.28194
656.74        37.64001
657.16        35.81501
657.59        33.90023
658.02        34.40366
658.45        35.13617
658.87        35.69229
659.30        35.29581
659.73        35.56791
660.15        35.97675
660.58        36.02695
661.01        36.40536
661.44        36.75182
661.86        36.95459
662.29        37.02304
662.72        37.23112
663.14        37.59784
663.57        37.81126
664.00        37.90422
664.42        38.17914
664.85         38.6202
665.27        38.91962
665.70        39.06867
666.13        39.29355
666.55        39.59835
666.98        39.84408
667.41        40.03127
667.83        40.21364
668.26        40.39002
668.69        40.56176
669.11        40.70424
669.54        40.77467
669.96        40.77492
670.39        40.72694
670.82        40.71722
671.24        40.84757
671.67        41.13092
672.09        41.58888
672.52        42.12334
672.94        42.25996
673.37        42.45333
673.80         42.3585
674.22        42.23154
674.65        42.23445
675.07        42.42216
675.50        42.72474
675.92         43.0732
676.35        43.33684
676.77        43.48374
677.20         43.5584
677.62        43.59756
678.05        43.66049
678.47        43.76521
678.90        43.88692
679.32        44.02172
679.75        44.20578
680.17        44.43794
680.60        44.65362
681.02        44.80337
681.45        45.08498
681.87        45.02036
682.30        45.00879
682.72         44.9581
683.15         44.9528
683.57        45.01865
684.00        45.13612
684.42        45.29276
684.85        45.45374
685.27        45.59803
685.70        45.72386
686.12        45.81582
686.54        45.92176
686.97        46.01868
687.39          46.041
687.82        45.99319
688.24        45.97802
688.66        46.00873
689.09        46.02501
689.51        46.05162
689.94         46.1887
690.36        46.45612
690.78        46.73731
691.21        46.91587
691.63        47.44235
692.06        47.11252
692.48        47.30064
692.90        47.62783
693.33        47.82923
693.75        47.89791
694.17        47.93624
694.60        47.98246
695.02        48.37641
695.44        48.43388
695.87        48.79421
696.29        49.14144
696.71        49.11787
697.14        48.82844
697.56        48.59374
697.98        48.79707
698.41        49.04305
698.83        48.93267
699.25        49.13982
699.68        49.45813
700.10        49.70388
700.52        49.81892
700.94        49.87767
701.37        49.90262
701.79         49.9893
702.21        50.14067
702.64         50.3279
703.06        50.50074
703.48        50.59136
703.90        50.59237
704.33         50.5337
704.75        50.47501
705.17        50.49833
705.59        50.62746
706.01          50.833
706.44        51.07998
706.86        51.32803
707.28        51.53751
707.70        51.72748
708.12        51.89524
708.55        52.00644
708.97        52.07175
709.39        52.15746
709.81        52.26273
710.23        52.34261
710.66        52.39825
711.08        52.47197
711.50        52.57576
711.92        52.71077
712.34        52.87521
712.76        53.09702
713.19        53.33461
713.61        53.38173
714.03        53.48975
714.45        53.43602
714.87        53.35587
715.29        53.31987
715.71        53.35286
716.13        53.44024
716.56        53.51589
716.98         53.5561
717.40        53.53961
717.82        53.41299
718.24        53.26561
718.66        53.43655
719.08        53.85361
719.50        54.01435
719.92        53.93713
720.34        54.05436
720.76         54.3759
721.19         54.6371
721.61        54.79047
722.03        54.88227
722.45        54.92962
722.87        54.79386
723.29        54.55259
723.71         54.7041
724.13        55.28312
724.55        54.95783
724.97        55.39614
725.39        55.42071
725.81        55.52868
726.23        55.53595
726.65        55.49965
727.07        55.55708
727.49        55.71366
727.91        55.94247
728.33        56.19832
728.75        56.40819
729.17        56.54408
729.59         56.6253
730.01         56.6803
730.43        56.75038
730.85        56.85075
731.27        56.97342
731.69        57.08911
732.10        57.16042
732.52        57.17458
732.94        57.13737
733.36        57.10294
733.78        57.13962
734.20        57.26484
734.62        57.51696
735.04        57.78456
735.46        57.79568
735.88        57.56192
736.30        57.33695
736.72        57.25205
737.13        57.28135
737.55        57.37948
737.97        57.82664
738.39        58.42818
738.81        58.17587
739.23        57.33974
739.65        57.64011
740.06        58.83855
740.48        59.18432
740.90         58.5957
741.32        58.05823
741.74        57.79029
742.16        57.69558
742.57        57.85307
742.99        58.26511
743.41        58.79725
743.83        59.21143
744.25        59.43306
744.67        59.51103
745.08        59.50062
745.50        59.46611
745.92        59.45056
746.34        59.41332
746.75        59.35952
747.17        59.30515
747.59        59.24434
748.01        59.23256
748.42        59.25211
748.84        59.12466
749.26        58.88076
749.68        58.87686
750.09        59.10167
750.51        59.03924
750.93        58.85027
751.35          59.411
751.76        60.53905
752.18        61.07354
752.60        60.89526
753.01        60.60117
753.43        60.35569
753.85        60.17696
754.27         60.1226
754.68        60.31124
755.10        60.41439
755.52        60.56194
755.93        60.66431
756.35        60.79437
756.77        60.89515
757.18        60.96791
757.60        61.04735
758.02        60.80462
758.43        60.42708
758.85        61.03661
759.26        62.41277
759.68        62.62448
760.10        61.62199
760.51        61.71596
760.93        61.30498
761.34        61.48505
761.76        61.64978
762.18        61.44117
762.59        60.98734
763.01        61.02921
763.42        61.59491
763.84        61.93105
764.26        61.93686
764.67         61.6743
765.09        61.33762
765.50        61.32543
765.92        61.60253
766.33         61.6206
766.75        61.34592
767.16        61.25064
767.58        61.39725
768.00        61.72091
768.41        62.13554
768.83        62.61325
769.24        62.94611
769.66        62.44748
770.07        61.42076
770.49         61.1896
770.90        61.73063
771.32        62.00496
771.73        61.93867
772.15        62.09066
772.56        62.46366
772.97        62.67275
773.39        62.70633
773.80        62.90606
774.22        63.19368
774.63        63.27002
775.05        63.11577
775.46        63.00693
775.88        62.94848
776.29        62.81496
776.70        62.65716
777.12        62.63255
777.53        62.77697
777.95        63.03308
778.36        63.30842
778.77        63.41491
779.19        63.32658
779.60        63.11524
780.02        62.89177
780.43        62.87636
780.84        63.12471
781.26        63.41714
781.67        63.73311
782.09        64.25626
782.50        64.79671
782.91        64.76103
783.33        64.21952
783.74        63.92763
784.15        63.93711
784.57        63.85632
784.98         63.7134
785.39        63.70204
785.81        63.84364
786.22         64.1492
786.63        64.50644
787.04        64.67324
787.46        64.61989
787.87         64.4002
788.28         64.1751
788.70        64.12788
789.11        64.27782
789.52        64.68448
789.93        65.17302
790.35        65.20173
790.76        64.84768
791.17        64.73738
791.58        64.92698
792.00        65.03656
792.41        65.06646
792.82        65.16731
793.23        65.33701
793.65        65.50564
794.06        65.71104
794.47        65.97076
794.88        66.12546
795.29         66.3007
795.71        65.75668
796.12        65.23963
796.53        64.71039
796.94        64.36108
797.35        64.32764
797.76        64.79054
798.18        65.53237
798.59        65.98341
799.00        65.99918
799.41         65.8112
799.82        65.57227
800.23        65.46747
800.64        65.56217
801.06        65.75763
801.47        66.01048
801.88        66.14456
802.29        66.10157
802.70        65.92871
803.11        65.70812
803.52        65.55907
803.93        65.52118
804.34        65.58228
804.75        65.68715
805.17        65.64671
805.58        65.44418
805.99        65.24831
806.40        65.26624
806.81        64.83475
807.22        65.77581
807.63        66.04437
808.04        66.12739
808.45        66.23373
808.86        66.34206
809.27        66.21303
809.68        65.92828
810.09        65.82147
810.50        65.94653
810.91        66.21184
811.32        66.49825
811.73        66.60781
812.14         66.4864
812.55        66.20312
812.96        65.87107
813.37        65.68032
813.78        65.69451
814.19        65.85723
814.60        66.07703
815.01        66.21997
815.42        66.25054
815.83        66.20618
816.24        66.14603
816.65        66.17497
817.05        66.32464
817.46        66.51987
817.87        66.71328
818.28        66.79494
818.69        66.74343
819.10        66.59216
819.51        66.41674
819.92        66.35309
820.33        66.43568
820.74        66.61063
821.14        66.80051
821.55        66.90697
821.96        66.89513
822.37        66.81952
822.78        66.69955
823.19         66.5669
823.60        66.45478
824.00        66.36589
824.41        66.34203
824.82        66.53043
825.23        66.93507
825.64        67.50046
826.04        68.10232
826.45        68.43173
826.86        68.43887
827.27        68.21042
827.68        67.83286
828.08        67.48371
828.49         67.2016
828.90        66.96088
829.31        66.84628
829.72        66.99006
830.12        67.42462
830.53        68.07343
830.94         68.7411
831.35        69.02648
831.75        68.83717
832.16        68.22228
832.57        67.46831
832.97        67.02174
833.38        67.00763
833.79        67.30771
834.20        67.71022
834.60        67.87245
835.01        67.72744
835.42        67.38734
835.82        67.04575
836.23        66.96064
836.64        67.21465
837.04        67.73705
837.45        68.29946
837.86        68.63512
838.26        68.66139
838.67        68.41856
839.08        68.06071
839.48        67.81392
839.89        67.73643
840.29        67.72578
840.70        67.72421
841.11        67.58149
841.51        67.29209
841.92        66.94851
842.33        66.58295
842.73        66.24806
843.14        65.95268
843.54        65.68872
843.95        65.62155
844.35        66.05517
844.76        66.96062
845.17        68.24702
845.57        69.53912
845.98        70.04011
846.38        69.60693
846.79        68.48337
847.19        67.09353
847.60        66.12712
848.00        65.77292
848.41         65.8173
848.81        66.18173
849.22        66.62164
849.62        67.06971
850.03        67.55873
850.43        67.98671
850.84        68.04751
851.24        67.73622
851.65        67.08173
852.05        66.33765
852.46         65.9475
852.86        65.98653
853.27        66.34054
853.67        66.78181
854.07        67.16963
854.48        67.39685
854.88        67.59155
855.29        67.59347
855.69        67.33513
856.10        66.74603
856.50         65.9381
856.90        65.15325
857.31        64.77858
857.71        64.92333
858.12         65.4558
858.52        66.22925
858.92        66.76719
859.33        66.88752
859.73         66.7344
860.13        66.43333
860.54        66.22627
860.94        66.22181
861.34        66.31848
861.75        66.40596
862.15        66.40947
862.55        66.25932
862.96        66.01404
863.36         65.7476
863.76        65.57482
864.17        65.51937
864.57        65.58125
864.97        65.64685
865.38        65.52207
865.78        65.21236
866.18        64.74342
866.58        64.31316
866.99        64.26225
867.39        64.66817
867.79        65.38421
868.19        66.12169
868.60        66.41434
869.00        66.17713
869.40        65.58396
869.80        64.85242
870.21        64.37466
870.61        64.31693
871.01        64.50559
871.41        64.89899
871.81        65.44856
872.22        66.07365
872.62        66.84686
873.02        67.56532
873.42        67.82468
873.82        67.54104
874.22        66.84765
874.63        66.09076
875.03        65.76973
875.43         66.0052
875.83        66.62669
876.23        67.44869
876.63        68.12903
877.03        68.53893
877.44        68.82157
877.84        68.90012
878.24        68.67989
878.64        68.19103
879.04        67.41616
879.44        66.69027
879.84        66.51967
880.24        66.94877
880.64        67.85917
881.04        68.72916
881.44        68.61836
881.84        67.36774
882.24        65.38318
882.65        63.38724
883.05        62.29282
883.45        62.34008
883.85        63.24788
884.25         64.6424
884.65        65.82407
885.05        66.48038
885.45        66.76501
885.85        66.81717
886.25        66.86626
886.65        66.98734
887.05        67.07143
887.45        67.02326
887.85        66.74057
888.25        66.22567
888.65         65.5683
889.04        64.94588
889.44        64.62577
889.84        64.65482
890.24        64.99315
890.64        65.44804
891.04        65.69486
891.44        65.65383
891.84        65.40032
892.24        65.18213
892.64        65.38841
893.04        66.09763
893.44        67.20102
893.83         68.3863
894.23        69.04607
894.63        69.05136
895.03        68.52509
895.43         67.8822
895.83        67.78764
896.23        68.37212
896.63        69.43372
897.02        70.45777
897.42        70.61516
897.82        69.76337
898.22        68.21571
898.62        66.57477
899.01        65.66458
899.41        65.67281
899.81        66.37372
900.21        67.31203
900.61        67.63717
901.00        67.10725
901.40        66.09171
901.80        65.09948
902.20        64.82199
902.59        65.41554
902.99        66.60785
903.39        68.06516
903.79        69.05061
904.18        69.26041
904.58        68.95663
904.98         68.4387
905.38        68.12666
905.77        68.12699
906.17        68.29646
906.57        68.57475
906.96        68.92579
907.36        69.24648
907.76        69.57652
908.15        69.82045
908.55         69.7137
908.95         69.2615
909.34        68.56123
909.74         67.7865
910.14        67.16276
910.53        66.77763
910.93        66.60175
911.33        66.67732
911.72         67.0731
912.12        67.73997
912.52        68.61322
912.91        69.51228
913.31        70.12456
913.70        70.38415
914.10        70.30098
914.49        69.98441
914.89        69.57701
915.29        69.19137
915.68        68.81888
916.08        68.51149
916.47        68.28506
916.87        68.17083
917.26        68.12523
917.66        68.19073
918.05        68.40392
918.45        68.71356
918.84        69.15277
919.24        69.44296
919.64        69.23312
920.03        68.48319
920.42         67.3224
920.82           66.21
921.21        65.65664
921.61        65.75841
922.00         66.4167
922.40         67.2717
922.79        67.76469
923.19         67.6827
923.58        67.22002
923.98        66.72452
924.37        66.68163
924.77        67.20203
925.16         68.1324
925.55        69.19186
925.95        69.86784
926.34        70.01872
926.74         69.7747
927.13        69.32473
927.52         68.9569
927.92        68.76138
928.31        68.62548
928.70        68.51749
929.10        68.37641
929.49        68.20069
929.89        68.06312
930.28        67.94082
930.67        67.72814
931.07        67.42242
931.46        67.06644
931.85        66.84479
932.24        67.09048
932.64         67.8172
933.03        68.95534
933.42        70.15647
933.82        70.85445
934.21        70.91542
934.60        70.48831
934.99        69.85216
935.39        69.42104
935.78        69.30704
936.17        69.35468
936.56        69.49941
936.96        69.64515
937.35        69.78109
937.74        69.96432
938.13        70.01544
938.53        69.61784
938.92        68.76791
939.31        67.65039
939.70        66.68497
940.09        66.53785
940.49        67.26063
940.88        68.59647
941.27        70.20388
941.66        71.46247
942.05        72.07015
942.44        72.24205
942.84        71.71172
943.23        70.08978
943.62        67.61935
944.01        64.63796
944.40        62.12936
944.79        61.34146
945.18        62.40103
945.57        65.00745
945.97         68.2701
946.36        70.55082
946.75        71.01311
947.14        70.08636
947.53        68.49813
947.92        67.49156
948.31        67.43599
948.70        67.86492
949.09         68.5409
949.48        69.10819
949.87         69.3863
950.26        69.59703
950.65        69.55585
951.04        68.89592
951.43        67.64577
951.82        65.93135
952.21        64.27198
952.60        63.46786
952.99        63.67851
953.38        64.70849
953.77        66.05885
954.16        66.84242
954.55         66.7783
954.94        66.07494
955.33        65.18255
955.72        64.85456
956.11        65.28693
956.50        66.24828
956.89        67.27583
957.28        67.63343
957.66        67.16531
958.05         66.1172
958.44         65.0151
958.83        64.67779
959.22        65.29502
959.61        66.58465
960.00        68.05905
960.39        68.86736
960.78        68.74311
961.16        67.97945
961.55        66.89366
961.94        65.96828
962.33        65.39222
962.72         64.9992
963.11        64.84175
963.49        65.04213
963.88        65.52364
964.27         66.3028
964.66        67.10069
965.04        67.43008
965.43        67.14027
965.82        66.40837
966.21        65.54822
966.60        65.11086
966.98        65.27312
967.37        65.83142
967.76         66.6428
968.15        67.45377
968.53        68.13466
968.92        68.68587
969.31        69.02649
969.69        69.00572
970.08        68.59003
970.47        67.86221
970.86        66.95995
971.24        66.11376
971.63        65.45053
972.02        65.02082
972.40         64.9565
972.79        65.39037
973.17        66.35637
973.56        67.65754
973.95        69.18986
974.33        70.84488
974.72         72.4457
975.11        74.00379
975.49        75.24983
975.88        75.54623
976.26        74.78429
976.65        73.13078
977.04        71.10037
977.42        69.34986
977.81         68.0889
978.19        67.14433
978.58        66.48372
978.96        65.82829
979.35        65.13138
979.74        64.47602
980.12        63.92421
980.51        63.43556
980.89        63.11481
981.28          62.968
981.66        63.02526
982.05        63.28716
982.43        63.74665
982.82        64.27729
983.20        65.04906
983.59        66.37077
983.97        68.30972
984.35        70.77714
984.74        72.90755
985.12        73.43859
985.51        71.95992
985.89        69.07644
986.28        66.00318
986.66        64.10673
987.04        63.78474
987.43        64.55441
987.81        66.09093
988.20        67.55898
988.58        68.60043
988.96        69.45919
989.35        69.80081
989.73        69.24439
990.12        67.80317
990.50        65.53201
990.88        63.28531
991.27        62.34565
991.65        62.97573
992.03        65.04478
992.42        67.48468
992.80        68.33054
993.18        66.79845
993.56        63.78378
993.95        60.91253
994.33        59.79281
994.71        60.80373
995.10        63.33903
995.48        66.77277
995.86        69.17877
996.24        69.61809
996.63        68.75432
997.01        67.26572
997.39        66.04547
997.77        65.39548
998.15        64.91264
998.54        64.79484
998.92        65.51456
999.30        67.08286
999.68        69.49589
1000.06        71.85436
1000.45        72.38541
1000.83        70.89832
1001.21        67.99001
1001.59        64.88147
1001.97        63.24393
1002.35        63.42424
1002.73            64.9
1003.12        67.29271
1003.50        69.92532
1003.88        72.27452
1004.26        74.54219
1004.64        76.26208
1005.02        76.76506
1005.40        75.92821
1005.78        73.62028
1006.16        70.80403
1006.54        69.20766
1006.92        69.26466
1007.30        70.78006
1007.69        72.24641
1008.07        70.88881
1008.45        66.49312
1008.83        60.64799
1009.21        55.60362
1009.59         53.6218
1009.97        54.86168
1010.35        58.75624
1010.73        64.17723
1011.11        68.20863
1011.49        69.29295
1011.86         67.8599
1012.24         65.6253
1012.62        65.39986
1013.00        68.05912
1013.38        73.10673
1013.76        78.77578
1014.14        80.48409
1014.52        77.04036
1014.90        71.20444
1015.28        65.89151
1015.66         63.4607
1016.04        63.97038
1016.41        66.78683
1016.79        71.31036
1017.17        76.37193
1017.55        80.62045
1017.93        84.31076
1018.31        85.78697
1018.69        82.76512
1019.06        76.04219
1019.44        67.90111
1019.82        61.21455
1020.20        58.27571
1020.58        58.75289
1020.95        62.00367
1021.33         66.8406
1021.71         69.9856
1022.09        69.75655
1022.46        66.85036
1022.84        63.29065
1023.22        61.50084
1023.60        62.10694
1023.97        64.96014
1024.35        68.65917
1024.73        69.16433
