SpectraSmart Spectrum 2.9.0.0
--------- Device Information -----------
Spectrum Name :  反射率_0
Saving Time :  2024/05/03 20:40:35
Spectro-Module Model Name : SE2030-DUVN
Spectro-Module Serial Number : OS361AC55029948
Wavelength Start : 200
Wavelength End : 1025
Wavelength Unit : Wavelength(nm)
Spectrum Unit : Reflectance(%)
-----------Spectrum Setting ------------
Integration Time : 20ms
Average : 10
Boxcar : 0
Background removal :  enabled
linearity correction :  enabled
SC :  disabled
Intensity correction :  disabled
DWT denoise :  enabled
savitzky-golay :  disabled
FFT :  disabled
Running average :  disabled
Kalman :  disabled
High pass :  disabled
---------------BEGIN--------------------
Wavelength(nm)             Reflectance(%)
200.29               0
200.75       -1.372288
201.21        28.81551
201.67       -1808.463
202.13       -66.55869
202.58       -23.04535
203.04        2.980487
203.50        20.31245
203.96        26.40105
204.42        19.66622
204.88       -19.82183
205.34        1469.712
205.80        185.0856
206.26        184.2507
206.72         25416.3
207.18       -17.33331
207.64        17.65082
208.10        25.86431
208.55        31.13035
209.01         24.5661
209.47       -38.92023
209.93        7.517394
210.39        12.42367
210.85        14.48147
211.31        17.43841
211.77        22.50556
212.23        34.43134
212.69        63.01251
213.14        75.22989
213.60        30.14319
214.06        5.290058
214.52       -4.286838
214.98       -9.175797
215.44        -14.4718
215.90       -31.58439
216.36        157.6785
216.81        4.225445
217.27       -30.23983
217.73       -109.3508
218.19       -520.7188
218.65       -10387.36
219.11       -581.4279
219.57       -59.62496
220.02        36.68792
220.48        90.91676
220.94       -9.003966
221.40        38.42631
221.86        48.02582
222.32        51.05866
222.77        51.68164
223.23        52.06672
223.69        51.64347
224.15        48.90142
224.61        45.40816
225.06        42.32768
225.52        41.96872
225.98        45.56821
226.44        53.21529
226.90        65.37897
227.36        80.40684
227.81        89.48277
228.27        87.11454
228.73        78.07242
229.19        67.51634
229.65        59.35328
230.10        53.81116
230.56        50.01913
231.02        47.70338
231.48        46.90409
231.93        47.21223
232.39        48.53059
232.85        50.10381
233.31        50.89644
233.77        50.73601
234.22        49.83507
234.68        48.83778
235.14        48.88165
235.60        50.29575
236.05        52.88159
236.51        55.82542
236.97        57.55677
237.43         57.4574
237.88        56.15088
238.34        54.60619
238.80        53.91539
239.26        54.41926
239.71         57.9352
240.17        62.39418
240.63        68.21705
241.08        70.84443
241.54        68.44431
242.00        64.39433
242.46        63.19323
242.91        66.04484
243.37        73.14204
243.83        85.30431
244.28        93.71755
244.74        82.77127
245.20        57.75918
245.66        34.18425
246.11        21.50566
246.57        18.25403
247.03         20.2662
247.48        23.89233
247.94        25.46057
248.40        24.61202
248.85        22.13293
249.31        19.36118
249.77         18.4947
250.22        19.99338
250.68        22.57454
251.14        25.23504
251.59        27.76968
252.05        30.80962
252.51        35.25624
252.96        42.58444
253.42        53.06618
253.88        63.13439
254.33        69.68819
254.79        71.03092
255.25        67.34779
255.70        61.88039
256.16        57.17588
256.62        54.32322
257.07        53.99629
257.53        55.72687
257.99        58.22266
258.44        60.14825
258.90        60.57776
259.35        59.23955
259.81        57.31175
260.27        55.26439
260.72         53.5801
261.18         52.6379
261.63        52.00087
262.09        51.60194
262.55        51.02558
263.00        50.17405
263.46        49.21035
263.91        48.37451
264.37        48.27642
264.83        48.81795
265.28        49.69977
265.74        50.37391
266.19        49.88126
266.65        48.31625
267.11        45.99819
267.56        43.63106
268.02        42.28841
268.47        42.07841
268.93          42.673
269.38        43.45736
269.84        43.39132
270.30         42.2662
270.75        40.49707
271.21        38.67717
271.66        37.52024
272.12        37.18524
272.57        37.33941
273.03        37.72031
273.48        37.95184
273.94        37.88518
274.39        37.64496
274.85        37.20565
275.31        36.41089
275.76        35.31366
276.22        34.06549
276.67        32.90638
277.13        32.28745
277.58        32.17505
278.04        32.43814
278.49        32.78653
278.95        32.81705
279.40        32.39004
279.86        31.73318
280.31        30.93203
280.77        30.22008
281.22        29.58061
281.68        28.99605
282.13        28.44465
282.59        27.98951
283.04        27.61703
283.50        27.34978
283.95        27.13006
284.41        26.89531
284.86        26.61335
285.32        26.32943
285.77        26.05369
286.22         25.8679
286.68        25.78835
287.13        25.74751
287.59        25.73435
288.04        25.68179
288.50        25.59508
288.95        25.47484
289.41        25.32672
289.86        25.11399
290.32        24.87017
290.77        24.59225
291.22        24.36185
291.68        24.28244
292.13        24.36044
292.59        24.59697
293.04        24.90051
293.50        25.13543
293.95        25.26371
294.40        25.32699
294.86        25.44771
295.31        25.80702
295.77        26.43292
296.22        27.25009
296.68        28.09893
297.13        28.71533
297.58        29.01593
298.04        29.09502
298.49         29.0651
298.95        29.13651
299.40        29.35159
299.85        29.65687
300.31        30.02208
300.76        30.37244
301.21        30.69227
301.67         31.0142
302.12         31.3123
302.58        31.56015
303.03         31.7402
303.48         31.8609
303.94         31.9805
304.39        32.13903
304.84        32.36243
305.30        32.63026
305.75         32.8849
306.20        33.06768
306.66        33.17542
307.11        33.21263
307.57         33.2196
308.02        33.19218
308.47        33.15973
308.93        33.12441
309.38        33.09465
309.83        33.12193
310.29        33.20831
310.74        33.32711
311.19        33.43419
311.65        33.45477
312.10        33.36078
312.55         33.1729
313.00        32.92647
313.46        32.68095
313.91        32.44731
314.36         32.2304
314.82         32.0206
315.27        31.78886
315.72        31.54295
316.18        31.29866
316.63        31.09532
317.08        30.99437
317.53        31.00006
317.99        31.08063
318.44        31.17834
318.89        31.18551
319.35        31.06902
319.80        30.85381
320.25        30.58458
320.70        30.34087
321.16         30.1403
321.61        29.96639
322.06        29.78675
322.51        29.55255
322.97        29.25488
323.42        28.92797
323.87        28.60318
324.32        28.32864
324.78         28.1141
325.23        27.94923
325.68        27.81345
326.13        27.67776
326.59        27.52018
327.04        27.36608
327.49        27.20275
327.94        27.02041
328.39        26.81947
328.85        26.59131
329.30        26.37076
329.75        26.19341
330.20        26.06816
330.66        25.97651
331.11        25.90204
331.56        25.77815
332.01        25.59286
332.46        25.37078
332.92        25.13131
333.37        24.94149
333.82        24.80942
334.27        24.71298
334.72         24.6599
335.17        24.66265
335.63        24.70344
336.08        24.79319
336.53        24.85998
336.98        24.79635
337.43        24.58487
337.88        24.25744
338.34        23.90737
338.79        23.69319
339.24        23.65473
339.69        23.74908
340.14        23.89685
340.59        23.96589
341.05        23.91503
341.50        23.78385
341.95         23.6197
342.40        23.50254
342.85        23.45529
343.30        23.44938
343.75        23.44689
344.20        23.39278
344.66        23.28332
345.11        23.13951
345.56        23.00395
346.01        22.93358
346.46        22.94229
346.91        23.00821
347.36        23.10098
347.81        23.17606
348.26        23.21567
348.72        23.22812
349.17        23.21857
349.62        23.20333
350.07        23.18627
350.52        23.16126
350.97        23.11391
351.42         23.0253
351.87         22.8945
352.32        22.72964
352.77        22.56221
353.22        22.44007
353.67         22.3747
354.13        22.36247
354.58        22.35387
355.03        22.28977
355.48         22.1614
355.93        21.99192
356.38        21.83118
356.83        21.75683
357.28        21.78347
357.73        21.88165
358.18        22.00223
358.63        22.06679
359.08        22.05093
359.53        21.97548
359.98        21.86699
360.43        21.77012
360.88        21.69509
361.33        21.62054
361.78        21.53556
362.23        21.42396
362.68        21.28342
363.13        21.13214
363.58        20.96361
364.03        20.76585
364.48        20.54604
364.93        20.30881
365.38        20.10261
365.83        19.99882
366.28        20.00609
366.73        20.10574
367.18        20.21898
367.63        20.21725
368.08        20.07143
368.53        19.81426
368.98        19.53926
369.43        19.39274
369.88        19.40312
370.33        19.52521
370.78         19.6585
371.23        19.63448
371.68        19.41275
372.13         19.0533
372.58        18.66222
373.03        18.39706
373.48        18.29667
373.93        18.31233
374.38        18.37017
374.83        18.34936
375.28        18.21436
375.72        17.99983
376.17        17.77608
376.62        17.60948
377.07        17.51697
377.52        17.47413
377.97        17.44448
378.42        17.37591
378.87        17.25858
379.32        17.11283
379.77        16.98175
380.22        16.92198
380.67        16.94067
381.11        17.02315
381.56        17.10758
382.01        17.10452
382.46        16.99241
382.91        16.79692
383.36        16.58919
383.81        16.47342
384.26        16.46728
384.71        16.54005
385.15        16.61037
385.60        16.56456
386.05        16.37622
386.50        16.09084
386.95        15.80028
387.40        15.63972
387.85        15.63532
388.29         15.7321
388.74        15.86127
389.19        15.88912
389.64        15.78886
390.09        15.59854
390.54         15.3943
390.98        15.28283
391.43        15.29274
391.88         15.4084
392.33        15.54679
392.78        15.51398
393.23        15.33472
393.67        15.20734
394.12         15.1646
394.57        15.09246
395.02        14.99886
395.47        14.94761
395.91        14.93891
396.36        14.92602
396.81        14.91258
397.26        14.91847
397.71        14.91975
398.15        14.89718
398.60        14.87008
399.05        14.75337
399.50        14.60822
399.95         14.6925
400.39        14.94141
400.84         14.9176
401.29        14.64091
401.74        14.50045
402.18        14.51517
402.63        14.47601
403.08        14.39523
403.53        14.27356
403.97        14.31776
404.42        14.32803
404.87        14.35106
405.32        14.35957
405.76         14.3429
406.21        14.31275
406.66        14.26278
407.11        14.18794
407.55        14.09527
408.00        13.98486
408.45        13.87671
408.90        13.80438
409.34        13.77736
409.79         13.7835
410.24        13.81374
410.68        13.85108
411.13        13.88842
411.58        13.92992
412.03        13.95218
412.47        13.91893
412.92        13.82358
413.37        13.68145
413.81        13.53803
414.26        13.47182
414.71        13.48843
415.15        13.57566
415.60        13.67671
416.05        13.70206
416.49        13.62844
416.94        13.48865
417.39        13.34048
417.83        13.26748
418.28        13.28636
418.73        13.36289
419.17        13.45975
419.62        13.50845
420.07        13.48799
420.51        13.42051
420.96        13.32306
421.41        13.20863
421.85         13.0844
422.30        12.95791
422.74         12.8422
423.19        12.79571
423.64        12.81246
424.08        12.86386
424.53        12.91779
424.98        12.97253
425.42        13.02186
425.87        13.02081
426.31        12.98892
426.76        13.04042
427.21         13.1423
427.65        13.10686
428.10        12.96381
428.54        12.89645
428.99         12.9227
429.44        13.01866
429.88        13.11124
430.33        13.01295
430.77         12.7834
431.22        12.71248
431.66        12.81147
432.11        12.94229
432.56        13.04801
433.00        13.09836
433.45         13.0009
433.89        12.86291
434.34        12.32019
434.78        12.30503
435.23        12.69832
435.67         12.8242
436.12        12.67661
436.57        12.62541
437.01        12.69211
437.46        12.70885
437.90        12.67416
438.35        12.63638
438.79        12.59793
439.24        12.55354
439.68        12.51305
440.13        12.50941
440.57        12.52476
441.02        12.51465
441.46        12.47054
441.91        12.40078
442.35        12.31876
442.80         12.3308
443.24        12.39963
443.69        12.38036
444.13        12.27716
444.58        12.22581
445.02        12.23238
445.47        12.21985
445.91        12.19423
446.36        12.20971
446.80        12.26217
447.24        12.33317
447.69        12.40543
448.13        12.45114
448.58        12.46253
449.02        12.44675
449.47        12.40777
449.91        12.34495
450.36        12.26812
450.80        12.17834
451.25        12.09659
451.69         12.0505
452.13        12.04607
452.58        12.07617
453.02        12.11996
453.47        12.14825
453.91        12.15168
454.36         12.1381
454.80         12.1118
455.24        12.09829
455.69        12.10824
456.13        12.08973
456.58        12.04807
457.02        12.13433
457.46        12.15239
457.91        12.14334
458.35        12.06216
458.79        12.05242
459.24        12.10075
459.68         12.0633
460.13        11.97461
460.57        11.94687
461.01        11.99389
461.46        12.05547
461.90        12.10405
462.34        12.10884
462.79        12.05868
463.23        11.96395
463.68        11.86764
464.12        11.82796
464.56        11.85693
465.01        11.96773
465.45        12.09632
465.89        12.11508
466.34        12.04629
466.78        12.02737
467.22        12.07963
467.67        12.12837
468.11        12.16681
468.55         12.1944
468.99        12.20156
469.44        12.19111
469.88        12.16313
470.32        12.10069
470.77        12.02707
471.21        11.99792
471.65         12.0222
472.10        12.08313
472.54        12.15593
472.98        12.20906
473.42        12.23201
473.87        12.23773
474.31        12.22836
474.75        12.21921
475.20        12.22016
475.64        12.22011
476.08        12.21653
476.52        12.22389
476.97        12.24588
477.41        12.24762
477.85         12.2214
478.29        12.38734
478.74        12.33237
479.18         12.4721
479.62        12.64708
480.06        12.73753
480.50        12.72648
480.95        12.68395
481.39        12.63934
481.83        12.62212
482.27        12.65253
482.72        12.73469
483.16        12.83953
483.60        12.92904
484.04        13.00498
484.48        13.00776
484.93        13.01095
485.37        13.22857
485.81        13.62821
486.25        13.64266
486.69        13.68868
487.14         13.4477
487.58        13.98319
488.02        13.65441
488.46        14.07258
488.90        13.92057
489.34        13.65434
489.79         13.6751
490.23        13.96218
490.67        14.29373
491.11        14.55221
491.55        14.58776
491.99        14.45045
492.43        14.46626
492.88        14.65629
493.32         14.8004
493.76        14.86996
494.20        14.94797
494.64        15.03646
495.08        15.11192
495.52        15.18942
495.96        15.30598
496.41        15.46279
496.85         15.6197
497.29        15.76886
497.73        15.95395
498.17        16.13913
498.61        16.21628
499.05        16.19159
499.49        16.13984
499.93        16.11238
500.37         16.1844
500.82        16.34431
501.26        16.47522
501.70        16.56362
502.14        16.68928
502.58        16.84233
503.02        16.96035
503.46         17.0361
503.90        17.08812
504.34        17.12029
504.78        17.14054
505.22        17.15726
505.66        17.16562
506.10        17.17208
506.54         17.2261
506.98        17.33834
507.42        17.42744
507.86        17.45601
508.30        17.74328
508.74        17.66027
509.18        17.71454
509.62         17.7363
510.06        17.76975
510.50        17.81779
510.94        17.87588
511.38        17.93773
511.82        17.97504
512.26        17.98458
512.70        17.97932
513.14        17.96588
513.58        17.95387
514.02        17.94769
514.46         17.9409
514.90        17.94544
515.34        17.98021
515.78        18.04569
516.22        18.13926
516.66        18.22632
517.10        18.25143
517.54        18.20704
517.98        18.10915
518.42        18.01006
518.86        17.99439
519.30        18.07766
519.74        18.23069
520.18         18.3952
520.62        18.47575
521.06        18.44668
521.50        18.33839
521.93        18.19375
522.37        18.08313
522.81        18.02737
523.25        18.00533
523.69         17.9991
524.13        17.98049
524.57        17.94202
525.01        17.89955
525.45        17.85899
525.89        17.82594
526.32        17.80206
526.76         17.7827
527.20        17.77227
527.64        17.78178
528.08        17.80913
528.52        17.84877
528.96        17.87993
529.40        17.87058
529.83        17.81163
530.27        17.71542
530.71        17.60389
531.15        17.51388
531.59        17.45462
532.03        17.41857
532.46        17.38615
532.90        17.32582
533.34        17.23609
533.78        17.13577
534.22        17.04736
534.66        17.00074
535.09        16.99837
535.53        17.02818
535.97        17.07883
536.41        17.12037
536.85        17.14059
537.28        17.19075
537.72        17.25323
538.16        17.19159
538.60        17.05923
539.04        17.09716
539.47        17.27617
539.91        17.35312
540.35        17.31714
540.79        17.31625
541.22        17.35446
541.66        17.38429
542.10        17.41124
542.54        17.42454
542.97        17.44816
543.41        17.58807
543.85        17.81653
544.29        17.98728
544.72        18.08248
545.16        18.20469
545.60        18.34834
546.04        18.45029
546.47        18.52243
546.91        18.61897
547.35        18.74608
547.79        18.89418
548.22         19.0548
548.66        19.21407
549.10        19.37376
549.53        19.58421
549.97        19.82043
550.41        19.99509
550.84        20.09384
551.28        20.16053
551.72        20.21341
552.15        20.26742
552.59        20.34462
553.03        20.43358
553.46        20.53305
553.90        20.66863
554.34        20.82799
554.77        20.98294
555.21        21.12988
555.65        21.27895
556.08        21.42187
556.52        21.55173
556.96        21.65512
557.39        21.73327
557.83        21.79517
558.27        21.81138
558.70        21.81333
559.14        21.90311
559.57        22.06242
560.01        22.18798
560.45        22.25771
560.88        22.31224
561.32         22.3594
561.75        22.36887
562.19        22.37741
562.63        22.38255
563.06        22.40377
563.50        22.58314
563.93        22.85522
564.37         22.8855
564.80        22.72837
565.24        22.83208
565.68        23.14919
566.11        23.29358
566.55        23.25908
566.98        23.23398
567.42        23.25985
567.85        23.39266
568.29        23.48202
568.72        23.63908
569.16        23.82084
569.60        23.99013
570.03        24.12939
570.47         24.2935
570.90        24.49047
571.34        24.47511
571.77        24.92674
572.21        24.82043
572.64        25.06147
573.08        24.99314
573.51        25.52008
573.95        25.55172
574.38        25.40265
574.82        25.26781
575.25        25.79081
575.69        25.90809
576.12        25.85234
576.56        25.75715
576.99        25.87976
577.42        26.27686
577.86         25.7902
578.29         26.0161
578.73        25.96734
579.16         26.0031
579.60        25.85462
580.03        25.80874
580.47        25.89544
580.90        25.53831
581.33        25.22684
581.77        25.61163
582.20         25.7655
582.64        25.51075
583.07        25.33422
583.51        25.00444
583.94        24.86289
584.37        24.76029
584.81        24.71897
585.24        24.54719
585.68        24.72441
586.11        24.21791
586.54        24.38866
586.98        24.21093
587.41        24.06371
587.85        24.15079
588.28        24.26198
588.71        24.20665
589.15        24.02477
589.58        24.15488
590.01        23.92669
590.45        23.83849
590.88        23.72113
591.31        23.77942
591.75         23.9898
592.18        24.02085
592.61        23.85141
593.05        24.09208
593.48        24.51462
593.91        24.14267
594.35        24.34116
594.78        24.36598
595.21        24.61674
595.65         24.6375
596.08        24.43397
596.51        24.83268
596.94        24.98218
597.38        25.21568
597.81        25.21502
598.24        25.62484
598.68        26.04452
599.11        25.69061
599.54         26.6762
599.97        26.51708
600.41        26.87975
600.84         27.0998
601.27        27.51607
601.70         27.5788
602.14        27.98271
602.57        28.41729
603.00        29.01275
603.43        29.35112
603.87        29.46192
604.30        29.79085
604.73        30.37028
605.16        30.55159
605.60         30.6882
606.03        31.06342
606.46        31.76881
606.89        31.81982
607.32        32.52344
607.76        32.81674
608.19        33.07153
608.62        33.54778
609.05        33.74402
609.48        34.07869
609.92        34.46828
610.35        34.65513
610.78        35.56448
611.21        35.93495
611.64         36.2145
612.07        36.40591
612.50        36.61289
612.94        36.77559
613.37        36.92362
613.80        37.15091
614.23         37.4091
614.66        37.54661
615.09        37.94342
615.52        38.21279
615.96        38.44652
616.39        38.80103
616.82        39.09294
617.25        39.14725
617.68        39.65815
618.11        39.58366
618.54         39.3089
618.97        39.44574
619.40        40.00234
619.84        40.42629
620.27        40.62877
620.70        40.88278
621.13        41.16562
621.56        41.06039
621.99        40.90952
622.42        40.99024
622.85        41.33775
623.28        41.41081
623.71        41.43472
624.14        41.32502
624.57        41.07686
625.00        41.16231
625.43        41.17216
625.86        41.21193
626.29        41.07639
626.72        41.41985
627.15        41.07056
627.58         40.9557
628.01        40.75407
628.44        40.52311
628.87        40.27141
629.30        40.01119
629.73        39.75097
630.16        39.47065
630.59        39.17341
631.02        38.86309
631.45        38.56388
631.88        38.31276
632.31        38.10806
632.74        37.93058
633.17        37.72485
633.60        37.40273
634.03        36.94938
634.46         36.4004
634.89        35.81397
635.32        35.28192
635.75        34.83433
636.18        34.44712
636.61         34.1035
637.04        33.77468
637.47        33.44772
637.89        33.12688
638.32        32.78747
638.75        32.44164
639.18          32.099
639.61        31.63256
640.04        31.30656
640.47        30.97052
640.90        30.70645
641.33        30.49988
641.76        30.34544
642.18        30.23186
642.61        30.13963
643.04        30.07612
643.47        30.03368
643.90        29.99918
644.33        29.96879
644.76        29.94901
645.18        29.94912
645.61        29.94811
646.04        29.94637
646.47        30.01568
646.90        30.19281
647.33        30.17391
647.75        30.53257
648.18        30.79736
648.61        31.11541
649.04        31.43802
649.47         31.7673
649.89        32.10613
650.32        32.43747
650.75        32.83616
651.18        33.29498
651.61        33.61437
652.03        33.85926
652.46        34.47919
652.89        35.32302
653.32        35.63784
653.74        35.63713
654.17        35.78587
654.60        36.10091
655.03        37.43523
655.46        37.45371
655.88        37.82489
656.31        40.16533
656.74        43.75282
657.16          41.143
657.59        39.11403
658.02        39.94646
658.45        41.10615
658.87        41.57178
659.30        41.26042
659.73        41.42343
660.15        41.88527
660.58        42.09563
661.01        42.42989
661.44        42.58479
661.86        42.72626
662.29        42.87244
662.72        43.11966
663.14        43.47135
663.57        43.65668
664.00        43.72964
664.42        44.03485
664.85        44.55282
665.27        44.91802
665.70        45.09064
666.13        45.29428
666.55           45.53
666.98        45.65108
667.41        45.70567
667.83        45.83341
668.26        46.04847
668.69        46.32805
669.11         46.6027
669.54        46.73922
669.96        46.71408
670.39        46.62106
670.82        46.57455
671.24        46.60619
671.67         46.8007
672.09        47.42001
672.52        48.27661
672.94        48.53907
673.37        48.62703
673.80        48.32345
674.22        47.98491
674.65        47.94294
675.07        48.26085
675.50        48.69231
675.92        49.11869
676.35        49.45097
676.77        49.63746
677.20        49.67276
677.62        49.63235
678.05        49.67159
678.47        49.82249
678.90        50.03059
679.32        50.25806
679.75        50.47417
680.17         50.6565
680.60        50.81327
681.02        50.92203
681.45        51.08152
681.87         50.8212
682.30        51.00831
682.72        51.41729
683.15        51.39996
683.57        51.06017
684.00        51.19548
684.42        51.74731
684.85        52.01467
685.27        51.95848
685.70        51.89101
686.12        51.86837
686.54        52.01083
686.97        52.25933
687.39        52.31448
687.82        52.16724
688.24        52.12059
688.66        52.19008
689.09        52.18137
689.51        52.13658
689.94        52.26496
690.36        52.59891
690.78         52.9628
691.21        53.21367
691.63        53.86832
692.06        53.55475
692.48        53.73302
692.90        53.99974
693.33        54.14026
693.75        54.15903
694.17         54.1727
694.60        54.19714
695.02        54.50698
695.44        54.37703
695.87        54.72605
696.29        55.21638
696.71        55.32257
697.14        55.05121
697.56        54.82605
697.98        54.76591
698.41        54.78456
698.83        54.89267
699.25        55.19078
699.68        55.57568
700.10        55.87979
700.52        56.03135
700.94        56.07874
701.37        56.05969
701.79        56.06162
702.21        56.10325
702.64        56.16013
703.06        56.20911
703.48        56.25223
703.90        56.30155
704.33         56.3182
704.75        56.31326
705.17        56.60207
705.59        56.67687
706.01        56.91631
706.44        57.16272
706.86        57.40903
707.28        57.61221
707.70        57.87884
708.12        58.14571
708.55        58.06024
708.97        57.72454
709.39        57.72144
709.81        58.04005
710.23         58.1644
710.66        58.07444
711.08         58.1037
711.50        58.25441
711.92        58.39183
712.34        58.51077
712.76        58.64064
713.19        58.76048
713.61        58.88715
714.03         58.9927
714.45        59.06771
714.87        59.10967
715.29        59.12222
715.71        59.10798
716.13        59.06995
716.56        59.00731
716.98        58.97264
717.40        58.96011
717.82        58.98692
718.24        59.05249
718.66        59.08035
719.08        59.19542
719.50        59.26393
719.92        59.32669
720.34        59.47248
720.76        59.72254
721.19        59.71354
721.61        60.00517
722.03        60.04914
722.45        60.04098
722.87        59.84732
723.29         59.5582
723.71        59.71078
724.13        60.33477
724.55        59.97609
724.97        60.44388
725.39        60.44207
725.81        60.51146
726.23        60.45442
726.65        60.34564
727.07        60.35425
727.49        60.49042
727.91        60.71941
728.33        60.98511
728.75        61.19581
729.17        61.32111
729.59        61.38435
730.01        61.40165
730.43         61.4677
730.85        61.61234
731.27        61.67696
731.69        61.60608
732.10        62.03595
732.52        61.81073
732.94        61.84039
733.36        61.81516
733.78        61.76645
734.20        61.70461
734.62        61.78257
735.04        61.92939
735.46         61.7692
735.88        61.41987
736.30        61.38457
736.72        61.72087
737.13        62.20827
737.55        62.61362
737.97        62.81786
738.39        62.79572
738.81        62.33554
739.23        61.75925
739.65        62.22561
740.06        63.40104
740.48        63.74106
740.90        63.14259
741.32        62.44302
741.74        61.91204
742.16        61.84913
742.57        61.92266
742.99        62.49244
743.41        63.21365
743.83        63.64765
744.25        63.73363
744.67         63.7418
745.08         63.7734
745.50        63.82905
745.92        63.92427
746.34        63.94249
746.75        63.86171
747.17        63.78209
747.59        63.69787
748.01        63.53136
748.42        63.35379
748.84         63.2892
749.26        63.32065
749.68         63.5133
750.09        63.79528
750.51        63.63042
750.93        63.22014
751.35        63.71798
751.76        64.95985
752.18        65.17144
752.60        64.89178
753.01        64.51167
753.43        64.10957
753.85        63.96846
754.27        64.05318
754.68        64.42669
755.10         64.9091
755.52        65.00426
755.93        64.80193
756.35        64.90659
756.77        65.21347
757.18        65.35326
757.60         65.3992
758.02        64.62022
758.43        64.39644
758.85        65.07755
759.26        66.35483
759.68        66.59108
760.10        65.65679
760.51        65.75844
760.93         65.8904
761.34        65.67782
761.76        66.18557
762.18        65.55492
762.59        64.56988
763.01        64.53004
763.42        65.87871
763.84        66.27438
764.26        65.73679
764.67        65.43787
765.09        64.95262
765.50        65.29005
765.92        66.10365
766.33        65.92788
766.75        64.71045
767.16        65.36838
767.58        65.39589
768.00        65.85666
768.41        65.97724
768.83        66.53281
769.24        67.23486
769.66        67.18945
770.07        66.48026
770.49        65.59997
770.90        64.87015
771.32        65.00809
771.73        65.87396
772.15        66.35439
772.56        66.38554
772.97        66.56844
773.39        66.90308
773.80        67.30983
774.22        67.62343
774.63        67.44466
775.05        66.86177
775.46        66.54736
775.88        66.56354
776.29        66.58987
776.70        66.57496
777.12        66.59342
777.53        66.63837
777.95        66.66645
778.36        66.70054
778.77         66.7172
779.19        66.72839
779.60         66.8234
780.02         66.9497
780.43        66.94293
780.84        66.89157
781.26        66.91351
781.67         67.1082
782.09        67.74741
782.50        68.56967
782.91        68.64108
783.33        68.01015
783.74        67.71986
784.15        67.80428
784.57        67.67848
784.98        67.40799
785.39        67.28113
785.81        67.31013
786.22        67.85326
786.63        68.03843
787.04        68.23451
787.46         68.1869
787.87        67.96585
788.28         67.7178
788.70        67.64782
789.11        67.79771
789.52        68.12888
789.93        68.49831
790.35        68.68777
790.76        68.66774
791.17        68.40086
791.58        68.08159
792.00        68.19534
792.41        68.70871
792.82        69.10244
793.23        69.22486
793.65        69.21797
794.06        69.28466
794.47        69.47369
794.88        69.49129
795.29        70.74342
795.71        69.32513
796.12        68.92489
796.53        68.57204
796.94        68.15919
797.35        67.86948
797.76        68.41541
798.18        69.55712
798.59        70.15883
799.00        70.03718
799.41        69.71479
799.82         69.3853
800.23        69.17874
800.64        69.17859
801.06        69.29259
801.47        69.49891
801.88        69.65434
802.29          69.701
802.70        69.67548
803.11        69.60029
803.52        69.50101
803.93        69.40648
804.34        69.32052
804.75        69.23273
805.17        69.18481
805.58        69.22123
805.99        69.14095
806.40        69.03906
806.81        69.47302
807.22        70.23209
807.63        70.36869
808.04        69.91035
808.45        69.70792
808.86        69.82015
809.27          69.729
809.68        69.44695
810.09        69.26991
810.50        69.22108
810.91        69.21648
811.32        69.27097
811.73        69.34918
812.14        69.42191
812.55        69.66728
812.96        69.97854
813.37        69.75596
813.78        69.16104
814.19        69.15761
814.60        69.67561
815.01        69.83855
815.42        69.61899
815.83         69.5285
816.24        69.62315
816.65        69.73174
817.05        69.85098
817.46        69.97559
817.87        70.10788
818.28        70.20781
818.69        70.28076
819.10        70.34048
819.51        70.35765
819.92        70.38684
820.33        70.45108
820.74        70.24942
821.14        69.91682
821.55        70.35322
821.96        71.27079
822.37        71.10723
822.78        69.96813
823.19        69.49515
823.60         69.8379
824.00        70.05697
824.41        70.05684
824.82        70.22595
825.23        70.54377
825.64        70.89479
826.04        71.25056
826.45        71.46989
826.86        71.54906
827.27        71.52383
827.68        71.41948
828.08        71.31767
828.49         71.2033
828.90        71.04568
829.31        70.92854
829.72        71.02844
830.12        71.39232
830.53        71.89271
830.94        72.40983
831.35        72.69456
831.75        72.68172
832.16        72.38485
832.57        71.94461
832.97        71.56533
833.38        71.32658
833.79        71.18767
834.20        71.11509
834.60        71.04209
835.01        70.96854
835.42        70.92976
835.82        70.96405
836.23        71.07487
836.64        71.27527
837.04        71.56237
837.45        71.84966
837.86        72.12688
838.26        72.37674
838.67         72.5448
839.08         72.6095
839.48        72.52322
839.89        72.28317
840.29        71.88874
840.70        71.43994
841.11        71.01804
841.51         70.6853
841.92        70.46646
842.33         70.3121
842.73        70.13658
843.14        69.89331
843.54         69.6135
843.95        69.50996
844.35        69.95977
844.76        70.94966
845.17        72.36401
845.57        73.76822
845.98        74.26175
846.38        73.69369
846.79        72.35974
847.19        70.78188
847.60        69.79533
848.00        69.61233
848.41        69.95439
848.81        70.67691
849.22        71.42065
849.62        72.06581
850.03        72.66622
850.43        73.08866
850.84        72.96977
851.24        72.32501
851.65        71.21626
852.05         70.0181
852.46        69.37543
852.86        69.41513
853.27        69.96211
853.67         70.7018
854.07        71.38913
854.48        71.87733
854.88        72.32241
855.29         72.5247
855.69        72.35439
856.10         71.7098
856.50        70.71423
856.90        69.66515
857.31        69.04445
857.71        68.99408
858.12         69.3729
858.52        70.03808
858.92        70.49799
859.33        70.57029
859.73        70.41628
860.13        70.15868
860.54        70.03103
860.94        70.13051
861.34        70.33475
861.75        70.51949
862.15        70.59911
862.55        70.49363
862.96        70.26778
863.36        69.97349
863.76        69.69019
864.17        69.45171
864.57        69.28104
864.97        69.14069
865.38        68.95515
865.78        68.75027
866.18        68.50853
866.58        68.34911
866.99        68.46999
867.39        68.90115
867.79        69.53748
868.19        70.11255
868.60        70.19923
869.00        69.73695
869.40        68.88097
869.80        67.91123
870.21        67.33128
870.61        67.32716
871.01        67.70493
871.41        68.31249
871.81        68.92313
872.22        69.43056
872.62        69.97026
873.02        70.45467
873.42        70.70263
873.82         70.6794
874.22          70.395
874.63        70.10592
875.03        70.19424
875.43        70.72294
875.83        71.55698
876.23        72.40193
876.63        72.73617
877.03        72.44522
877.44        71.76437
877.84        70.88565
878.24        70.14771
878.64        69.67825
879.04        69.32244
879.44        69.20532
879.84        69.51632
880.24        70.21753
880.64        71.29924
881.04        72.26031
881.44        72.19653
881.84        70.97752
882.24        68.95474
882.65        66.96075
883.05        66.09713
883.45        66.61384
883.85        68.17536
884.25        70.19277
884.65        71.56225
885.05        71.87711
885.45        71.45161
885.85        70.66347
886.25        70.09461
886.65        69.93073
887.05        69.96697
887.45        70.07451
887.85        70.08415
888.25        69.93395
888.65        69.72157
889.04        69.51988
889.44        69.43339
889.84        69.47806
890.24        69.64538
890.64        69.83308
891.04        69.88918
891.44        69.79271
891.84        69.57641
892.24        69.45503
892.64        69.76289
893.04        70.54707
893.44        71.70586
893.83        72.91776
894.23        73.54864
894.63        73.46635
895.03        72.81046
895.43        71.97742
895.83        71.60507
896.23        71.84877
896.63        72.53825
897.02        73.27586
897.42        73.41598
897.82        72.83229
898.22        71.75037
898.62        70.63486
899.01        70.11536
899.41        70.33855
899.81         71.1482
900.21        72.10018
900.61        72.37467
901.00        71.75758
901.40         70.5872
901.80         69.4856
902.20        69.31586
902.59          70.244
902.99        71.96359
903.39        73.91918
903.79        74.92239
904.18        74.57108
904.58        73.32574
904.98        71.81348
905.38        70.88506
905.77        70.73033
906.17        71.07258
906.57        71.72271
906.96        72.41985
907.36        72.96983
907.76        73.49243
908.15        73.87685
908.55         73.8269
908.95        73.35081
909.34        72.50708
909.74        71.57352
910.14        70.96038
910.53        70.77342
910.93        70.93668
911.33        71.31758
911.72        71.68891
912.12        71.95827
912.52        72.18548
912.91         72.4025
913.31        72.62654
913.70        72.88987
914.10        73.10864
914.49        73.28249
914.89        73.35363
915.29        73.33672
915.68        73.25417
916.08        73.15604
916.47        73.05909
916.87        73.00495
917.26        72.94274
917.66        72.91621
918.05        72.97227
918.45        73.07925
918.84         73.2853
919.24        73.39024
919.64        73.18626
920.03        72.64456
920.42         71.8174
920.82        71.03813
921.21        70.63503
921.61        70.66834
922.00        71.10268
922.40        71.59765
922.79        71.67155
923.19        71.17236
923.58        70.27933
923.98        69.44648
924.37        69.29623
924.77        69.95249
925.16        71.26258
925.55        72.75542
925.95        73.55556
926.34        73.43608
926.74        72.61727
927.13        71.59654
927.52        71.13818
927.92        71.41846
928.31        72.18327
928.70        73.06107
929.10        73.42355
929.49        73.13535
929.89        72.45135
930.28        71.68605
930.67        71.28286
931.07        71.36524
931.46          71.764
931.85        72.39694
932.24        73.17268
932.64        73.96132
933.03        74.84858
933.42        75.55392
933.82        75.63316
934.21        75.06324
934.60         73.9782
934.99        72.80946
935.39        72.19482
935.78        72.27912
936.17         72.8732
936.56        73.71786
936.96        74.35562
937.35        74.65316
937.74        74.71729
938.13        74.53285
938.53        74.07413
938.92         73.3948
939.31        72.58253
939.70        71.87292
940.09        71.64856
940.49        71.92419
940.88        72.57979
941.27        73.49297
941.66        74.43164
942.05        75.21323
942.44        75.89404
942.84        76.08878
943.23        75.18625
943.62        73.28637
944.01        70.78299
944.40        68.50688
944.79        67.50089
945.18        67.90083
945.57        69.42344
945.97        71.51705
946.36        73.29224
946.75        74.16202
947.14        74.37843
947.53        74.15063
947.92        73.88998
948.31        73.74829
948.70        73.46676
949.09        73.20245
949.48        73.27998
949.87        73.72956
950.26        74.57845
950.65        75.30096
951.04        74.98941
951.43        73.54954
951.82        71.30336
952.21        69.12238
952.60        68.32671
952.99        69.16399
953.38        71.23061
953.77        73.66639
954.16        74.97913
954.55        74.70576
954.94        73.25359
955.33        71.33354
955.72         70.1319
956.11        70.00504
956.50        70.59528
956.89        71.42088
957.28         71.7021
957.66        71.25351
958.05        70.39818
958.44        69.52947
958.83        69.22025
959.22        69.61743
959.61        70.45282
960.00        71.51079
960.39        72.44042
960.78        73.05732
961.16        73.47521
961.55        73.57117
961.94        73.13971
962.33        72.23434
962.72        70.93365
963.11        69.68423
963.49        69.25429
963.88        69.76736
964.27        71.03883
964.66         72.6055
965.04        73.67231
965.43        73.92721
965.82        73.61284
966.21        72.99065
966.60        72.52296
966.98        72.38455
967.37        72.38201
967.76          72.452
968.15        72.49422
968.53         72.4789
968.92        72.44346
969.31        72.38876
969.69        72.26101
970.08        72.03757
970.47        71.75362
970.86        71.48218
971.24        71.34888
971.63        71.39371
972.02        71.64045
972.40        72.07899
972.79         72.6132
973.17        73.25658
973.56        73.91133
973.95         74.6794
974.33        75.76527
974.72        77.08826
975.11        78.60153
975.49         80.0513
975.88         80.7572
976.26         80.5229
976.65        79.47539
977.04        77.94801
977.42        76.34945
977.81        74.89191
978.19        73.50092
978.58        72.27904
978.96        71.17152
979.35        70.20827
979.74         69.3821
980.12        68.83059
980.51        68.62859
980.89        68.85815
981.28        69.50162
981.66        70.27181
982.05        70.59084
982.43        70.36586
982.82        69.68306
983.20        69.16848
983.59        69.82883
983.97        71.91884
984.35        75.16251
984.74        78.49684
985.12        80.19182
985.51        79.53168
985.89        77.20114
986.28        74.35944
986.66        72.31395
987.04         71.5058
987.43        71.40906
987.81        71.91357
988.20        72.63783
988.58        73.43265
988.96        74.50324
989.35        75.30699
989.73        75.06682
990.12        73.68703
990.50        71.31381
990.88         68.9976
991.27        68.31794
991.65        69.60542
992.03        72.65792
992.42        76.09598
992.80         77.3375
993.18        75.35916
993.56        71.27708
993.95        67.24572
994.33        65.44729
994.71        66.34892
995.10        69.22935
995.48         73.1234
995.86        75.33968
996.24        74.75922
996.63        72.39456
997.01        69.56605
997.39        68.01646
997.77        68.16273
998.15         69.3049
998.54        71.16083
998.92        73.29491
999.30        75.36555
999.68        77.67505
1000.06        79.43876
1000.45        79.18578
1000.83        76.93929
1001.21        73.09427
1001.59        69.36543
1001.97        68.13402
1002.35        69.77529
1002.73        73.72013
1003.12         78.5201
1003.50        81.44717
1003.88        81.47623
1004.26        79.42361
1004.64         76.5802
1005.02        75.07239
1005.40         75.4602
1005.78        76.90158
1006.16        78.71363
1006.54        79.81744
1006.92        79.77646
1007.30        79.09715
1007.69        77.54884
1008.07        74.91149
1008.45        71.63434
1008.83        68.10497
1009.21        65.39018
1009.59         64.5713
1009.97        65.66089
1010.35        68.57489
1010.73        72.42165
1011.11        74.85181
1011.49         74.7521
1011.86        72.42941
1012.24        69.71349
1012.62        69.54349
1013.00        72.81431
1013.38        79.22545
1013.76        86.79118
1014.14        89.97207
1014.52        87.02138
1014.90         80.8589
1015.28        75.02195
1015.66        72.57699
1016.04        73.71784
1016.41        77.80394
1016.79        83.86057
1017.17        89.70709
1017.55        93.37744
1017.93        95.18208
1018.31        94.49127
1018.69        91.03399
1019.06        85.78661
1019.44        80.01162
1019.82        75.17288
1020.20        72.31443
1020.58        71.12767
1020.95        71.38197
1021.33          72.451
1021.71        72.94838
1022.09        72.26984
1022.46        70.55453
1022.84        69.03056
1023.22         69.1121
1023.60        71.19492
1023.97        75.64758
1024.35        80.75973
1024.73        81.41846
