SpectraSmart Spectrum 2.9.0.0
--------- Device Information -----------
Spectrum Name :  反射率_0
Saving Time :  2024/05/03 20:57:22
Spectro-Module Model Name : SE2030-DUVN
Spectro-Module Serial Number : OS361AC55029948
Wavelength Start : 200
Wavelength End : 1025
Wavelength Unit : Wavelength(nm)
Spectrum Unit : Reflectance(%)
-----------Spectrum Setting ------------
Integration Time : 20ms
Average : 10
Boxcar : 0
Background removal :  enabled
linearity correction :  enabled
SC :  disabled
Intensity correction :  disabled
DWT denoise :  enabled
savitzky-golay :  disabled
FFT :  disabled
Running average :  disabled
Kalman :  disabled
High pass :  disabled
---------------BEGIN--------------------
Wavelength(nm)             Reflectance(%)
200.29               0
200.75       -42.93468
201.21       -118.7581
201.67        4889.253
202.13        199.9195
202.58        122.9991
203.04        94.91852
203.50        82.55666
203.96        82.43332
204.42         97.7421
204.88        168.1085
205.34       -2532.764
205.80       -236.3436
206.26       -312.8578
206.72       -90947.76
207.18        380.0427
207.64        268.0539
208.10        277.2369
208.55        417.5869
209.01        1789.043
209.47        1996.911
209.93        299.1229
210.39        144.7346
210.85        108.2193
211.31        102.6183
211.77        113.3508
212.23        151.4712
212.69        257.1277
213.14        340.4326
213.60        210.4447
214.06        119.4692
214.52        85.46052
214.98        82.76178
215.44         107.688
215.90        225.8187
216.36       -1464.721
216.81       -276.3372
217.27       -259.9679
217.73       -410.0396
218.19       -1397.223
218.65       -28295.25
219.11       -2226.654
219.57        -685.724
220.02        -466.339
220.48       -831.2209
220.94        905.8157
221.40        260.1599
221.86         165.688
222.32        145.4768
222.77        153.7554
223.23        186.1304
223.69        244.0269
224.15        284.9905
224.61        270.6905
225.06        232.3456
225.52        205.0038
225.98        202.0899
226.44          221.16
226.90        257.4351
227.36        305.6171
227.81        339.3671
228.27        338.9028
228.73        317.7733
229.19        288.6827
229.65        260.9284
230.10        236.8767
230.56        216.8815
231.02        201.6417
231.48        192.9478
231.93        189.6206
232.39        190.7869
232.85        194.1737
233.31           197.2
233.77        198.9995
234.22        199.6901
234.68        200.1703
235.14        202.1172
235.60        205.8414
236.05        211.3045
236.51        215.2592
236.97        212.6887
237.43        203.0414
237.88        188.6223
238.34        175.0353
238.80        168.7151
239.26        171.2015
239.71        182.9176
240.17        209.0875
240.63        233.4412
241.08        236.0871
241.54        211.5078
242.00        181.2547
242.46        167.6103
242.91        173.6635
243.37        199.6235
243.83        252.3756
244.28        309.0534
244.74        307.9638
245.20        253.1368
245.66        184.8047
246.11        136.2603
246.57        108.9676
247.03        92.59308
247.48        82.85649
247.94        75.21758
248.40        67.79247
248.85        61.32849
249.31        57.22164
249.77        57.90738
250.22        63.03356
250.68        70.21125
251.14        77.99502
251.59        87.43552
252.05        100.7743
252.51        120.6218
252.96        150.3113
253.42        183.0996
253.88        203.6557
254.33        207.6125
254.79        197.5303
255.25        179.0603
255.70        160.4641
256.16        146.6368
256.62        138.4664
257.07        136.5001
257.53        139.5106
257.99        144.4501
258.44        148.9475
258.90        151.4644
259.35        151.0424
259.81        149.8867
260.27        147.8484
260.72        144.8116
261.18        142.0804
261.63        139.0929
262.09        137.1179
262.55        136.4528
263.00        136.6615
263.46        137.5921
263.91        138.3692
264.37        138.5205
264.83        137.7686
265.28        136.3642
265.74        134.6158
266.19         132.217
266.65        129.5966
267.11        126.6676
267.56        123.9359
268.02        122.3926
268.47        121.9748
268.93        122.4794
269.38        123.1246
269.84        122.5863
270.30        120.6527
270.75        117.7919
271.21        114.9366
271.66        113.1728
272.12        112.7192
272.57        112.9996
273.03        113.5075
273.48        113.4337
273.94        112.5817
274.39        111.2591
274.85        109.5408
275.31        107.2491
275.76        104.5028
276.22        101.5806
276.67        98.98079
277.13        97.75938
277.58        97.74046
278.04        98.63304
278.49        99.49656
278.95        99.00113
279.40         96.8485
279.86          93.828
280.31        90.55418
280.77        88.14107
281.22        86.55328
281.68        85.56842
282.13        84.79688
282.59         83.9313
283.04        82.78778
283.50        81.58263
283.95        80.33727
284.41        79.21842
284.86        78.17702
285.32        77.22841
285.77        76.23254
286.22        75.14899
286.68        74.02129
287.13        72.81816
287.59        71.72078
288.04        70.80565
288.50        70.13098
288.95        69.58775
289.41         69.0806
289.86        68.37129
290.32        67.47687
290.77        66.42346
291.22         65.3772
291.68        64.53156
292.13        63.88484
292.59        63.41953
293.04         63.0178
293.50        62.53901
293.95        61.94931
294.40        61.30826
294.86        60.77765
295.31        60.53867
295.77        60.61095
296.22        60.89729
296.68        61.19023
297.13        61.17018
297.58         60.7556
298.04         60.0994
298.49        59.34667
298.95        58.79059
299.40        58.46452
299.85        58.29159
300.31        58.25063
300.76        58.26031
301.21        58.29722
301.67        58.40077
302.12        58.45378
302.58         58.3251
303.03        57.97831
303.48          57.473
303.94        57.01458
304.39        56.81195
304.84        56.92309
305.30        57.25727
305.75        57.60672
306.20        57.70334
306.66        57.51349
307.11        57.11055
307.57        56.65688
308.02        56.28098
308.47        56.06224
308.93        55.95237
309.38        55.91495
309.83        55.96292
310.29        56.07479
310.74         56.2323
311.19        56.36827
311.65        56.36446
312.10        56.18222
312.55        55.84972
313.00        55.44116
313.46        55.08437
313.91        54.79908
314.36        54.58047
314.82        54.38997
315.27        54.14492
315.72        53.84312
316.18        53.51697
316.63         53.2346
317.08          53.106
317.53        53.14671
317.99        53.30843
318.44        53.50172
318.89        53.55363
319.35        53.41596
319.80        53.13123
320.25        52.79326
320.70        52.56392
321.16        52.47161
321.61        52.47655
322.06        52.47968
322.51        52.32411
322.97         51.9742
323.42        51.50729
323.87        51.01546
324.32         50.6492
324.78        50.44567
325.23        50.37053
325.68        50.36864
326.13         50.3572
326.59        50.28629
327.04        50.20936
327.49        50.11047
327.94        49.98074
328.39        49.82447
328.85        49.62134
329.30        49.43139
329.75        49.30149
330.20        49.24794
330.66        49.24621
331.11        49.29003
331.56        49.30142
332.01        49.26377
332.46         49.1983
332.92        49.11043
333.37        49.07323
333.82         49.0808
334.27         49.1085
334.72        49.15416
335.17        49.21778
335.63        49.27531
336.08        49.35596
336.53        49.39991
336.98        49.33222
337.43        49.14521
337.88        48.86458
338.34        48.57113
338.79        48.40575
339.24        48.40295
339.69        48.53624
340.14        48.72829
340.59        48.84838
341.05        48.85905
341.50        48.79688
341.95        48.73338
342.40        48.79222
342.85        48.99389
343.30        49.28717
343.75         49.5726
344.20        49.69667
344.66        49.63796
345.11        49.44768
345.56        49.22184
346.01        49.10251
346.46        49.12946
346.91        49.25193
347.36        49.43372
347.81        49.61803
348.26        49.77643
348.72        49.93059
349.17        50.04157
349.62         50.0592
350.07        49.97826
350.52        49.80393
350.97        49.60065
351.42         49.4783
351.87        49.45787
352.32        49.51022
352.77        49.56138
353.22        49.48896
353.67        49.27303
354.13        48.97565
354.58        48.65313
355.03        48.42491
355.48         48.3224
355.93        48.30826
356.38        48.34247
356.83        48.36624
357.28        48.34897
357.73        48.29253
358.18        48.20015
358.63        48.07703
359.08        47.92562
359.53        47.74934
359.98        47.51562
360.43        47.18124
360.88         46.7492
361.33        46.23405
361.78        45.73822
362.23        45.41097
362.68        45.27804
363.13        45.31069
363.58        45.35485
364.03        45.16204
364.48        44.69026
364.93        44.01428
365.38        43.34919
365.83        43.02847
366.28        43.11179
366.73         43.4879
367.18         43.9119
367.63         43.9866
368.08        43.61362
368.53        42.92045
368.98        42.13353
369.43        41.59597
369.88        41.39504
370.33        41.42827
370.78        41.53354
371.23        41.44391
371.68        41.08553
372.13        40.55287
372.58        39.99398
373.03        39.62035
373.48        39.47906
373.93        39.49828
374.38        39.54686
374.83        39.41833
375.28         39.0674
375.72        38.56032
376.17        38.06282
376.62        37.75093
377.07         37.6571
377.52        37.71085
377.97        37.80778
378.42        37.78482
378.87        37.59965
379.32        37.31277
379.77        36.99519
380.22        36.74065
380.67        36.56926
381.11        36.45206
381.56        36.34193
382.01         36.1977
382.46         36.0106
382.91         35.8065
383.36        35.60584
383.81        35.42874
384.26        35.27893
384.71        35.14737
385.15        35.01969
385.60        34.89717
386.05        34.76942
386.50        34.63306
386.95        34.49544
387.40        34.36649
387.85        34.24823
388.29        34.12635
388.74        34.00868
389.19        33.82882
389.64        33.58032
390.09        33.27683
390.54        32.98788
390.98        32.79374
391.43        32.72646
391.88        32.81567
392.33        32.96244
392.78        32.86035
393.23        32.57716
393.67        32.48665
394.12        32.59914
394.57         32.5929
395.02        32.46045
395.47        32.36224
395.91        32.32645
396.36        32.30247
396.81        32.30773
397.26        32.36405
397.71        32.39422
398.15        32.32381
398.60          32.191
399.05        31.83483
399.50        31.41368
399.95        31.51009
400.39        31.99248
400.84        31.92418
401.29        31.33965
401.74        31.05713
402.18        31.11299
402.63        31.05194
403.08        30.92082
403.53        30.75009
403.97        30.98183
404.42        31.17792
404.87        31.37706
405.32        31.42802
405.76        31.29847
406.21        31.04608
406.66        30.74951
407.11        30.54293
407.55        30.47003
408.00        30.48644
408.45        30.54376
408.90        30.54597
409.34        30.46282
409.79        30.32911
410.24        30.19638
410.68        30.13143
411.13        30.14964
411.58        30.22324
412.03        30.29807
412.47        30.28954
412.92        30.16972
413.37        29.97974
413.81        29.77699
414.26        29.67391
414.71          29.675
415.15        29.76211
415.60        29.86448
416.05         29.8976
416.49        29.83421
416.94        29.70872
417.39        29.56776
417.83        29.47546
418.28        29.44955
418.73        29.46027
419.17        29.49165
419.62        29.50219
420.07        29.48351
420.51        29.44156
420.96        29.38573
421.41        29.30378
421.85        29.18575
422.30        29.05066
422.74        28.90489
423.19        28.83993
423.64        28.84248
424.08        28.85857
424.53        28.84702
424.98        28.85548
425.42         28.8961
425.87        28.86124
426.31        28.80319
426.76        28.97441
427.21        29.29779
427.65        29.34785
428.10        29.15747
428.54        29.08898
428.99        29.17499
429.44        29.35714
429.88        29.48737
430.33        29.22206
430.77        28.68414
431.22         28.4173
431.66        28.49302
432.11        28.76792
432.56        29.13738
433.00        29.47138
433.45        29.48573
433.89        29.29723
434.34         28.0351
434.78        27.87252
435.23          28.596
435.67        28.78819
436.12        28.46865
436.57        28.42712
437.01        28.68176
437.46        28.80136
437.90         28.7591
438.35        28.69195
438.79        28.59929
439.24         28.4563
439.68        28.28907
440.13        28.17758
440.57        28.12604
441.02        28.08399
441.46        28.03946
441.91        28.06042
442.35        28.11115
442.80        28.18089
443.24        28.25062
443.69        28.37722
444.13         28.5055
444.58        28.51759
445.02         28.3998
445.47        28.20883
445.91        28.00464
446.36        27.88588
446.80        27.86819
447.24         27.9326
447.69        28.03584
448.13        28.10353
448.58        28.11778
449.02        28.09367
449.47        28.05854
449.91        28.03651
450.36        28.04179
450.80        28.05087
451.25        28.05755
451.69        28.04265
452.13        28.00483
452.58        27.95607
453.02        27.89668
453.47        27.83731
453.91        27.78177
454.36        27.73174
454.80        27.68745
455.24        27.68335
455.69        27.73245
456.13        27.75398
456.58        27.73961
457.02        27.93995
457.46        27.92767
457.91        27.94562
458.35        27.86909
458.79        27.87844
459.24        27.93726
459.68        27.80715
460.13        27.56192
460.57        27.41969
461.01        27.41405
461.46        27.42511
461.90        27.42206
462.34        27.39305
462.79        27.32231
463.23        27.21597
463.68        27.12209
464.12        27.09572
464.56         27.1412
465.01        27.31167
465.45        27.50271
465.89        27.48766
466.34        27.32983
466.78        27.32526
467.22        27.48903
467.67        27.59344
468.11        27.61369
468.55         27.5702
468.99         27.4895
469.44        27.45019
469.88        27.46532
470.32        27.46708
470.77         27.4568
471.21        27.48164
471.65        27.53573
472.10        27.60477
472.54        27.65943
472.98        27.66873
473.42        27.62801
473.87        27.55933
474.31        27.47122
474.75         27.4032
475.20        27.37658
475.64        27.36788
476.08        27.36813
476.52        27.40262
476.97        27.47247
477.41        27.49481
477.85        27.43881
478.29        27.77998
478.74        27.58956
479.18        27.80621
479.62        28.08472
480.06        28.17642
480.50        28.05439
480.95        27.87639
481.39        27.71104
481.83        27.60913
482.27        27.62659
482.72        27.75581
483.16        27.93424
483.60        28.05711
484.04        28.11894
484.48        28.03341
484.93        27.93112
485.37        28.16615
485.81        28.78731
486.25         28.7044
486.69        29.32523
487.14        29.02569
487.58        28.76055
488.02        28.75194
488.46        28.96724
488.90         28.3957
489.34        28.63723
489.79        28.61314
490.23        28.82107
490.67        29.21752
491.11        29.66899
491.55        29.65413
491.99          29.251
492.43        29.13991
492.88        29.36611
493.32        29.55785
493.76        29.65239
494.20        29.73146
494.64        29.78347
495.08        29.81835
495.52        29.87648
495.96        29.94994
496.41        30.07528
496.85        30.38904
497.29         30.8033
497.73        31.02214
498.17        31.01743
498.61         30.9904
499.05        30.97951
499.49        30.87995
499.93        30.76389
500.37         30.8514
500.82        31.09437
501.26        31.23165
501.70        31.23404
502.14        31.24082
502.58        31.28073
503.02        31.33876
503.46        31.42139
503.90        31.52749
504.34        31.62971
504.78        31.68803
505.22        31.69574
505.66        31.65848
506.10         31.5961
506.54        31.61139
506.98        31.73089
507.42        31.80227
507.86        31.76203
508.30        32.19994
508.74        31.97837
509.18         32.0202
509.62        32.02422
510.06        32.07641
510.50        32.18037
510.94        32.32489
511.38        32.47965
511.82        32.56453
512.26        32.56491
512.70        32.50643
513.14        32.42261
513.58         32.3665
514.02        32.35301
514.46        32.36277
514.90        32.38737
515.34         32.4113
515.78        32.43042
516.22        32.46198
516.66        32.48925
517.10        32.48312
517.54        32.44313
517.98        32.37015
518.42        32.32001
518.86        32.38383
519.30        32.57061
519.74         32.8497
520.18        33.12214
520.62        33.22725
521.06        33.12962
521.50        32.87778
521.93        32.57814
522.37        32.40718
522.81        32.40618
523.25        32.52393
523.69        32.67629
524.13        32.72824
524.57        32.64808
525.01        32.48732
525.45        32.30857
525.89        32.20768
526.32        32.20699
526.76         32.2698
527.20        32.35917
527.64        32.42443
528.08        32.44643
528.52        32.44506
528.96        32.41664
529.40        32.35392
529.83        32.25819
530.27        32.13644
530.71         32.0179
531.15        31.95476
531.59         31.9552
532.03        32.00775
532.46        32.06959
532.90        32.07009
533.34        31.99827
533.78        31.88377
534.22        31.76727
534.66        31.70819
535.09        31.71258
535.53        31.75831
535.97          31.826
536.41        31.86261
536.85        31.84977
537.28        31.88928
537.72         31.9516
538.16        31.78877
538.60        31.50476
539.04        31.54707
539.47        31.86353
539.91        32.01079
540.35        31.96432
540.79        31.98735
541.22        32.08113
541.66        32.14859
542.10        32.19347
542.54        32.19773
542.97        32.19131
543.41        32.34735
543.85        32.61597
544.29        32.73879
544.72        32.72169
545.16        32.80507
545.60        32.98727
546.04        33.13762
546.47        33.24306
546.91        33.34504
547.35        33.44248
547.79        33.54148
548.22        33.64878
548.66        33.77036
549.10        33.91792
549.53        34.16504
549.97        34.46964
550.41        34.68711
550.84        34.78982
551.28        34.85193
551.72        34.88188
552.15        34.86764
552.59         34.8428
553.03        34.80331
553.46        34.77586
553.90          34.846
554.34        35.00434
554.77        35.19204
555.21        35.39008
555.65        35.59406
556.08         35.7818
556.52        35.94574
556.96        36.06712
557.39        36.15268
557.83        36.21592
558.27        36.20385
558.70        36.15989
559.14        36.24194
559.57        36.42166
560.01         36.5389
560.45         36.5717
560.88        36.60807
561.32        36.66235
561.75        36.66937
562.19        36.68475
562.63        36.70426
563.06        36.74989
563.50        37.04407
563.93        37.45861
564.37        37.42659
564.80        37.04015
565.24        37.03697
565.68        37.38053
566.11        37.51729
566.55        37.45055
566.98        37.46449
567.42        37.57613
567.85        37.78566
568.29        37.83879
568.72        37.96503
569.16         38.1119
569.60        38.25993
570.03        38.39539
570.47        38.53337
570.90        38.66629
571.34        38.69255
571.77        39.17398
572.21        38.92051
572.64        39.18697
573.08        38.99253
573.51        39.53876
573.95        39.51408
574.38        39.36106
574.82        39.18159
575.25         40.1368
575.69        40.26894
576.12        39.87666
576.56        39.58988
576.99        40.09089
577.42        40.66648
577.86        39.96917
578.29        40.32456
578.73        39.97829
579.16        40.09057
579.60        40.15778
580.03        40.18215
580.47        40.10607
580.90        39.88816
581.33        39.55741
581.77        39.82201
582.20        40.28763
582.64        39.87903
583.07         39.9595
583.51        39.55092
583.94        39.26308
584.37        39.08453
584.81        39.13189
585.24        39.01783
585.68        39.39304
586.11         38.9479
586.54         39.0988
586.98        38.60726
587.41          38.659
587.85        38.87701
588.28        39.21677
588.71        38.80824
589.15        38.72611
589.58        38.94452
590.01        38.43683
590.45         38.3586
590.88        38.33215
591.31        38.58327
591.75        38.97918
592.18         38.8839
592.61        38.36428
593.05        38.58561
593.48        39.24494
593.91        38.94957
594.35        38.99152
594.78        38.96267
595.21        39.25323
595.65        39.32293
596.08        39.13467
596.51        39.57152
596.94        39.45697
597.38        39.66121
597.81        39.85918
598.24        40.05385
598.68        40.23242
599.11        40.41216
599.54        41.23792
599.97        40.71314
600.41        41.35159
600.84        41.46288
601.27        41.73221
601.70        41.96735
602.14        42.24128
602.57        42.63528
603.00        43.09745
603.43        43.44567
603.87        43.69157
604.30        44.02984
604.73        44.39267
605.16        44.77122
605.60        44.74261
606.03        45.11132
606.46        45.74136
606.89        45.56458
607.32        46.27611
607.76        46.25766
608.19          46.779
608.62        47.14107
609.05        47.52183
609.48        47.84715
609.92        48.27293
610.35        47.99728
610.78        49.50532
611.21        49.72145
611.64        50.01232
612.07        50.12217
612.50        50.31989
612.94        50.47609
613.37        50.62072
613.80        50.84589
614.23        51.12506
614.66        51.27785
615.09        51.40008
615.52        51.68247
615.96        52.11964
616.39        52.41632
616.82        52.54485
617.25        52.80903
617.68        53.17939
618.11        53.04255
618.54        52.60403
618.97        52.71154
619.40        53.36041
619.84        53.84233
620.27        54.04903
620.70        54.31291
621.13        54.62013
621.56        54.44641
621.99        54.19719
622.42        54.39921
622.85        54.71301
623.28        54.80838
623.71        54.51775
624.14        54.67891
624.57        54.19879
625.00         54.3889
625.43        54.35468
625.86        54.49118
626.29        54.55006
626.72        54.74194
627.15         54.6081
627.58        54.51199
628.01        54.34138
628.44        54.13048
628.87         53.9127
629.30        53.68583
629.73        53.43553
630.16        53.38203
630.59        53.03583
631.02        52.82639
631.45        52.61688
631.88        52.41235
632.31        52.20482
632.74        51.99438
633.17        51.76111
633.60        51.46212
634.03        51.09415
634.46        50.67418
634.89        50.23052
635.32        49.80798
635.75        49.42161
636.18        49.06078
636.61        48.71824
637.04        48.38279
637.47         48.0509
637.89        47.71781
638.32        47.36149
638.75        47.02264
639.18        46.71753
639.61        46.25867
640.04        46.00513
640.47        45.69193
640.90        45.42884
641.33        45.20301
641.76        45.03267
642.18        44.94751
642.61          44.926
643.04        44.96027
643.47         45.0058
643.90        44.99129
644.33        44.89821
644.76        44.75618
645.18        44.60771
645.61        44.46273
646.04        44.34125
646.47        44.34817
646.90        44.52627
647.33        44.40721
647.75        44.82693
648.18        45.09284
648.61        45.44381
649.04        45.82017
649.47        46.21047
649.89        46.66719
650.32        47.10603
650.75        47.35163
651.18        47.45292
651.61         47.6172
652.03        47.91382
652.46        48.36723
652.89        48.85017
653.32        49.11528
653.74        49.40808
654.17        49.34903
654.60        49.55717
655.03        50.98272
655.46        51.10383
655.88        50.85688
656.31        53.57169
656.74        58.01736
657.16        54.73952
657.59        51.56856
658.02        52.81506
658.45        54.29313
658.87         54.5886
659.30        54.28746
659.73        54.38983
660.15        54.71317
660.58        54.73991
661.01        54.97648
661.44        55.12437
661.86         55.2551
662.29        55.38098
662.72        55.62388
663.14        56.00636
663.57        56.29658
664.00        56.51012
664.42        56.89541
664.85         57.4086
665.27        57.66901
665.70        57.68927
666.13        57.82146
666.55        58.08765
666.98        58.28065
667.41        58.40666
667.83        58.55488
668.26        58.72594
668.69        58.92249
669.11        59.10514
669.54        59.20211
669.96        59.21053
670.39        59.15634
670.82        59.15933
671.24        59.37299
671.67        59.81648
672.09         60.4829
672.52         61.2229
672.94        61.43022
673.37        61.72283
673.80        61.39725
674.22        60.90144
674.65        60.77528
675.07        61.12823
675.50         61.7101
675.92        62.34897
676.35        62.79307
676.77        62.96419
677.20        62.94504
677.62        62.84084
678.05        62.82271
678.47        62.93804
678.90        63.12518
679.32        63.34056
679.75        63.57543
680.17        63.81578
680.60        63.99711
681.02         64.0812
681.45        64.40031
681.87        64.28376
682.30        64.27968
682.72        64.24058
683.15        64.26073
683.57        64.36549
684.00        64.53689
684.42        64.74487
684.85          64.921
685.27        65.03894
685.70        65.10229
686.12        65.12149
686.54        65.23145
686.97          65.422
687.39        65.51657
687.82        65.47421
688.24        65.55419
688.66          65.803
689.09        65.40384
689.51        65.67776
689.94        65.76051
690.36        66.07215
690.78         66.3408
691.21        66.45613
691.63        67.25896
692.06        66.97017
692.48        67.22894
692.90        67.48145
693.33         67.6002
693.75        67.58652
694.17        67.42841
694.60        67.25105
695.02        67.70949
695.44        67.86762
695.87        68.63039
696.29        69.45511
696.71        69.51361
697.14        68.88829
697.56        68.51227
697.98        68.53925
698.41         68.5766
698.83         68.5419
699.25        68.88494
699.68        69.43486
700.10        69.82858
700.52        69.96348
700.94        69.95686
701.37        69.87832
701.79        69.86176
702.21        69.93637
702.64        70.05037
703.06        70.17206
703.48        70.26821
703.90        70.33384
704.33        70.39529
704.75        70.46743
705.17        70.54939
705.59        70.64262
706.01         70.7345
706.44        70.84895
706.86        71.02984
707.28        71.25319
707.70        71.58498
708.12        71.94744
708.55        72.02129
708.97        71.87289
709.39         71.9833
709.81        72.34178
710.23        72.53194
710.66        72.53379
711.08        72.61102
711.50        72.76656
711.92        72.90691
712.34        73.03316
712.76         73.1722
713.19        73.28567
713.61        73.37325
714.03        73.40184
714.45        73.37068
714.87        73.32104
715.29        73.31923
715.71        73.37562
716.13        73.47671
716.56        73.54963
716.98        73.54664
717.40        73.43525
717.82        73.25533
718.24        73.08927
718.66        73.06812
719.08        73.21698
719.50        73.48018
719.92        73.80168
720.34        74.08958
720.76         74.3134
721.19        74.49631
721.61        74.62521
722.03        74.67758
722.45        74.69456
722.87        74.50137
723.29        74.20245
723.71         74.4753
724.13        75.35826
724.55        75.02984
724.97        75.71712
725.39        75.73994
725.81        75.76505
726.23        75.55932
726.65         75.2717
727.07        75.20089
727.49        75.38065
727.91        75.74995
728.33        76.18433
728.75        76.47321
729.17        76.55431
729.59        76.49039
730.01        76.38889
730.43        76.42637
730.85        76.64577
731.27        76.94193
731.69        77.29059
732.10        77.49795
732.52        77.54376
732.94        77.46532
733.36         77.3405
733.78        77.29034
734.20        77.36404
734.62         77.5494
735.04        77.75211
735.46        77.85558
735.88        77.82487
736.30        77.59137
736.72        77.33154
737.13        77.47238
737.55        77.88147
737.97        78.34043
738.39         78.6711
738.81        78.16995
739.23        77.22133
739.65        77.69771
740.06        79.26519
740.48        79.78992
740.90        79.15128
741.32        78.57584
741.74        78.30695
742.16        78.16907
742.57         78.2577
742.99        78.59599
743.41         79.0799
743.83        79.51116
744.25        79.82172
744.67        80.04912
745.08        80.21227
745.50        80.29334
745.92        80.31622
746.34        80.26161
746.75        80.16153
747.17        80.06247
747.59        79.96247
748.01        79.95814
748.42        80.02644
748.84        79.80859
749.26        79.38464
749.68        79.52988
750.09        80.12756
750.51        79.96788
750.93        79.31176
751.35        79.82766
751.76        81.28377
752.18        81.83562
752.60        81.34406
753.01        80.76373
753.43        80.36847
753.85        80.20732
754.27        80.35826
754.68        80.85807
755.10        81.49899
755.52        81.72006
755.93        81.57773
756.35        81.73215
756.77        82.07407
757.18        82.17597
757.60        82.11822
758.02        81.58675
758.43        80.81084
758.85         82.0707
759.26        83.55523
759.68        83.73978
760.10        83.13453
760.51        83.13908
760.93        83.19761
761.34        83.18906
761.76         82.8933
762.18        82.37836
762.59        81.89741
763.01        82.21105
763.42        83.18205
763.84        83.58816
764.26        83.30508
764.67        82.56277
765.09        81.79825
765.50        81.95072
765.92        82.82728
766.33        82.94046
766.75        82.25349
767.16        82.06297
767.58        82.50883
768.00        83.18027
768.41        83.93195
768.83        84.70537
769.24        85.18433
769.66        84.67162
770.07        83.46912
770.49        82.76401
770.90        82.70653
771.32        82.90677
771.73        83.25272
772.15        83.57524
772.56         83.8355
772.97        84.14289
773.39        84.42782
773.80        84.60088
774.22        84.59964
774.63         84.4955
775.05        84.31898
775.46        84.19908
775.88        84.15417
776.29        84.17989
776.70        84.27203
777.12        84.42719
777.53         84.6506
777.95        84.91364
778.36        85.16132
778.77        85.25661
779.19        85.19809
779.60        85.04433
780.02        84.87357
780.43         84.8858
780.84        85.14444
781.26        85.34863
781.67         85.5565
782.09        86.28208
782.50        87.23383
782.91        87.27202
783.33        86.49629
783.74        86.14795
784.15        86.27937
784.57        86.31169
784.98        86.19662
785.39        85.90656
785.81        85.57408
786.22        85.74972
786.63        86.30499
787.04        86.49758
787.46        86.29885
787.87        86.06411
788.28        85.95133
788.70        86.01925
789.11         86.2767
789.52        86.73002
789.93        87.23134
790.35        87.48473
790.76        87.47308
791.17        87.34629
791.58        87.21909
792.00        87.15971
792.41        87.24146
792.82        87.50642
793.23        87.89135
793.65        88.10454
794.06        88.18346
794.47        88.46783
794.88        88.82089
795.29        88.80078
795.71        88.34215
796.12          87.804
796.53        87.35089
796.94        86.94734
797.35         86.8017
797.76        87.49733
798.18        88.69946
798.59        89.30304
799.00        89.10319
799.41        88.62141
799.82        88.13016
800.23        87.89189
800.64        88.01662
801.06         88.3617
801.47        88.85305
801.88        89.21838
802.29        89.34724
802.70        89.30167
803.11        89.13142
803.52        88.90872
803.93        88.68946
804.34        88.47554
804.75        88.25623
805.17        88.08192
805.58        88.01667
805.99        87.83525
806.40        87.68053
806.81        88.24038
807.22        89.26919
807.63        89.65781
808.04        89.37835
808.45        89.29259
808.86        89.42712
809.27        89.20782
809.68        88.72543
810.09        88.45656
810.50        88.47623
810.91        88.65964
811.32        88.92802
811.73        89.13895
812.14        89.23887
812.55          89.286
812.96        89.29544
813.37        89.28016
813.78        89.25762
814.19        89.21642
814.60        89.18397
815.01        89.20975
815.42        89.30462
815.83        89.46424
816.24        89.65765
816.65        89.81268
817.05        89.90334
817.46        89.90041
817.87          89.869
818.28        89.84909
818.69        89.85342
819.10        89.86611
819.51         89.8783
819.92         89.8784
820.33        89.85722
820.74        89.81508
821.14        89.75465
821.55        89.69639
821.96        89.63901
822.37        89.60966
822.78        89.58659
823.19        89.52959
823.60        89.44514
824.00        89.35838
824.41        89.34213
824.82        89.62018
825.23        90.21033
825.64        91.03504
826.04        91.89597
826.45        92.33109
826.86        92.26684
827.27        91.82068
827.68        91.20116
828.08        90.79269
828.49        90.67348
828.90        90.77377
829.31        91.02902
829.72        91.32331
830.12        91.63836
830.53        91.94297
830.94        92.21687
831.35        92.35439
831.75        92.34323
832.16        92.11128
832.57        91.76678
832.97        91.46261
833.38        91.25047
833.79        91.12471
834.20        91.00042
834.60        90.71703
835.01        90.29288
835.42        89.80824
835.82         89.4456
836.23        89.43605
836.64         89.8492
837.04        90.62023
837.45        91.52648
837.86        92.33978
838.26        92.94646
838.67        93.32278
839.08        93.45447
839.48        93.31509
839.89        92.93484
840.29        92.30294
840.70        91.60236
841.11        91.03954
841.51        90.70586
841.92        90.59694
842.33        90.60311
842.73        90.51955
843.14        90.24891
843.54        89.87019
843.95        89.62039
844.35        89.92567
844.76        90.78556
845.17        92.07662
845.57        93.39915
845.98          93.885
846.38        93.39974
846.79        92.21622
847.19        90.81511
847.60        89.97352
848.00          89.881
848.41        90.27094
848.81        91.00507
849.22        91.71568
849.62        92.30782
850.03         92.8249
850.43        93.17897
850.84        93.04556
851.24        92.46439
851.65        91.46188
852.05        90.39983
852.46        89.88235
852.86        90.00072
853.27        90.60714
853.67        91.33342
854.07        91.91856
854.48        92.20747
854.88        92.39697
855.29         92.3222
855.69        92.02422
856.10        91.42927
856.50        90.63042
856.90        89.88541
857.31        89.62892
857.71        89.97735
858.12        90.78176
858.52        91.82522
858.92        92.42833
859.33        92.35772
859.73        91.82499
860.13        91.09787
860.54        90.66351
860.94         90.6974
861.34        91.02357
861.75        91.39394
862.15        91.51899
862.55        91.25994
862.96        90.76072
863.36          90.188
863.76        89.79077
864.17        89.64287
864.57        89.69191
864.97        89.82213
865.38        89.84052
865.78        89.73478
866.18         89.5223
866.58        89.31625
866.99        89.30698
867.39        89.54716
867.79        89.91715
868.19         90.2178
868.60        90.12344
869.00        89.59421
869.40        88.77688
869.80        87.86288
870.21        87.19936
870.61        86.95447
871.01         86.9929
871.41        87.28847
871.81        87.79661
872.22        88.43526
872.62        89.29521
873.02        90.19347
873.42        90.75848
873.82        90.88447
874.22        90.64883
874.63        90.35889
875.03        90.46324
875.43         91.0571
875.83        91.94704
876.23        92.88973
876.63        93.45638
877.03        93.52288
877.44         93.3054
877.84        92.79853
878.24        92.01582
878.64        91.05884
879.04        89.90768
879.44        88.98567
879.84        88.90738
880.24         89.7124
880.64        91.26115
881.04        92.83863
881.44        93.14263
881.84        91.91335
882.24        89.64416
882.65        87.31111
883.05        86.18747
883.45         86.5955
883.85        88.12817
884.25        90.20231
884.65        91.73527
885.05        92.29746
885.45        92.19572
885.85        91.72617
886.25        91.34263
886.65        91.20305
887.05        91.12515
887.45        91.04286
887.85        90.90259
888.25        90.68559
888.65        90.47304
889.04        90.28938
889.44        90.17526
889.84        90.12421
890.24        90.13803
890.64        90.19072
891.04        90.25076
891.44        90.30999
891.84        90.36683
892.24        90.48804
892.64        90.77072
893.04        91.24329
893.44        91.90936
893.83        92.65372
894.23        93.17815
894.63        93.42908
895.03        93.37682
895.43        93.28661
895.83        93.59581
896.23        94.35258
896.63        95.45112
897.02        96.31523
897.42        96.02772
897.82          94.501
898.22        92.10146
898.62         89.7221
899.01        88.59677
899.41        88.98493
899.81        90.57854
900.21         92.5992
900.61         93.5496
901.00        92.97882
901.40          91.452
901.80        89.86571
902.20        89.47163
902.59        90.54037
902.99        92.61095
903.39        95.03455
903.79        96.43146
904.18        96.28801
904.58         95.1333
904.98        93.62495
905.38        92.64396
905.77        92.40496
906.17        92.63164
906.57        93.13647
906.96        93.68943
907.36        94.09801
907.76        94.48045
908.15        94.78589
908.55        94.78761
908.95        94.50014
909.34        93.95689
909.74        93.29814
910.14        92.71137
910.53        92.27471
910.93        91.98759
911.33        91.90631
911.72        92.11771
912.12        92.60067
912.52         93.3127
912.91        94.11075
913.31        94.73241
913.70        95.12981
914.10        95.28113
914.49        95.29059
914.89        95.25258
915.29        95.24114
915.68        95.22043
916.08        95.17733
916.47        95.03733
916.87        94.83166
917.26        94.54754
917.66        94.29699
918.05        94.19995
918.45        94.23409
918.84        94.43484
919.24        94.54047
919.64        94.28716
920.03        93.63506
920.42         92.6663
920.82        91.77065
921.21         91.2984
921.61        91.33048
922.00         91.8399
922.40        92.48433
922.79        92.82253
923.19        92.67543
923.58        92.18682
923.98        91.78377
924.37        92.05341
924.77        93.10473
925.16        94.77435
925.55        96.53468
925.95        97.41581
926.34        97.18314
926.74        96.08352
927.13        94.66058
927.52        93.75105
927.92        93.56771
928.31        93.86335
928.70        94.31628
929.10        94.36398
929.49        93.90139
929.89        93.18722
930.28        92.48289
930.67        92.12769
931.07        92.21629
931.46        92.60015
931.85        93.26727
932.24        94.25425
932.64        95.43817
933.03        96.86143
933.42        98.11018
933.82        98.52563
934.21        98.03374
934.60        96.82673
934.99        95.44531
935.39        94.69732
935.78        94.77094
936.17        95.41141
936.56        96.33328
936.96         97.0302
937.35         97.3581
937.74        97.47109
938.13        97.27951
938.53        96.62778
938.92        95.58063
939.31        94.28255
939.70        93.17892
940.09        92.98339
940.49         93.7416
940.88        95.21851
941.27        97.05072
941.66        98.56577
942.05        99.41611
942.44        99.79173
942.84        99.37169
943.23         97.7046
943.62        95.02561
944.01        91.72501
944.40        88.84424
944.79        87.68351
945.18        88.39411
945.57        90.68323
945.97        93.69483
946.36        95.97314
946.75          96.694
947.14        96.23202
947.53        95.25293
947.92         94.9142
948.31        95.52656
948.70        96.60194
949.09        97.79735
949.48         98.5992
949.87        98.80686
950.26         98.7123
950.65        98.25835
951.04         97.2924
951.43         95.9296
951.82        94.25165
952.21        92.78804
952.60        92.34302
952.99        93.03817
953.38        94.65814
953.77        96.57081
954.16        97.65506
954.55        97.55685
954.94        96.53094
955.33        95.13176
955.72        94.30672
956.11        94.33571
956.50        94.96657
956.89        95.74375
957.28         95.9229
957.66        95.35774
958.05        94.32492
958.44        93.34686
958.83        93.21481
959.22        94.09572
959.61         95.6691
960.00        97.45318
960.39        98.61709
960.78         98.8707
961.16        98.49223
961.55        97.67052
961.94        96.70905
962.33        95.78955
962.72        94.81099
963.11        94.06279
963.49        94.05717
963.88        94.79443
964.27        96.18781
964.66         97.7016
965.04        98.41596
965.43        98.03369
965.82         96.8558
966.21        95.39647
966.60        94.54438
966.98        94.58763
967.37        95.21864
967.76        96.16717
968.15        96.95669
968.53         97.4239
968.92        97.66613
969.31        97.73351
969.69        97.68149
970.08        97.48869
970.47        97.09077
970.86        96.56413
971.24        96.06949
971.63         95.6523
972.02        95.41676
972.40        95.27505
972.79        94.94021
973.17        94.50278
973.56        94.00725
973.95        93.88743
974.33        94.84319
974.72        96.86185
975.11        99.74266
975.49        102.9724
975.88        105.1498
976.26        105.7236
976.65        104.9579
977.04        103.1622
977.42        100.7666
977.81        98.14794
978.19        95.21453
978.58        92.54564
978.96        90.81934
979.35        90.18479
979.74        90.46159
980.12        91.21095
980.51        91.45119
980.89        91.03024
981.28        90.25142
981.66        89.39824
982.05        88.87912
982.43        88.89502
982.82        89.09766
983.20        89.83128
983.59        91.70709
983.97        94.81756
984.35        99.10978
984.74        103.0737
985.12        104.2113
985.51        101.7508
985.89         96.6968
986.28        91.33314
986.66        88.45679
987.04        88.75294
987.43        91.33862
987.81        95.16505
988.20        97.80652
988.58        98.41962
988.96        97.75598
989.35        96.22578
989.73        94.61172
990.12        93.25202
990.50        91.71757
990.88        90.56163
991.27        90.67739
991.65        92.19251
992.03        95.20782
992.42        98.33988
992.80        99.09786
993.18        96.54842
993.56        91.79375
993.95        87.25875
994.33        85.40318
994.71        86.74113
995.10        90.47375
995.48        95.44252
995.86        98.28432
996.24        97.59686
996.63        94.62672
997.01        90.99974
997.39        88.90402
997.77        88.90366
998.15        90.19043
998.54        92.44923
998.92        95.25604
999.30        98.18194
999.68        101.4902
1000.06        104.2877
1000.45        104.8694
1000.83        103.1283
1001.21        99.44567
1001.59        95.43909
1001.97        93.38982
1002.35         93.7036
1002.73        95.84399
1003.12        98.72771
1003.50        100.4154
1003.88        100.1751
1004.26        98.74736
1004.64        96.93614
1005.02        96.03757
1005.40        96.36268
1005.78         97.1711
1006.16        98.33126
1006.54        99.71377
1006.92        101.0933
1007.30        102.7464
1007.69        103.3776
1008.07        100.8765
1008.45        95.41496
1008.83        88.37264
1009.21        82.39678
1009.59        80.19669
1009.97        81.95019
1010.35         87.2263
1010.73        94.32398
1011.11        98.87964
1011.49        98.74442
1011.86        94.52052
1012.24        89.35198
1012.62        88.33056
1013.00        92.94057
1013.38        102.6092
1013.76        113.6286
1014.14        116.3546
1014.52         108.435
1014.90        95.40953
1015.28        83.78142
1015.66        79.00459
1016.04        81.20272
1016.41        89.04475
1016.79        100.7788
1017.17        111.5697
1017.55        117.5133
1017.93        119.4393
1018.31        116.6919
1018.69        109.8157
1019.06         101.006
1019.44        91.73371
1019.82        84.73604
1020.20        82.23678
1020.58        83.78459
1020.95        89.20445
1021.33        96.70069
1021.71         101.227
1022.09        100.3458
1022.46        94.95346
1022.84         88.9357
1023.22        87.41086
1023.60        91.74163
1023.97        102.1596
1024.35        115.0153
1024.73        118.1931
