SpectraSmart Spectrum 2.9.0.0
--------- Device Information -----------
Spectrum Name :  反射率_0
Saving Time :  2024/05/03 20:56:39
Spectro-Module Model Name : SE2030-DUVN
Spectro-Module Serial Number : OS361AC55029948
Wavelength Start : 200
Wavelength End : 1025
Wavelength Unit : Wavelength(nm)
Spectrum Unit : Reflectance(%)
-----------Spectrum Setting ------------
Integration Time : 20ms
Average : 10
Boxcar : 0
Background removal :  enabled
linearity correction :  enabled
SC :  disabled
Intensity correction :  disabled
DWT denoise :  enabled
savitzky-golay :  disabled
FFT :  disabled
Running average :  disabled
Kalman :  disabled
High pass :  disabled
---------------BEGIN--------------------
Wavelength(nm)             Reflectance(%)
200.29               0
200.75        72.31352
201.21        113.8358
201.67       -2524.199
202.13       -50.72771
202.58       -8.723695
203.04        9.331204
203.50        18.45743
203.96        18.75165
204.42        7.606699
204.88       -44.28144
205.34        1868.961
205.80        219.3808
206.26        221.8768
206.72        33322.73
207.18       -44.75217
207.64       -7.906286
208.10       -18.14883
208.55       -85.57278
209.01       -796.6172
209.47       -1145.283
209.93       -127.7135
210.39       -25.93434
210.85        2.410944
211.31        13.93603
211.77        21.33051
212.23        31.78533
212.69        52.82983
213.14        61.67614
213.60        28.77763
214.06        9.784996
214.52         2.56632
214.98      -0.2529635
215.44       -1.516155
215.90       -1.182822
216.36       -40.47905
216.81       -23.49747
217.27       -40.82117
217.73       -96.42992
218.19       -420.5843
218.65       -9563.131
219.11       -777.2819
219.57       -233.3791
220.02        -152.215
220.48       -278.0085
220.94        326.7256
221.40        101.7743
221.86        68.22649
222.32        59.48827
222.77        59.26439
223.23        65.47572
223.69        77.22846
224.15         83.0529
224.61        75.85014
225.06        64.57404
225.52        58.32071
225.98        60.67373
226.44        71.26982
226.90        89.79254
227.36        113.8863
227.81        130.5641
228.27        130.5734
228.73        120.0733
229.19        106.7578
229.65        96.74465
230.10        90.28033
230.56         86.0631
231.02        82.95954
231.48        80.22758
231.93        77.65383
232.39        75.79819
232.85        74.63114
233.31        74.26484
233.77        74.63226
234.22        75.38361
234.68        76.54862
235.14        78.23615
235.60        80.32646
236.05         82.9501
236.51        84.90457
236.97        84.25117
237.43        80.73742
237.88        75.35316
238.34         70.1097
238.80        67.11784
239.26        66.71109
239.71        70.41792
240.17        76.91981
240.63        84.74272
241.08        87.56261
241.54        83.34099
242.00        76.58443
242.46        72.80075
242.91        72.65212
243.37        74.18998
243.83         76.4407
244.28          73.081
244.74        57.22712
245.20        36.75727
245.66        18.47623
246.11         1.93469
246.57       -12.65224
247.03       -23.63537
247.48       -29.93964
247.94       -31.52941
248.40       -28.78179
248.85       -23.43691
249.31        -14.4654
249.77       -2.845957
250.22        7.725673
250.68        15.93743
251.14        21.46943
251.59        25.19992
252.05        28.51893
252.51        32.04672
252.96        37.31927
253.42        46.23221
253.88        56.64791
254.33        65.01208
254.79            68.8
255.25        67.24111
255.70        63.30021
256.16        59.79808
256.62        57.62615
257.07        57.36849
257.53        58.77459
257.99        60.64579
258.44        62.17434
258.90        62.99946
259.35        62.70812
259.81        62.22582
260.27        61.32596
260.72         59.7951
261.18        58.25827
261.63         56.6362
262.09        55.58863
262.55        55.42946
263.00        55.93929
263.46         56.9069
263.91         57.8473
264.37        58.38253
264.83        58.34263
265.28        57.90473
265.74        57.18885
266.19        56.05593
266.65        54.71673
267.11        53.13594
267.56        51.65715
268.02        50.88244
268.47        50.80952
268.93         51.3201
269.38        51.90847
269.84        51.69832
270.30        50.55694
270.75        48.80021
271.21        47.09027
271.66        46.25946
272.12        46.45295
272.57        47.29211
273.03        48.30832
273.48        48.76155
273.94        48.45527
274.39         47.6666
274.85        46.59282
275.31        45.38526
275.76         44.1582
276.22        42.94007
276.67        41.92083
277.13        41.52835
277.58         41.6673
278.04        42.23428
278.49        42.76017
278.95         42.5654
279.40        41.51104
279.86        39.98745
280.31        38.35309
280.77         37.2137
281.22        36.56373
281.68        36.25631
282.13        36.06363
282.59        35.75861
283.04        35.24407
283.50        34.64573
283.95        34.00632
284.41        33.42352
284.86        32.89925
285.32        32.43406
285.77        31.97943
286.22         31.5463
286.68        31.15203
287.13        30.77266
287.59        30.46431
288.04        30.23351
288.50        30.09404
288.95        29.99871
289.41        29.90523
289.86        29.70007
290.32        29.39412
290.77        29.00499
291.22        28.61256
291.68        28.31659
292.13        28.12363
292.59        28.02416
293.04        27.97511
293.50         27.9305
293.95        27.86991
294.40        27.81854
294.86        27.80886
295.31         27.8752
295.77        28.01885
296.22        28.20515
296.68        28.39911
297.13        28.54974
297.58        28.63606
298.04         28.7014
298.49         28.7214
298.95        28.69402
299.40        28.62142
299.85        28.51744
300.31        28.49056
300.76          28.682
301.21        29.10641
301.67        29.69995
302.12         30.2868
302.58        30.61492
303.03        30.61961
303.48        30.40036
303.94        30.11691
304.39        29.95266
304.84        29.97628
305.30        30.12231
305.75        30.32087
306.20        30.49463
306.66         30.6238
307.11        30.72306
307.57        30.80367
308.02        30.81744
308.47        30.78216
308.93        30.70346
309.38        30.61322
309.83        30.60298
310.29        30.68398
310.74        30.81919
311.19         30.9459
311.65        30.95898
312.10        30.82754
312.55        30.58875
313.00        30.29866
313.46        30.04644
313.91        29.84913
314.36        29.69531
314.82        29.56491
315.27         29.4132
315.72        29.23956
316.18        29.06672
316.63        28.91947
317.08        28.83624
317.53        28.82184
317.99        28.85068
318.44        28.90401
318.89        28.94018
319.35         28.9398
319.80        28.90995
320.25        28.84376
320.70        28.73805
321.16        28.59035
321.61        28.40388
322.06        28.19422
322.51        27.99373
322.97        27.81193
323.42        27.65467
323.87        27.50186
324.32        27.31978
324.78        27.10017
325.23        26.86336
325.68         26.6355
326.13        26.46284
326.59        26.34774
327.04        26.29155
327.49        26.25892
327.94        26.20066
328.39        26.10108
328.85        25.96647
329.30        25.82768
329.75        25.71288
330.20        25.63222
330.66        25.56303
331.11        25.50888
331.56        25.44237
332.01        25.35756
332.46         25.2667
332.92        25.16033
333.37        25.05387
333.82        24.94195
334.27        24.82208
334.72        24.72047
335.17        24.68164
335.63        24.70466
336.08        24.79239
336.53        24.88753
336.98         24.9055
337.43        24.82658
337.88        24.67406
338.34        24.50326
338.79        24.40933
339.24        24.41685
339.69        24.50066
340.14        24.61244
340.59        24.67374
341.05        24.66216
341.50        24.60288
341.95        24.53408
342.40        24.52119
342.85        24.57672
343.30         24.6729
343.75        24.76652
344.20        24.79064
344.66        24.74018
345.11        24.64329
345.56        24.53453
346.01        24.46236
346.46        24.44388
346.91        24.45539
347.36        24.51072
347.81        24.63334
348.26        24.81247
348.72         25.0398
349.17        25.23727
349.62        25.28698
350.07        25.17221
350.52        24.93197
350.97        24.66077
351.42        24.51359
351.87        24.52472
352.32        24.63958
352.77        24.78984
353.22        24.86389
353.67        24.82732
354.13         24.7297
354.58        24.57316
355.03         24.3788
355.48        24.16921
355.93        23.94334
356.38        23.74659
356.83        23.65477
357.28        23.67432
357.73        23.77487
358.18        23.90304
358.63        23.96589
359.08        23.93508
359.53        23.84265
359.98        23.69151
360.43        23.49202
360.88        23.25992
361.33         22.9859
361.78        22.73524
362.23         22.6101
362.68        22.62019
363.13        22.74018
363.58        22.85633
364.03        22.78197
364.48        22.48478
364.93        22.02806
365.38        21.54941
365.83        21.26228
366.28        21.21637
366.73         21.3455
367.18        21.53851
367.63        21.61322
368.08        21.51569
368.53        21.30198
368.98        21.04982
369.43        20.87477
369.88        20.80716
370.33        20.80771
370.78        20.81902
371.23        20.75279
371.68        20.58718
372.13        20.35529
372.58        20.12065
373.03         19.9737
373.48        19.93056
373.93        19.95932
374.38        19.99261
374.83        19.92218
375.28        19.72508
375.72        19.43637
376.17        19.14033
376.62         18.9235
377.07        18.80585
377.52         18.7561
377.97         18.7398
378.42         18.7029
378.87        18.63004
379.32        18.54364
379.77        18.45635
380.22        18.38252
380.67        18.32446
381.11        18.27312
381.56        18.22334
382.01        18.18488
382.46        18.15828
382.91        18.14512
383.36        18.12686
383.81        18.07351
384.26        17.98149
384.71        17.85828
385.15        17.72987
385.60        17.65703
386.05        17.64138
386.50        17.65871
386.95        17.67236
387.40        17.62606
387.85        17.51179
388.29        17.35073
388.74        17.17826
389.19        17.00135
389.64         16.8301
390.09        16.65892
390.54        16.52269
390.98        16.46246
391.43        16.48553
391.88         16.6019
392.33        16.74432
392.78        16.73177
393.23        16.59265
393.67         16.5222
394.12         16.5354
394.57        16.48169
395.02        16.36435
395.47        16.26464
395.91        16.19947
396.36        16.14618
396.81        16.11793
397.26        16.12693
397.71        16.13962
398.15        16.12367
398.60        16.09448
399.05         15.9641
399.50        15.79679
399.95        15.86583
400.39        16.10274
400.84         16.0423
401.29        15.71251
401.74        15.54228
402.18        15.55515
402.63         15.5186
403.08         15.4595
403.53        15.39835
403.97        15.55471
404.42        15.70759
404.87        15.85706
405.32        15.89516
405.76        15.80204
406.21          15.617
406.66        15.40739
407.11        15.28496
407.55        15.28046
408.00        15.35652
408.45        15.46508
408.90        15.51453
409.34        15.47502
409.79        15.37897
410.24        15.26416
410.68        15.17953
411.13        15.14097
411.58        15.13072
412.03        15.13193
412.47        15.12231
412.92        15.08951
413.37        15.04426
413.81        15.00031
414.26        14.99139
414.71        15.01442
415.15        15.06724
415.60        15.11076
416.05        15.09535
416.49        15.01323
416.94        14.88748
417.39        14.76682
417.83        14.72057
418.28        14.76192
418.73        14.86311
419.17        14.98947
419.62        15.07346
420.07        15.09132
420.51        15.05707
420.96        14.98486
421.41        14.88468
421.85        14.76227
422.30        14.62969
422.74        14.49567
423.19        14.41553
423.64        14.38467
424.08        14.37614
424.53        14.37532
424.98        14.41613
425.42        14.50272
425.87        14.57677
426.31        14.63688
426.76        14.77418
427.21        14.93952
427.65        14.92373
428.10        14.77401
428.54        14.72215
428.99        14.79407
429.44          14.957
429.88        15.10472
430.33        14.98936
430.77        14.67767
431.22        14.51525
431.66        14.55104
432.11        14.67604
432.56        14.83625
433.00        15.02051
433.45        15.06828
433.89        14.90519
434.34        14.13565
434.78        14.06817
435.23        14.56538
435.67         14.7014
436.12        14.47433
436.57        14.40383
437.01        14.51835
437.46        14.58396
437.90        14.59193
438.35        14.60835
438.79        14.61975
439.24        14.59412
439.68        14.54088
440.13        14.50741
440.57        14.48782
441.02        14.45826
441.46        14.41782
441.91        14.36543
442.35        14.31705
442.80        14.39797
443.24         14.5619
443.69        14.63821
444.13        14.60715
444.58        14.58924
445.02        14.58294
445.47        14.50786
445.91        14.39715
446.36        14.35504
446.80        14.38976
447.24        14.47508
447.69        14.57521
448.13        14.63043
448.58        14.62742
449.02        14.58402
449.47         14.5296
449.91        14.50014
450.36        14.50876
450.80        14.53681
451.25        14.57159
451.69        14.58857
452.13        14.58186
452.58         14.5627
453.02        14.53312
453.47        14.50201
453.91        14.47317
454.36        14.44302
454.80        14.41338
455.24        14.40973
455.69        14.43893
456.13        14.44189
456.58         14.4116
457.02         14.5066
457.46        14.49003
457.91        14.41933
458.35        14.25867
458.79        14.20546
459.24        14.25069
459.68        14.21809
460.13        14.13957
460.57        14.13487
461.01        14.21477
461.46        14.31016
461.90        14.38867
462.34        14.41595
462.79        14.37676
463.23        14.27922
463.68        14.16698
464.12        14.10018
464.56        14.09405
465.01        14.17253
465.45        14.27004
465.89        14.24871
466.34        14.13961
466.78        14.10358
467.22        14.16551
467.67        14.23705
468.11        14.30913
468.55        14.37896
468.99        14.43396
469.44         14.4764
469.88        14.50267
470.32        14.48748
470.77        14.44704
471.21        14.43269
471.65        14.45094
472.10        14.48563
472.54        14.51787
472.98        14.52692
473.42        14.50728
473.87        14.47402
474.31        14.42658
474.75        14.37641
475.20        14.33512
475.64        14.29401
476.08        14.25742
476.52        14.25231
476.97        14.28343
477.41        14.30503
477.85        14.29771
478.29        14.50258
478.74        14.43172
479.18        14.57678
479.62        14.75834
480.06        14.84541
480.50        14.81602
480.95        14.76475
481.39        14.73041
481.83        14.69704
482.27        14.67558
482.72         14.9043
483.16        14.94264
483.60        15.05295
484.04        15.11279
484.48         15.0661
484.93        15.01668
485.37        15.22454
485.81        15.63656
486.25        15.71707
486.69        15.82054
487.14         15.5106
487.58        15.65808
488.02        15.71059
488.46        16.11959
488.90        15.73264
489.34         15.5213
489.79        15.45552
490.23        15.78531
490.67        16.13033
491.11        16.37445
491.55        16.35738
491.99        16.13993
492.43        16.11748
492.88        16.31674
493.32          16.478
493.76        16.56012
494.20        16.64678
494.64        16.73304
495.08         16.7913
495.52        16.84351
495.96        16.93261
496.41        17.06319
496.85        17.21609
497.29        17.36918
497.73        17.50356
498.17        17.60372
498.61        17.65394
499.05        17.67023
499.49        17.68605
499.93        17.72911
500.37        17.83919
500.82        17.99893
501.26        18.12888
501.70        18.21558
502.14        18.30683
502.58        18.40278
503.02        18.48023
503.46        18.53918
503.90        18.58415
504.34        18.62417
504.78        18.67578
505.22        18.74309
505.66        18.81754
506.10        18.87764
506.54        18.93201
506.98        18.98503
507.42        18.96157
507.86        18.85769
508.30        19.07705
508.74        18.95915
509.18        19.03481
509.62         19.0976
510.06        19.15372
510.50        19.19531
510.94         19.2335
511.38         19.2733
511.82        19.30325
512.26        19.32425
512.70        19.33575
513.14        19.34492
513.58         19.3655
514.02        19.39805
514.46        19.43673
514.90        19.47062
515.34        19.48014
515.78        19.46418
516.22        19.43727
516.66        19.40577
517.10        19.37923
517.54        19.36379
517.98        19.35233
518.42        19.36669
518.86        19.44158
519.30        19.57495
519.74         19.7532
520.18        19.91749
520.62        19.97274
521.06        19.89967
521.50        19.72642
521.93        19.52146
522.37        19.39802
522.81        19.38312
523.25        19.44456
523.69        19.53012
524.13        19.55441
524.57        19.49758
525.01        19.39387
525.45        19.27879
525.89        19.20624
526.32        19.19045
526.76        19.20943
527.20        19.24992
527.64        19.29626
528.08        19.33694
528.52        19.37616
528.96        19.39651
529.40        19.36967
529.83        19.29101
530.27        19.17372
530.71        19.04522
531.15        18.95179
531.59        18.90548
532.03        18.89718
532.46        18.90644
532.90        18.89838
533.34        18.86672
533.78        18.82705
534.22        18.79374
534.66        18.78697
535.09        18.80577
535.53        18.83788
535.97         18.8774
536.41         18.9031
536.85        18.90655
537.28        18.94544
537.72        18.99458
538.16        18.89372
538.60         18.7042
539.04        18.69747
539.47        18.85688
539.91        18.94085
540.35        18.93924
540.79        19.00128
541.22         19.1109
541.66        19.18337
542.10        19.21355
542.54         19.1974
542.97        19.16966
543.41        19.26043
543.85        19.44592
544.29        19.56516
544.72        19.60274
545.16        19.67435
545.60        19.77538
546.04        19.83898
546.47        19.88093
546.91        19.96201
547.35        20.08778
547.79        20.24589
548.22        20.41817
548.66        20.57642
549.10        20.71925
549.53         20.9024
549.97        21.10759
550.41        21.25776
550.84        21.34183
551.28        21.40156
551.72        21.44729
552.15        21.48045
552.59        21.52215
553.03        21.56735
553.46        21.62319
553.90          21.728
554.34         21.8724
554.77        22.02338
555.21        22.17411
555.65        22.33091
556.08        22.48184
556.52        22.61806
556.96        22.72548
557.39         22.8058
557.83        22.86712
558.27        22.87807
558.70        22.86539
559.14        22.92718
559.57        23.04693
560.01        23.12343
560.45        23.14736
560.88        23.18611
561.32        23.25087
561.75        23.28317
562.19        23.31373
562.63        23.36658
563.06        23.43701
563.50        23.59153
563.93        23.77596
564.37        23.74271
564.80        23.55912
565.24        23.63565
565.68        23.92686
566.11        24.06466
566.55        24.04305
566.98        24.04238
567.42        24.09035
567.85        24.23498
568.29        24.30602
568.72         24.3964
569.16        24.50174
569.60        24.62013
570.03        24.72424
570.47        24.95897
570.90         25.3268
571.34        25.07167
571.77        25.54744
572.21        25.54404
572.64        25.49927
573.08         25.4747
573.51        25.92862
573.95        25.99446
574.38        25.85655
574.82         25.7314
575.25        26.13236
575.69        26.20725
576.12        26.14651
576.56        26.17204
576.99        26.27409
577.42        26.73258
577.86        26.34076
578.29        26.70777
578.73        26.33012
579.16         26.3518
579.60        26.35172
580.03        26.32995
580.47        26.27813
580.90         26.0141
581.33        25.86802
581.77        25.99573
582.20        26.43076
582.64        26.03918
583.07        26.25749
583.51        25.71698
583.94        25.69324
584.37        25.50725
584.81        25.44184
585.24        25.31319
585.68         25.6061
586.11        25.04745
586.54        25.31592
586.98        25.11458
587.41        25.00387
587.85        24.99546
588.28        25.13581
588.71        24.95506
589.15        25.01439
589.58        24.95881
590.01        25.02032
590.45        24.87144
590.88        24.81515
591.31         24.8378
591.75        25.00426
592.18        24.96552
592.61        24.71218
593.05         24.9824
593.48         25.4121
593.91          25.015
594.35        25.20081
594.78         25.1795
595.21        25.39423
595.65        25.44765
596.08        25.30641
596.51        25.76023
596.94        25.76023
597.38        25.91768
597.81         25.8871
598.24        26.22049
598.68        26.35577
599.11        26.14842
599.54        26.96251
599.97        26.66591
600.41        27.33291
600.84        27.52109
601.27        27.72432
601.70        27.89788
602.14        28.07241
602.57        28.39709
603.00         28.8189
603.43        29.11712
603.87        29.30009
604.30        29.57099
604.73        29.97979
605.16        30.25129
605.60        30.47968
606.03        30.75735
606.46        31.14531
606.89        30.91506
607.32        31.56589
607.76        31.57523
608.19        31.91187
608.62         32.1468
609.05         32.4355
609.48        32.79193
609.92        33.24852
610.35        33.23785
610.78        34.01923
611.21        34.19268
611.64        34.43522
612.07        34.59808
612.50        34.80462
612.94        34.91735
613.37        34.94281
613.80        35.27094
614.23        35.28298
614.66        35.50898
615.09        35.76669
615.52        35.96179
615.96        36.06784
616.39        36.47342
616.82        36.52163
617.25        36.70167
617.68        37.14963
618.11        36.95117
618.54        36.44501
618.97        36.62003
619.40        37.43103
619.84        37.92685
620.27        37.98831
620.70        38.07764
621.13        38.22339
621.56        38.15697
621.99        37.97536
622.42        38.10217
622.85        38.46416
623.28        38.45152
623.71        38.37381
624.14        38.17506
624.57        38.02386
625.00        38.08493
625.43        38.06604
625.86        38.20902
626.29        38.35535
626.72         38.4147
627.15         38.3532
627.58         38.1923
628.01        37.96346
628.44        37.76998
628.87         37.6479
629.30        37.47137
629.73        37.19373
630.16        37.30291
630.59        36.89158
631.02         36.7028
631.45         36.5017
631.88        36.31289
632.31        36.12298
632.74        36.10729
633.17        35.90469
633.60         35.6853
634.03        35.34162
634.46        34.91522
634.89        34.45605
635.32        34.04945
635.75        33.72414
636.18        33.45233
636.61        33.21666
637.04        32.98802
637.47        32.75306
637.89        32.51738
638.32        32.25908
638.75        31.97931
639.18        31.68534
639.61        31.28135
640.04        31.04065
640.47        30.68747
640.90        30.53711
641.33        30.38596
641.76        30.29046
642.18        30.22118
642.61        30.15569
643.04         30.1005
643.47        30.05071
643.90        30.00532
644.33        29.96287
644.76        29.92772
645.18        29.90378
645.61        29.86104
646.04        29.79939
646.47        29.79595
646.90        29.89767
647.33        29.81844
647.75        30.13199
648.18        30.37264
648.61        30.67185
649.04        30.95858
649.47        31.22104
649.89        31.45699
650.32        31.67287
650.75        31.95065
651.18        32.27484
651.61        32.54803
652.03        32.78006
652.46        33.03556
652.89        33.30599
653.32         33.5513
653.74        33.87129
654.17        33.97492
654.60        34.18585
655.03        34.79041
655.46        35.08485
655.88        35.52373
656.31        37.55639
656.74        40.96463
657.16         38.4747
657.59        36.66548
658.02        37.57447
658.45        38.20496
658.87        38.12716
659.30        37.56637
659.73        37.92389
660.15        38.18614
660.58         38.2069
661.01        38.49442
661.44        38.82132
661.86        38.98677
662.29         39.0078
662.72        39.20378
663.14        39.57401
663.57        39.73115
664.00        39.72169
664.42        39.94064
664.85         40.3522
665.27        40.61619
665.70        40.69864
666.13         40.8208
666.55        40.98478
666.98        41.05451
667.41        41.06644
667.83        41.13205
668.26         41.2634
668.69        41.44935
669.11        41.63176
669.54        41.70183
669.96        41.64442
670.39        41.52665
670.82        41.46389
671.24          41.535
671.67        41.79421
672.09        42.39803
672.52        43.17591
672.94        43.39316
673.37        43.48746
673.80        43.22553
674.22        42.93149
674.65        42.82629
675.07        42.99223
675.50        43.34232
675.92        43.76656
676.35        44.06624
676.77        44.18869
677.20        44.19789
677.62        44.16262
678.05        44.19035
678.47        44.31078
678.90        44.48436
679.32        44.67209
679.75        44.85696
680.17        45.02769
680.60        45.13793
681.02        45.18611
681.45        45.43746
681.87        45.42059
682.30        45.54229
682.72        45.65416
683.15        45.67207
683.57        45.63718
684.00        45.73949
684.42        45.95074
684.85        46.05939
685.27        46.05237
685.70        46.00309
686.12        45.93802
686.54        46.01049
686.97        46.18859
687.39        46.14187
687.82        46.08983
688.24        46.07004
688.66        46.15315
689.09        46.17516
689.51        46.17026
689.94         46.3122
690.36        46.62126
690.78        46.94703
691.21        47.15759
691.63        47.69208
692.06        47.33642
692.48        47.48309
692.90        47.75731
693.33        47.90297
693.75        47.92132
694.17        47.90989
694.60        47.92273
695.02         48.3339
695.44        48.45585
695.87        48.89542
696.29        49.31041
696.71        49.30976
697.14         48.9257
697.56        48.56496
697.98        48.37636
698.41        48.29327
698.83        48.33867
699.25        48.63648
699.68        49.07217
700.10        49.41885
700.52        49.59278
700.94        49.66154
701.37        49.66009
701.79        49.66742
702.21        49.70213
702.64        49.73608
703.06        49.76618
703.48        49.80001
703.90        49.84472
704.33        49.91319
704.75         50.0087
705.17        50.11634
705.59        50.22884
706.01        50.33847
706.44         50.4576
706.86        50.60736
707.28        50.76782
707.70        50.99811
708.12        51.24302
708.55        51.25452
708.97        51.09431
709.39         51.1585
709.81        51.44178
710.23        51.60326
710.66        51.62554
711.08        51.72234
711.50        51.89063
711.92         52.0422
712.34        52.17213
712.76        52.30157
713.19        52.39766
713.61        52.45225
714.03        52.44411
714.45        52.38068
714.87        52.29955
715.29        52.26062
715.71        52.27538
716.13        52.32795
716.56        52.37907
716.98        52.41255
717.40        52.40504
717.82        52.38232
718.24        52.36115
718.66        52.36818
719.08        52.41094
719.50        52.46643
719.92        52.55883
720.34        52.72911
720.76        52.97567
721.19        53.27946
721.61        53.55797
722.03        53.67233
722.45        53.62125
722.87        53.32339
723.29        52.91182
723.71        52.96099
724.13        53.52836
724.55        53.29246
724.97        53.82397
725.39        53.90942
725.81        54.00806
726.23        53.96208
726.65        53.85525
727.07        53.86309
727.49        54.00443
727.91        54.24165
728.33        54.51315
728.75        54.72064
729.17        54.83062
729.59        54.87029
730.01         54.8933
730.43        54.98069
730.85        55.14837
731.27        55.36517
731.69        55.56162
732.10        55.64333
732.52        55.59433
732.94         55.4247
733.36        55.20412
733.78        55.11643
734.20        55.22029
734.62        55.20527
735.04        55.52367
735.46        55.58036
735.88        55.51385
736.30        55.42089
736.72        55.40058
737.13        55.47621
737.55         55.6047
737.97        56.01944
738.39        56.55114
738.81        56.33976
739.23        55.61263
739.65        55.82627
740.06        56.79519
740.48        57.06805
740.90         56.5785
741.32        56.15431
741.74        55.96032
742.16        55.88144
742.57        55.98051
742.99        56.27053
743.41        56.66609
743.83        57.01204
744.25        57.25067
744.67        57.39648
745.08        57.48114
745.50        57.52714
745.92        57.56306
746.34        57.57604
746.75        57.53596
747.17        57.41962
747.59        57.22657
748.01        56.96246
748.42        56.72622
748.84        56.65649
749.26        56.74123
749.68        57.00443
750.09        57.33867
750.51        57.25715
750.93        56.93588
751.35        57.32291
751.76        58.27688
752.18         58.6451
752.60        58.34817
753.01        58.01628
753.43        57.80873
753.85         57.7279
754.27        57.82175
754.68        58.06953
755.10        58.36543
755.52        58.53963
755.93        58.57413
756.35        58.54541
756.77        58.42975
757.18        58.41607
757.60        58.58924
758.02        58.34258
758.43        57.77145
758.85        59.04458
759.26        60.01867
759.68        60.21861
760.10        59.31388
760.51         59.1953
760.93        59.34507
761.34        58.52949
761.76        59.54789
762.18        59.12274
762.59        58.38161
763.01        58.54514
763.42         59.5544
763.84        59.86327
764.26        59.38561
764.67        58.88684
765.09        58.55647
765.50        58.66435
765.92        59.18385
766.33        59.11736
766.75        58.34487
767.16        59.48757
767.58         59.2327
768.00        59.76261
768.41        60.03884
768.83        60.28493
769.24        60.39429
769.66        60.24532
770.07        59.89943
770.49        59.34896
770.90         58.7863
771.32        58.82102
771.73        59.36501
772.15        59.65301
772.56        59.64988
772.97         59.6516
773.39        59.91874
773.80        60.09372
774.22         60.2119
774.63        60.33222
775.05        60.41094
775.46        60.43302
775.88        60.38219
776.29        60.28069
776.70        60.17468
777.12        60.15337
777.53        60.25399
777.95        60.43684
778.36        60.64209
778.77         60.7397
779.19        60.71066
779.60        60.60251
780.02        60.48489
780.43        60.51099
780.84        60.73664
781.26        60.95542
781.67        61.14124
782.09        61.57532
782.50        62.13086
782.91        61.70397
783.33        61.42739
783.74        61.14843
784.15        61.21001
784.57        61.38024
784.98        61.55806
785.39        61.36094
785.81        60.91805
786.22        61.03035
786.63        61.60436
787.04        61.81036
787.46        61.62193
787.87         61.4661
788.28        61.44498
788.70        61.49057
789.11        61.60222
789.52        61.85205
789.93        62.13839
790.35        62.17457
790.76        61.99784
791.17        61.89719
791.58        61.92757
792.00        61.93998
792.41        61.97215
792.82        62.13792
793.23         62.4043
793.65        62.61226
794.06         62.7757
794.47        62.92224
794.88        62.98104
795.29        62.99205
795.71        62.95414
796.12        62.26197
796.53        62.28946
796.94         61.9973
797.35        61.89292
797.76        62.29491
798.18        62.98848
798.59        63.26615
799.00        62.99164
799.41        62.51034
799.82          62.058
800.23        61.90548
800.64        62.13832
801.06        62.63267
801.47        63.26015
801.88        63.68813
802.29        63.79529
802.70        63.66061
803.11        63.38508
803.52        63.13457
803.93        62.98148
804.34        62.88931
804.75         62.8208
805.17        62.75103
805.58        62.70338
805.99        62.57698
806.40        62.46527
806.81        62.76365
807.22        63.34047
807.63        63.57104
808.04        63.43828
808.45        63.41778
808.86        63.51836
809.27         63.4209
809.68        63.17043
810.09        63.02002
810.50        63.00947
810.91        63.07494
811.32        63.17341
811.73         63.2288
812.14        63.21387
812.55        63.15789
812.96         63.0907
813.37        63.05327
813.78        63.06515
814.19        63.12168
814.60        63.19005
815.01         63.2251
815.42        63.21886
815.83         63.1727
816.24        63.15222
816.65        63.27499
817.05        63.55727
817.46        63.92142
817.87        64.25217
818.28        64.33533
818.69        64.13802
819.10        63.72303
819.51        63.24531
819.92        63.01153
820.33        63.11003
820.74        63.38625
821.14        63.71273
821.55         64.0229
821.96        64.19655
822.37        64.05998
822.78        63.66082
823.19        63.32431
823.60        63.13034
824.00        62.92083
824.41        62.75697
824.82        62.89505
825.23        63.34961
825.64        64.03725
826.04        64.81778
826.45        65.35006
826.86        65.55564
827.27        65.52016
827.68        65.28884
828.08         64.9762
828.49        64.61482
828.90        64.19708
829.31        63.86809
829.72        63.86382
830.12        64.24588
830.53        64.91512
830.94        65.64314
831.35        65.96513
831.75        65.76139
832.16        65.10432
832.57        64.27557
832.97        63.71435
833.38        63.55469
833.79        63.68392
834.20        63.92675
834.60        63.99717
835.01         63.8451
835.42        63.57943
835.82        63.36351
836.23         63.4045
836.64        63.76739
837.04        64.37915
837.45        65.04886
837.86        65.57237
838.26        65.85957
838.67        65.90878
839.08        65.77943
839.48        65.55424
839.89        65.28034
840.29        64.93839
840.70        64.56181
841.11        64.13728
841.51        63.70696
841.92        63.31269
842.33        63.02664
842.73        62.96228
843.14         63.0983
843.54         63.3889
843.95        63.80694
844.35        64.35284
844.76        64.94227
845.17        65.56811
845.57        66.06384
845.98        66.03507
846.38        65.47821
846.79        64.53017
847.19        63.49451
847.60        62.86076
848.00        62.74497
848.41        63.00145
848.81        63.52872
849.22        64.03978
849.62        64.46157
850.03        64.80499
850.43        65.05021
850.84        65.05908
851.24        64.86565
851.65          64.476
852.05        64.01329
852.46        63.69311
852.86        63.55902
853.27        63.58727
853.67        63.71947
854.07        64.03461
854.48        64.46174
854.88        65.05134
855.29        65.52383
855.69        65.55187
856.10        64.96064
856.50        63.93933
856.90        62.81707
857.31        62.10921
857.71        61.97443
858.12        62.24608
858.52        62.80448
858.92        63.23637
859.33        63.37574
859.73        63.36692
860.13        63.27326
860.54        63.21996
860.94        63.27967
861.34        63.36715
861.75        63.41825
862.15        63.44414
862.55        63.39743
862.96        63.30571
863.36        63.19189
863.76        63.09456
864.17        63.01979
864.57        62.99448
864.97        62.96001
865.38        62.80516
865.78        62.55719
866.18        62.22259
866.58        61.94357
866.99        61.96503
867.39        62.33601
867.79        62.93254
868.19        63.53078
868.60        63.77037
869.00        63.57774
869.40        63.07935
869.80        62.41623
870.21        61.85142
870.61        61.53597
871.01         61.3832
871.41        61.40799
871.81        61.62485
872.22        61.99162
872.62        62.55923
873.02         63.2172
873.42        63.72335
873.82        63.98434
874.22        64.02987
874.63        63.99438
875.03        64.08427
875.43         64.3505
875.83        64.70101
876.23        65.04032
876.63        65.19982
877.03        65.14838
877.44        65.01077
877.84        64.77333
878.24         64.4334
878.64        64.02334
879.04        63.49888
879.44        63.10269
879.84        63.19427
880.24        63.78183
880.64        64.78567
881.04        65.68837
881.44        65.56826
881.84        64.28699
882.24        62.23444
882.65        60.20085
883.05        59.21544
883.45        59.52131
883.85        60.79884
884.25        62.56669
884.65        63.91569
885.05        64.48222
885.45         64.5132
885.85        64.22599
886.25        63.97006
886.65         63.8674
887.05        63.75441
887.45        63.62508
887.85        63.51929
888.25        63.43244
888.65        63.41594
889.04        63.38749
889.44        63.21091
889.84        62.87128
890.24        62.44102
890.64        62.06008
891.04        61.96522
891.44        62.21048
891.84        62.69723
892.24        63.33513
892.64        63.98597
893.04        64.58742
893.44        65.17531
893.83        65.69103
894.23        65.95925
894.63        65.97734
895.03         65.7371
895.43         65.4192
895.83        65.32645
896.23        65.52032
896.63        65.94749
897.02        66.34258
897.42        66.26086
897.82        65.64239
898.22        64.64506
898.62         63.6559
899.01        63.20456
899.41        63.41026
899.81        64.14893
900.21        65.04184
900.61        65.37624
901.00        64.95209
901.40        64.04819
901.80        63.18207
902.20        63.08016
902.59        63.89415
902.99        65.37537
903.39        67.05321
903.79          67.923
904.18        67.63767
904.58        66.55915
904.98        65.27261
905.38        64.57626
905.77        64.62997
906.17        65.19766
906.57         65.9588
906.96        66.42381
907.36        66.38827
907.76        66.03753
908.15        65.57638
908.55        65.25607
908.95        65.19431
909.34        65.27061
909.74        65.37827
910.14        65.33457
910.53        65.10457
910.93        64.80162
911.33        64.52618
911.72        64.43716
912.12        64.57228
912.52        64.85721
912.91        65.25348
913.31        65.67962
913.70        66.10973
914.10        66.50462
914.49        66.81039
914.89        66.86848
915.29        66.67472
915.68        66.27464
916.08        65.79057
916.47        65.36699
916.87        65.09589
917.26         64.9201
917.66         64.8611
918.05        64.93182
918.45        65.08122
918.84        65.34206
919.24        65.55231
919.64         65.5355
920.03        65.25298
920.42         64.7554
920.82        64.23423
921.21        63.84584
921.61        63.64725
922.00         63.6399
922.40        63.74534
922.79        63.93848
923.19        64.15277
923.58        64.37893
923.98        64.67493
924.37        65.11385
924.77        65.68909
925.16        66.37278
925.55        66.94852
925.95         67.0371
926.34        66.60262
926.74        65.76453
927.13        64.80913
927.52        64.15945
927.92        63.92958
928.31        64.00118
928.70        64.25748
929.10        64.46778
929.49        64.56503
929.89        64.63457
930.28        64.69072
930.67        64.71108
931.07        64.69474
931.46        64.62312
931.85        64.60899
932.24        64.88146
932.64        65.44007
933.03        66.27701
933.42        67.09656
933.82        67.42432
934.21        67.17655
934.60        66.47514
934.99         65.6713
935.39         65.2765
935.78        65.39787
936.17        65.86985
936.56        66.41996
936.96        66.59322
937.35        66.30849
937.74        65.72066
938.13         64.9725
938.53        64.27406
938.92          63.721
939.31        63.31763
939.70        63.15494
940.09        63.38861
940.49        63.96109
940.88        64.79729
941.27        65.77679
941.66        66.67977
942.05        67.35091
942.44        67.84004
942.84        67.83755
943.23        66.87255
943.62        65.06878
944.01        62.76036
944.40        60.71832
944.79        59.90483
945.18        60.43225
945.57        62.05024
945.97        64.15136
946.36        65.71593
946.75        66.15615
947.14        65.76253
947.53        64.93281
947.92        64.35355
948.31        64.24851
948.70        64.33568
949.09        64.57405
949.48        64.93473
949.87        65.34861
950.26        65.89901
950.65        66.33305
951.04        66.19593
951.43        65.44265
951.82        64.20927
952.21        62.94132
952.60         62.3237
952.99        62.49973
953.38        63.29574
953.77        64.28088
954.16        64.70602
954.55        64.34801
954.94        63.39744
955.33        62.29871
955.72        61.77861
956.11        62.02396
956.50        62.83101
956.89        63.72883
957.28        63.95152
957.66        63.34605
958.05        62.17372
958.44        60.97947
958.83         60.6208
959.22        61.29295
959.61        62.68198
960.00         64.3098
960.39        65.34206
960.78        65.48751
961.16        65.02046
961.55        64.15346
961.94        63.20925
962.33        62.36467
962.72        61.51965
963.11        60.87563
963.49        60.79828
963.88        61.28465
964.27          62.283
964.66        63.42597
965.04        64.07268
965.43        63.99603
965.82         63.3872
966.21         62.5609
966.60        62.06987
966.98        62.10886
967.37        62.50669
967.76        63.10209
968.15        63.61319
968.53        63.95438
968.92        64.17249
969.31        64.37817
969.69        64.72875
970.08        65.20455
970.47        65.70773
970.86        66.08749
971.24        66.12794
971.63         65.8025
972.02        65.28265
972.40        64.69986
972.79        64.23241
973.17        64.04453
973.56        63.98964
973.95        64.28768
974.33        65.28529
974.72         66.9114
975.11        69.13959
975.49        71.41009
975.88        72.41804
976.26        71.77565
976.65        69.79472
977.04        67.29803
977.42        65.42053
977.81        64.45573
978.19        64.04962
978.58        63.93973
978.96        63.52215
979.35        62.67112
979.74        61.58775
980.12        60.52967
980.51        59.76609
980.89        59.49513
981.28        59.65068
981.66        60.07313
982.05        60.44218
982.43        60.67171
982.82         60.7521
983.20        61.08279
983.59        62.31097
983.97        64.59101
984.35        67.75053
984.74        70.71367
985.12        71.77709
985.51          70.328
985.89        67.03667
986.28        63.38043
986.66        61.08726
987.04        60.62788
987.43        61.48645
987.81         63.0149
988.20        63.81417
988.58        63.45646
988.96        62.42167
989.35          61.123
989.73        60.30537
990.12        60.14304
990.50         60.2921
990.88        60.67635
991.27        61.27111
991.65        62.03064
992.03        63.08307
992.42        63.98186
992.80        64.16695
993.18        63.32253
993.56        61.76456
993.95        60.30822
994.33         59.6169
994.71        59.91562
995.10        60.91169
995.48        62.35259
995.86        63.24304
996.24         63.1727
996.63        62.54082
997.01         61.7438
997.39        61.27652
997.77        61.28424
998.15        61.48911
998.54        62.03138
998.92        63.21243
999.30        64.98972
999.68        67.33753
1000.06        69.36208
1000.45        69.42715
1000.83        67.39457
1001.21        63.79301
1001.59         60.0425
1001.97        58.02052
1002.35        58.10594
1002.73        59.89343
1003.12        62.52661
1003.50        64.43747
1003.88        64.98616
1004.26        64.57554
1004.64        63.98083
1005.02        64.49799
1005.40        66.33173
1005.78        68.81561
1006.16        71.08346
1006.54         71.7843
1006.92        70.52055
1007.30        67.86931
1007.69        64.17797
1008.07        60.42287
1008.45        57.43693
1008.83        55.15592
1009.21        54.11015
1009.59        54.84836
1009.97        57.27514
1010.35        61.46752
1010.73         66.3659
1011.11        69.12987
1011.49         68.4156
1011.86        64.60562
1012.24        59.85479
1012.62         57.5375
1013.00        58.68328
1013.38        62.95897
1013.76        68.79166
1014.14          71.606
1014.52        69.81259
1014.90         65.6307
1015.28        61.85329
1015.66        61.05552
1016.04        63.45501
1016.41        68.57859
1016.79        75.20791
1017.17        80.42817
1017.55        81.94785
1017.93        80.16947
1018.31        75.51935
1018.69        69.87463
1019.06        64.84035
1019.44        60.79191
1019.82        58.11627
1020.20        56.90462
1020.58        56.86338
1020.95        58.17867
1021.33         60.3166
1021.71        61.77166
1022.09        61.79646
1022.46        60.26868
1022.84        58.86914
1023.22        59.90087
1023.60         64.0399
1023.97        71.81981
1024.35        80.57871
1024.73        81.59048
