SpectraSmart Spectrum 2.9.0.0
--------- Device Information -----------
Spectrum Name :  反射率_0
Saving Time :  2024/05/03 20:45:04
Spectro-Module Model Name : SE2030-DUVN
Spectro-Module Serial Number : OS361AC55029948
Wavelength Start : 200
Wavelength End : 1025
Wavelength Unit : Wavelength(nm)
Spectrum Unit : Reflectance(%)
-----------Spectrum Setting ------------
Integration Time : 20ms
Average : 10
Boxcar : 0
Background removal :  enabled
linearity correction :  enabled
SC :  disabled
Intensity correction :  disabled
DWT denoise :  enabled
savitzky-golay :  disabled
FFT :  disabled
Running average :  disabled
Kalman :  disabled
High pass :  disabled
---------------BEGIN--------------------
Wavelength(nm)             Reflectance(%)
200.29               0
200.75        94.98843
201.21        132.2531
201.67       -2359.322
202.13       -43.63843
202.58       -18.72626
203.04       -16.61385
203.50        -20.6692
203.96        -28.1571
204.42       -42.52931
204.88       -95.83825
205.34        1799.372
205.80        163.9328
206.26        164.6235
206.72        30464.13
207.18       -77.76521
207.64       -40.32841
208.10       -40.93366
208.55       -76.21198
209.01       -459.8389
209.47       -587.9685
209.93       -72.31693
210.39       -23.30787
210.85       -10.19355
211.31       -4.991752
211.77       -1.832937
212.23        2.209225
212.69        9.027108
213.14        7.806182
213.60       -7.678372
214.06       -14.24842
214.52        -16.7271
214.98       -18.99865
215.44       -23.54749
215.90       -41.03153
216.36        182.6989
216.81        16.45794
217.27      -0.5827688
217.73       -25.80379
218.19       -139.1573
218.65        -2475.76
219.11       -73.21317
219.57        37.43925
220.02        62.62027
220.48        112.7475
220.94       -60.19382
221.40        9.028568
221.86        19.73458
222.32        20.67193
222.77        16.85782
223.23        8.524966
223.69       -4.658176
224.15       -12.39718
224.61       -6.384674
225.06        4.586605
225.52        13.54774
225.98        18.81973
226.44        21.76583
226.90        23.80779
227.36        25.02822
227.81        24.95282
228.27        23.69078
228.73        21.85372
229.19        20.20492
229.65        19.34966
230.10        19.09933
230.56        19.21192
231.02        19.70772
231.48        20.69246
231.93        22.00269
232.39         23.6027
232.85         24.8912
233.31        24.95663
233.77        23.78742
234.22        21.72969
234.68        19.68885
235.14        19.21545
235.60        20.75485
236.05        23.90344
236.51        27.98022
236.97        31.30376
237.43        32.92706
237.88        33.45111
238.34        33.09722
238.80        31.94074
239.26        29.85891
239.71        28.23738
240.17        22.90017
240.63        20.26647
241.08        23.03229
241.54        31.13175
242.00        39.63988
242.46        44.85355
242.91        47.22347
243.37        46.50573
243.83        39.74875
244.28        21.49565
244.74       -4.925292
245.20       -29.27177
245.66       -42.09049
246.11       -44.00116
246.57       -39.10695
247.03       -28.30859
247.48       -16.73067
247.94       -9.653865
248.40       -6.619377
248.85       -6.653865
249.31       -6.260587
249.77      -0.2031451
250.22        10.10829
250.68        20.47555
251.14        28.43713
251.59        33.33614
252.05        36.18642
252.51        37.68526
252.96        38.53513
253.42         40.3137
253.88        43.17968
254.33        45.86008
254.79         46.7836
255.25        44.76708
255.70        41.62332
256.16        39.20018
256.62        38.12101
257.07        38.82732
257.53        40.98524
257.99        43.57716
258.44        45.71388
258.90        46.80909
259.35        46.59692
259.81        46.00138
260.27         45.0506
260.72        43.80348
261.18        42.68734
261.63         41.5089
262.09        40.71294
262.55         40.5052
263.00        40.71246
263.46        41.22104
263.91         41.5866
264.37         41.4082
264.83          40.616
265.28        39.43188
265.74        38.16248
266.19        37.00129
266.65        36.09671
267.11        35.30479
267.56        34.64281
268.02        34.21418
268.47        33.95898
268.93        33.88444
269.38        33.79954
269.84         33.3738
270.30        32.58567
270.75        31.54382
271.21        30.56921
271.66        30.04229
272.12        30.02436
272.57        30.34461
273.03        30.73742
273.48        30.80021
273.94        30.43218
274.39        29.76661
274.85        28.97087
275.31        28.20059
275.76        27.50806
276.22         26.8859
276.67        26.33168
277.13        25.94048
277.58        25.64966
278.04        25.46926
278.49        25.26141
278.95        24.87228
279.40        24.27231
279.86        23.59364
280.31        22.93275
280.77        22.50895
281.22        22.28276
281.68        22.21479
282.13        22.17893
282.59        22.04784
283.04        21.78227
283.50        21.45588
283.95        21.12702
284.41        20.89741
284.86        20.77932
285.32        20.75798
285.77        20.78711
286.22        20.85238
286.68        20.94137
287.13        21.02653
287.59        21.11943
288.04        21.19519
288.50        21.26397
288.95        21.30817
289.41        21.31913
289.86        21.24383
290.32        21.11038
290.77        20.93662
291.22        20.79973
291.68        20.79875
292.13        20.94716
292.59        21.23917
293.04        21.62311
293.50        22.02353
293.95        22.40232
294.40        22.77892
294.86        23.18892
295.31        23.69042
295.77         24.2961
296.22        24.97083
296.68        25.66413
297.13        26.29073
297.58        26.81174
298.04        27.26786
298.49        27.66237
298.95        28.04119
299.40        28.41526
299.85        28.78241
300.31        29.20754
300.76        29.76148
301.21        30.45366
301.67        31.25936
302.12        32.05175
302.58        32.65122
303.03        33.00684
303.48        33.18329
303.94        33.32741
304.39        33.60642
304.84        34.07605
305.30        34.67073
305.75        35.27491
306.20        35.74139
306.66        36.04031
307.11        36.20431
307.57        36.30596
308.02        36.38093
308.47        36.47499
308.93        36.57915
309.38        36.68643
309.83        36.83226
310.29        37.01554
310.74        37.21466
311.19        37.40778
311.65        37.55029
312.10        37.61575
312.55        37.61503
313.00        37.54148
313.46        37.39333
313.91        37.17117
314.36        36.89875
314.82        36.62435
315.27        36.40988
315.72        36.28047
316.18        36.22263
316.63        36.20941
317.08        36.19788
317.53        36.16856
317.99        36.12298
318.44        36.06495
318.89        35.98525
319.35        35.88065
319.80        35.74674
320.25        35.58545
320.70        35.40989
321.16        35.21726
321.61          35.014
322.06        34.79386
322.51        34.54852
322.97        34.28114
323.42        34.01326
323.87        33.75262
324.32        33.51355
324.78        33.29649
325.23        33.10204
325.68        32.93506
326.13        32.80916
326.59        32.70763
327.04        32.64035
327.49        32.55689
327.94        32.38784
328.39        32.11722
328.85        31.75444
329.30        31.36777
329.75        31.04156
330.20        30.80863
330.66        30.64281
331.11        30.52615
331.56         30.3819
332.01        30.19025
332.46        29.97365
332.92        29.75041
333.37        29.58874
333.82        29.48882
334.27        29.42595
334.72        29.37553
335.17        29.30054
335.63        29.17858
336.08        29.04144
336.53        28.88181
336.98         28.7009
337.43        28.50643
337.88        28.29784
338.34        28.10431
338.79        27.97705
339.24        27.92337
339.69        27.93434
340.14         27.9626
340.59        27.92848
341.05        27.81428
341.50        27.64464
341.95        27.46973
342.40        27.37859
342.85        27.38714
343.30        27.45713
343.75        27.53707
344.20         27.5458
344.66        27.46942
345.11        27.33846
345.56        27.17401
346.01        27.00275
346.46        26.84559
346.91        26.69367
347.36        26.58924
347.81         26.6011
348.26        26.72977
348.72        26.94947
349.17        27.17193
349.62        27.26252
350.07        27.18853
350.52        26.98677
350.97        26.72386
351.42        26.51226
351.87        26.38295
352.32        26.29865
352.77        26.22819
353.22        26.12229
353.67        25.96777
354.13        25.80031
354.58        25.61414
355.03        25.41352
355.48        25.21197
355.93        25.01697
356.38        24.85604
356.83        24.77474
357.28        24.77642
357.73        24.83556
358.18        24.92967
358.63         25.0206
359.08        25.08636
359.53        25.13325
359.98        25.12523
360.43        25.01303
360.88        24.79462
361.33        24.47997
361.78        24.14961
362.23        23.92838
362.68        23.84251
363.13        23.86879
363.58        23.90638
364.03         23.7898
364.48         23.4899
364.93        23.06001
365.38         22.6361
365.83        22.42556
366.28        22.46886
366.73        22.70068
367.18        22.97007
367.63        23.03303
368.08        22.82894
368.53        22.43163
368.98        21.99142
369.43        21.73779
369.88        21.72347
370.33         21.8793
370.78        22.07125
371.23        22.07531
371.68        21.83608
372.13        21.43435
372.58        21.00726
373.03        20.75904
373.48        20.73421
373.93        20.85832
374.38        21.02568
374.83        21.06391
375.28        20.92303
375.72         20.6615
376.17        20.36009
376.62        20.09606
377.07        19.89678
377.52        19.73063
377.97        19.60123
378.42        19.52263
378.87        19.48894
379.32        19.49775
379.77         19.5139
380.22        19.47919
380.67        19.38232
381.11        19.24203
381.56         19.0756
382.01        18.93647
382.46        18.84415
382.91        18.78156
383.36        18.74484
383.81        18.72542
384.26        18.71597
384.71         18.7242
385.15        18.72001
385.60        18.67081
386.05        18.56648
386.50        18.41342
386.95        18.26232
387.40        18.19121
387.85        18.21056
388.29        18.28755
388.74        18.36911
389.19        18.33646
389.64        18.17146
390.09        17.90624
390.54        17.63272
390.98        17.48173
391.43        17.48748
391.88        17.63536
392.33        17.81568
392.78        17.78148
393.23        17.55851
393.67        17.38032
394.12        17.30335
394.57        17.22908
395.02        17.17025
395.47        17.18718
395.91        17.25478
396.36        17.27705
396.81        17.24735
397.26        17.20436
397.71        17.14223
398.15        17.07175
398.60        17.02363
399.05        16.88912
399.50        16.73269
399.95        16.84161
400.39        17.13975
400.84         17.1335
401.29        16.83784
401.74        16.68642
402.18        16.69995
402.63        16.63646
403.08         16.5323
403.53        16.42549
403.97        16.55652
404.42        16.68147
404.87        16.81429
405.32        16.86142
405.76        16.79997
406.21        16.66676
406.66        16.49469
407.11        16.34013
407.55        16.22799
408.00        16.14007
408.45        16.07943
408.90        16.04697
409.34        16.03901
409.79        16.05617
410.24        16.09157
410.68        16.13001
411.13        16.16739
411.58        16.20315
412.03        16.22136
412.47        16.20226
412.92        16.13871
413.37        16.03837
413.81        15.93219
414.26        15.88124
414.71        15.88681
415.15        15.94514
415.60        16.00276
416.05        15.98157
416.49        15.86804
416.94        15.69641
417.39        15.53225
417.83        15.46982
418.28        15.52491
418.73        15.65617
419.17        15.81812
419.62        15.92361
420.07        15.94378
420.51        15.90641
420.96        15.81836
421.41        15.67796
421.85        15.49544
422.30        15.28413
422.74        15.09311
423.19        15.03994
423.64         15.1246
424.08         15.3023
424.53        15.48924
424.98        15.59875
425.42        15.60329
425.87        15.47549
426.31        15.30088
426.76        15.31105
427.21        15.49169
427.65        15.58997
428.10        15.58794
428.54        15.61977
428.99        15.68486
429.44        15.78559
429.88        15.85556
430.33        15.69958
430.77        15.40101
431.22         15.2965
431.66        15.40746
432.11        15.57358
432.56        15.72388
433.00        15.85982
433.45         15.8422
433.89        15.64843
434.34        14.87404
434.78         14.8702
435.23        15.46566
435.67        15.63183
436.12        15.35443
436.57        15.20611
437.01        15.23557
437.46        15.23066
437.90        15.19843
438.35        15.19728
438.79        15.21167
439.24        15.20663
439.68        15.18554
440.13        15.19623
440.57        15.21789
441.02        15.19941
441.46        15.13556
441.91        15.03606
442.35        14.93003
442.80        14.96558
443.24        15.10007
443.69          15.151
444.13        15.10723
444.58        15.10917
445.02        15.15424
445.47        15.15071
445.91        15.11407
446.36        15.12532
446.80        15.18564
447.24        15.27411
447.69        15.36089
448.13        15.39832
448.58        15.37839
449.02        15.31504
449.47        15.24273
449.91        15.20441
450.36        15.21458
450.80        15.25587
451.25        15.30564
451.69        15.32157
452.13        15.29532
452.58        15.24244
453.02         15.1812
453.47        15.14734
453.91        15.14807
454.36        15.16946
454.80        15.19248
455.24        15.21021
455.69        15.22458
456.13        15.18914
456.58        15.11306
457.02        15.18738
457.46        15.17066
457.91        15.11009
458.35         14.9706
458.79        14.96445
459.24        15.07557
459.68         15.1138
460.13         15.0833
460.57        15.06759
461.01        15.07532
461.46         15.0517
461.90        14.99927
462.34        14.94246
462.79         14.8836
463.23        14.81329
463.68        14.76231
464.12        14.76611
464.56         14.8239
465.01        14.96538
465.45         15.1088
465.89        15.09063
466.34        14.94455
466.78        14.84497
467.22        14.83526
467.67        14.85796
468.11        14.91608
468.55        14.99852
468.99        15.08121
469.44        15.14605
469.88         15.1829
470.32        15.17399
470.77        15.13557
471.21        15.11944
471.65        15.13406
472.10        15.16068
472.54        15.19106
472.98        15.22283
473.42        15.25185
473.87        15.28755
474.31        15.30994
474.75        15.30107
475.20        15.26722
475.64        15.20774
476.08        15.14653
476.52         15.1426
476.97        15.20743
477.41        15.28256
477.85        15.32872
478.29         15.5745
478.74        15.48945
479.18        15.61323
479.62        15.76887
480.06        15.84358
480.50        15.82762
480.95         15.7961
481.39        15.77785
481.83        15.79602
482.27        15.87177
482.72        16.01833
483.16        16.19252
483.60        16.33306
484.04        16.43099
484.48        16.42124
484.93        16.41476
485.37        16.66416
485.81        17.12202
486.25        17.31664
486.69        17.35022
487.14         17.1094
487.58         17.3702
488.02        17.22672
488.46        17.49351
488.90         17.3039
489.34        17.37333
489.79        17.42735
490.23        17.61478
490.67        17.96454
491.11        18.36668
491.55        18.45035
491.99        18.26992
492.43        18.30127
492.88        18.57351
493.32        18.80918
493.76         18.9639
494.20        19.11701
494.64         19.2628
495.08        19.37646
495.52        19.48659
495.96        19.64168
496.41         19.8438
496.85        20.07738
497.29        20.30482
497.73        20.45882
498.17        20.52692
498.61        20.56712
499.05        20.59984
499.49        20.57166
499.93        20.54293
500.37        20.70241
500.82        21.00692
501.26        21.20972
501.70        21.28192
502.14        21.35818
502.58        21.45378
503.02         21.5341
503.46         21.6051
503.90        21.67381
504.34        21.74141
504.78        21.81261
505.22        21.88948
505.66        21.96651
506.10        22.03194
506.54        22.11662
506.98        22.22934
507.42        22.27459
507.86        22.22978
508.30        22.54395
508.74         22.4296
509.18        22.52018
509.62        22.58659
510.06        22.66154
510.50        22.74024
510.94        22.82525
511.38        22.90822
511.82        22.95221
512.26        22.95435
512.70        22.92842
513.14        22.89121
513.58        22.86986
514.02        22.87224
514.46        22.88729
514.90        22.91661
515.34        22.96127
515.78        23.01709
516.22        23.08728
516.66        23.14497
517.10        23.14705
517.54        23.08955
517.98        22.98425
518.42         22.8803
518.86        22.85735
519.30        22.92982
519.74         23.0725
520.18        23.22737
520.62        23.29858
521.06        23.26152
521.50        23.14568
521.93        22.99854
522.37        22.89995
522.81        22.86938
523.25        22.88027
523.69        22.90399
524.13        22.89552
524.57        22.84409
525.01        22.77263
525.45         22.6931
525.89        22.62147
526.32        22.56404
526.76         22.5137
527.20        22.48155
527.64        22.48888
528.08        22.53351
528.52        22.60795
528.96        22.67403
529.40         22.6714
529.83        22.58516
530.27        22.43676
530.71        22.27042
531.15        22.15849
531.59        22.11825
532.03        22.13287
532.46         22.1598
532.90        22.13038
533.34        22.03428
533.78        21.90136
534.22        21.77743
534.66        21.72739
535.09        21.75776
535.53        21.84298
535.97        21.94679
536.41        21.99612
536.85        21.96984
537.28        21.94995
537.72        21.93739
538.16        21.79657
538.60        21.60778
539.04        21.66518
539.47        21.92245
539.91          22.057
540.35        22.04693
540.79        22.08303
541.22        22.16541
541.66        22.22492
542.10        22.26551
542.54        22.27193
542.97        22.28017
543.41        22.43533
543.85        22.70578
544.29        22.90614
544.72        23.00963
545.16        23.13838
545.60        23.28587
546.04        23.37624
546.47        23.43777
546.91        23.55987
547.35         23.7514
547.79        23.98928
548.22        24.24408
548.66        24.47089
549.10        24.66446
549.53        24.89617
549.97        25.14219
550.41        25.30678
550.84        25.38005
551.28         25.4159
551.72        25.43954
552.15        25.47258
552.59        25.54325
553.03        25.63807
553.46        25.75521
553.90        25.92435
554.34        26.12787
554.77        26.32955
555.21        26.51948
555.65        26.70248
556.08        26.86716
556.52        27.00667
556.96        27.11095
557.39        27.19335
557.83         27.2659
558.27        27.28548
558.70         27.2873
559.14        27.39248
559.57        27.57772
560.01        27.72084
560.45        27.78825
560.88        27.82773
561.32        27.85182
561.75        27.80366
562.19        27.75473
562.63        27.78871
563.06         27.9105
563.50         28.1802
563.93        28.50285
564.37        28.53077
564.80        28.32866
565.24        28.40767
565.68         28.7256
566.11        28.85616
566.55        28.79985
566.98         28.7766
567.42         28.8233
567.85        28.97874
568.29        29.05452
568.72        29.21498
569.16        29.40329
569.60        29.56795
570.03        29.68949
570.47        29.82671
570.90        29.98574
571.34         30.0035
571.77        30.35016
572.21         30.3009
572.64        30.46419
573.08         30.3319
573.51        30.98732
573.95         31.0711
574.38        31.00123
574.82        30.41945
575.25        31.19683
575.69        31.10552
576.12        30.81378
576.56        30.70251
576.99        31.20979
577.42        31.57517
577.86        31.28241
578.29        31.40533
578.73         31.0071
579.16        30.96265
579.60        30.94002
580.03        30.92589
580.47        30.93625
580.90         30.6412
581.33        30.53826
581.77        30.80907
582.20         31.0837
582.64        30.26884
583.07        30.50007
583.51        30.22831
583.94        30.22474
584.37        30.12905
584.81         29.9608
585.24        29.77079
585.68        30.14083
586.11         29.4142
586.54        29.60536
586.98        29.45412
587.41        29.50234
587.85        29.50229
588.28        29.47905
588.71        29.27384
589.15        29.34628
589.58         29.2479
590.01        29.27965
590.45        29.10079
590.88         29.0796
591.31        29.17018
591.75        29.40396
592.18         29.5143
592.61        29.46959
593.05        29.59756
593.48        29.79952
593.91        29.75223
594.35         29.6373
594.78        29.66454
595.21        29.89609
595.65        30.00447
596.08        29.90879
596.51        30.41263
596.94        30.30721
597.38        30.50408
597.81        30.63364
598.24        31.01207
598.68        31.24386
599.11         31.1139
599.54        32.07973
599.97        31.44394
600.41         32.4421
600.84         32.6376
601.27        32.89642
601.70        32.77728
602.14        33.07055
602.57        33.43959
603.00        33.99284
603.43        34.29681
603.87        34.40483
604.30        34.69413
604.73        35.13475
605.16        35.69313
605.60        35.54486
606.03        35.73993
606.46        36.09116
606.89        36.08907
607.32        36.73933
607.76        36.90142
608.19        37.13221
608.62        37.40396
609.05        37.75807
609.48        37.88871
609.92        37.96355
610.35        37.95859
610.78        39.08024
611.21        39.57166
611.64        39.53471
612.07        39.57817
612.50        39.72014
612.94        39.79327
613.37        39.81796
613.80        40.16087
614.23        40.22522
614.66        40.47128
615.09         40.7241
615.52        40.91862
615.96        41.02406
616.39        41.28901
616.82        41.48045
617.25        41.33114
617.68        41.75971
618.11        41.60456
618.54        41.31481
618.97        41.43139
619.40        41.94209
619.84        42.31923
620.27        42.48976
620.70        42.64976
621.13        42.79591
621.56         42.7262
621.99        42.51419
622.42        42.54079
622.85        42.78605
623.28        42.64068
623.71        42.65252
624.14        42.51985
624.57        42.42335
625.00        42.57097
625.43        42.51599
625.86         42.5583
626.29         42.5217
626.72         42.6685
627.15        42.52113
627.58        42.45937
628.01        42.34612
628.44        42.17014
628.87        41.94754
629.30        41.73191
629.73        41.54647
630.16        41.37757
630.59        41.22503
631.02        41.10175
631.45        41.03718
631.88         40.9093
632.31        40.69732
632.74        40.68319
633.17        40.36332
633.60        40.10514
634.03        39.76793
634.46        39.37442
634.89        38.94763
635.32        38.55346
635.75        38.21849
636.18        37.84893
636.61        37.58947
637.04        37.33315
637.47         37.1175
637.89        36.92981
638.32        36.72936
638.75        36.50657
639.18        36.26191
639.61        35.85933
640.04        35.60215
640.47        35.32701
640.90         35.1298
641.33         34.9898
641.76        34.89857
642.18        34.84091
642.61        34.79268
643.04        34.76348
643.47         34.7445
643.90         34.7202
644.33        34.68669
644.76        34.65234
645.18           34.63
645.61        34.59781
646.04         34.5586
646.47        34.59773
646.90        34.75684
647.33        34.68504
647.75        35.04203
648.18        35.28359
648.61        35.58283
649.04        35.89229
649.47        36.20918
649.89        36.52311
650.32        36.79967
650.75        37.10433
651.18        37.41462
651.61         37.5238
652.03        37.51456
652.46        37.87336
652.89        38.54025
653.32        38.83131
653.74        38.81252
654.17        39.27545
654.60         39.1945
655.03        40.03224
655.46        40.15178
655.88        40.25629
656.31         42.5505
656.74        45.43162
657.16        42.75214
657.59        40.53587
658.02        41.87016
658.45        42.79546
658.87        43.04681
659.30        42.83755
659.73        42.54005
660.15        42.65742
660.58        42.88492
661.01        43.12933
661.44        43.20904
661.86         43.1828
662.29        43.11409
662.72         43.2951
663.14        43.70395
663.57        43.84278
664.00         43.7499
664.42        43.91539
664.85        44.31576
665.27        44.49931
665.70        44.46016
666.13        44.51293
666.55        44.67046
666.98        44.76597
667.41        44.80354
667.83        44.84878
668.26        44.90168
668.69        44.96569
669.11         45.0276
669.54          45.041
669.96        45.00091
670.39        44.97557
670.82        45.02262
671.24        45.06758
671.67        45.17314
672.09        45.66556
672.52        46.39122
672.94        46.49858
673.37        46.47435
673.80         46.1282
674.22         45.7932
674.65        45.64948
675.07        45.77541
675.50        46.09145
675.92        46.49878
676.35        46.81256
676.77        46.97793
677.20        47.05066
677.62        47.06147
678.05        47.05625
678.47        47.06796
678.90        47.06508
679.32        47.06716
679.75        47.14844
680.17        47.31995
680.60        47.50659
681.02        47.65018
681.45        47.95042
681.87        47.88885
682.30        47.88559
682.72        47.83544
683.15        47.81733
683.57        47.85681
684.00        47.93734
684.42        48.03551
684.85         48.1157
685.27        48.16519
685.70        48.14472
686.12        48.07519
686.54        48.18552
686.97        48.41937
687.39        48.41542
687.82        48.16315
688.24        48.23503
688.66        48.17769
689.09        48.18498
689.51        48.14017
689.94        48.21722
690.36        48.43688
690.78        48.66459
691.21        48.78859
691.63        49.28095
692.06        48.89056
692.48        49.04295
692.90         49.3359
693.33        49.47986
693.75        49.46909
694.17        49.41894
694.60        49.37245
695.02        49.69986
695.44        49.70023
695.87         49.9852
696.29        50.26265
696.71        50.26921
697.14        50.03074
697.56        49.83554
697.98        49.77003
698.41        49.75147
698.83        49.78289
699.25        49.96786
699.68         50.2282
700.10        50.42822
700.52        50.51182
700.94        50.52341
701.37        50.48478
701.79        50.45237
702.21        50.43714
702.64        50.42431
703.06        50.41491
703.48        50.41888
703.90        50.44108
704.33        50.48489
704.75        50.55187
705.17        50.62784
705.59        50.70999
706.01        50.79709
706.44         50.8886
706.86        51.00936
707.28        51.14297
707.70        51.27471
708.12        51.39766
708.55        51.49904
708.97        51.56928
709.39        51.61872
709.81         51.6424
710.23        51.64516
710.66        51.63313
711.08        51.61115
711.50        51.60648
711.92        51.68085
712.34        51.84063
712.76         52.0653
713.19        52.27981
713.61        52.40158
714.03         52.3851
714.45        52.26135
714.87         52.0979
715.29        51.99835
715.71        51.98873
716.13        52.04126
716.56        52.10173
716.98        52.13368
717.40        52.10706
717.82         52.0435
718.24         51.9777
718.66        51.98664
719.08        52.06867
719.50        52.13661
719.92        52.19541
720.34        52.30627
720.76        52.47081
721.19        52.64426
721.61         52.7694
722.03        52.80385
722.45        52.76957
722.87        52.40491
723.29         52.1083
723.71        52.20208
724.13        52.81282
724.55         52.6324
724.97        53.19291
725.39        53.26029
725.81        53.28439
726.23        53.12695
726.65         52.8992
727.07        52.82117
727.49        52.92235
727.91        53.14669
728.33        53.43042
728.75        53.66823
729.17        53.81646
729.59        53.90836
730.01        53.95567
730.43        53.97218
730.85        53.96973
731.27        53.94077
731.69        53.89775
732.10        53.86882
732.52         53.8599
732.94        53.87202
733.36        53.89511
733.78        53.90575
734.20        53.90088
734.62        53.89291
735.04        53.89126
735.46        53.90797
735.88        53.94288
736.30        53.99127
736.72        54.05394
737.13        54.11561
737.55        54.13403
737.97        54.21507
738.39        54.34088
738.81        54.25132
739.23        54.04707
739.65        54.27068
740.06        54.77197
740.48        54.89831
740.90        54.59997
741.32        54.23349
741.74        53.94286
742.16        53.81895
742.57        53.92867
742.99        54.22523
743.41        54.61917
743.83        54.95179
744.25        55.16556
744.67        55.28984
745.08        55.35975
745.50        55.39959
745.92        55.43649
746.34        55.44777
746.75        55.41574
747.17        55.33728
747.59        55.21409
748.01        55.04776
748.42        54.88161
748.84        54.79871
749.26        54.78466
749.68        54.78687
750.09        54.79584
750.51        54.72804
750.93        54.66463
751.35        54.95834
751.76        55.50544
752.18        55.71714
752.60         55.5456
753.01        55.29363
753.43        55.07739
753.85        54.98313
754.27        55.04931
754.68         55.2265
755.10        55.45514
755.52        55.64024
755.93        55.77126
756.35        55.91619
756.77        56.01276
757.18        56.05344
757.60        56.07258
758.02          55.752
758.43        55.33329
758.85        55.92839
759.26        57.31574
759.68        57.66154
760.10        56.90371
760.51        56.51135
760.93        56.68942
761.34        56.09782
761.76        56.64708
762.18        56.16541
762.59        55.45864
763.01        55.68716
763.42        56.73875
763.84        57.06993
764.26          56.577
764.67        56.00124
765.09        55.62044
765.50        55.67901
765.92        56.08262
766.33        56.14125
766.75        55.83041
767.16        55.75851
767.58        55.98293
768.00        56.49017
768.41        57.15593
768.83        57.44573
769.24        57.28883
769.66        57.15313
770.07        57.04424
770.49        56.52106
770.90        55.79516
771.32        55.82999
771.73        56.52948
772.15        56.86116
772.56        56.76808
772.97        56.80215
773.39        56.98015
773.80        57.12162
774.22        57.19077
774.63        57.25705
775.05        57.27319
775.46        57.22362
775.88        57.09655
776.29        56.91322
776.70         56.7303
777.12        56.65148
777.53        56.71928
777.95        56.89674
778.36        57.11333
778.77        57.22128
779.19        57.19069
779.60        57.06857
780.02        56.94498
780.43          56.967
780.84        57.16705
781.26        57.47472
781.67        57.83132
782.09        58.05843
782.50        58.11812
782.91        58.10467
783.33        58.02324
783.74         57.8883
784.15        57.69498
784.57        57.51821
784.98        57.39477
785.39        57.24346
785.81        57.13873
786.22        57.35884
786.63        57.78222
787.04        57.95643
787.46        57.85127
787.87        57.65283
788.28        57.49652
788.70        57.50778
789.11         57.7059
789.52        58.05384
789.93        58.43945
790.35        58.66959
790.76        58.71564
791.17         58.6338
791.58        58.50322
792.00        58.44904
792.41        58.53045
792.82        58.64828
793.23        58.78421
793.65        59.00701
794.06        59.25285
794.47        59.27959
794.88        59.08138
795.29        58.86022
795.71        58.59046
796.12        58.22947
796.53        57.86927
796.94        57.62611
797.35        57.61318
797.76        58.08947
798.18        58.82624
798.59        59.17889
799.00        59.01527
799.41        58.62083
799.82        58.20335
800.23        58.00901
800.64        58.11924
801.06        58.42616
801.47        58.83759
801.88        59.08923
802.29        59.09601
802.70         58.9438
803.11        58.72352
803.52        58.54926
803.93        58.46366
804.34        58.46968
804.75        58.56867
805.17         58.4961
805.58        58.64563
805.99        58.74983
806.40        58.90398
806.81        58.90627
807.22        58.80878
807.63         58.9345
808.04         59.2183
808.45        59.25454
808.86        59.00508
809.27        58.69387
809.68        58.43343
810.09           58.32
810.50        58.39911
810.91        58.64825
811.32        58.95784
811.73        59.13955
812.14        59.13884
812.55        59.00367
812.96        58.81808
813.37        58.73526
813.78        58.80192
814.19        58.96238
814.60        59.15258
815.01        59.28546
815.42        59.33665
815.83        59.33351
816.24        59.30484
816.65        59.30033
817.05        59.33739
817.46        59.36382
817.87        59.37754
818.28        59.33412
818.69        59.22805
819.10         59.0848
819.51        58.93377
819.92        58.82727
820.33        58.78582
820.74        58.78599
821.14        58.82841
821.55        58.93181
821.96        59.08084
822.37        59.28623
822.78        59.48057
823.19        59.54154
823.60        59.44692
824.00        59.23672
824.41        59.01407
824.82        59.02281
825.23        59.30785
825.64        59.79263
826.04        60.33892
826.45         60.6265
826.86        60.59315
827.27        60.33292
827.68        59.94831
828.08        59.62977
828.49        59.41995
828.90        59.29239
829.31        59.27243
829.72         59.4021
830.12        59.69292
830.53        60.08172
830.94        60.49241
831.35        60.73941
831.75        60.77388
832.16        60.59301
832.57        60.27446
832.97        59.93116
833.38        59.62522
833.79        59.35146
834.20        59.13845
834.60        59.01621
835.01        59.00294
835.42        59.09738
835.82        59.29257
836.23        59.52749
836.64        59.78568
837.04         60.0739
837.45         60.3177
837.86        60.50708
838.26        60.63176
838.67        60.64779
839.08        60.54979
839.48        60.32017
839.89        59.97457
840.29        59.52403
840.70        59.06641
841.11        58.68201
841.51         58.4211
841.92        58.29124
842.33         58.2444
842.73        58.19738
843.14        58.09295
843.54        57.94942
843.95        57.90842
844.35        58.23016
844.76        58.90182
845.17        59.85239
845.57        60.77438
845.98        61.01985
846.38        60.50003
846.79          59.431
847.19        58.23382
847.60        57.57928
848.00        57.62214
848.41        58.13644
848.81        58.93896
849.22        59.62074
849.62         60.0608
850.03        60.32124
850.43        60.39249
850.84        60.16215
851.24        59.68655
851.65        58.96555
852.05        58.19618
852.46        57.72085
852.86        57.60705
853.27        57.79753
853.67        58.11996
854.07        58.47057
854.48        58.75636
854.88        59.06676
855.29        59.25467
855.69        59.23147
856.10        58.91121
856.50        58.39544
856.90        57.85598
857.31        57.58501
857.71        57.67743
858.12        58.00898
858.52        58.54617
858.92        59.04581
859.33        59.38421
859.73        59.64631
860.13        59.76129
860.54        59.64696
860.94        59.34142
861.34        58.84039
861.75        58.26927
862.15        57.94279
862.55        57.90055
862.96        58.08567
863.36        58.35038
863.76        58.45083
864.17        58.31553
864.57        58.06144
864.97        57.74422
865.38        57.43758
865.78         57.2159
866.18        57.00619
866.58        56.89675
866.99        57.04813
867.39        57.47125
867.79        58.09188
868.19        58.66613
868.60        58.79188
869.00        58.41037
869.40        57.66011
869.80        56.79056
870.21        56.25528
870.61        56.22494
871.01        56.52397
871.41        57.02354
871.81        57.53333
872.22        57.95749
872.62        58.40183
873.02        58.77972
873.42        58.91333
873.82        58.77681
874.22        58.40771
874.63        58.02494
875.03        57.95265
875.43        58.25409
875.83        58.81686
876.23        59.46139
876.63        59.85997
877.03        59.92159
877.44        59.79585
877.84        59.51193
878.24        59.14619
878.64        58.76123
879.04        58.29865
879.44        57.96711
879.84        58.08207
880.24         58.6501
880.64        59.60153
881.04        60.49728
881.44        60.54518
881.84        59.60086
882.24        57.97369
882.65        56.29981
883.05        55.39982
883.45        55.48409
883.85         56.3179
884.25         57.5168
884.65        58.36332
885.05        58.59281
885.45        58.40562
885.85         58.0625
886.25        57.96587
886.65        58.21119
887.05        58.62054
887.45        59.00986
887.85        59.11203
888.25        58.85684
888.65        58.37866
889.04        57.80324
889.44        57.32813
889.84         57.0157
890.24        56.83167
890.64        56.77185
891.04        56.82993
891.44        56.98924
891.84        57.24758
892.24        57.58755
892.64        57.97175
893.04        58.38441
893.44        58.83038
893.83        59.27075
894.23        59.57579
894.63        59.74024
895.03        59.74262
895.43           59.71
895.83        59.85754
896.23        60.20952
896.63        60.71249
897.02        61.11175
897.42         60.9882
897.82        60.30125
898.22        59.22266
898.62        58.12738
899.01        57.52414
899.41        57.53424
899.81        58.03538
900.21        58.74232
900.61         59.1047
901.00        58.94403
901.40        58.47072
901.80        58.01099
902.20         58.0387
902.59        58.65919
902.99        59.67287
903.39        60.78955
903.79          61.381
904.18        61.22672
904.58        60.58021
904.98        59.76872
905.38        59.23201
905.77        59.07057
906.17        59.15146
906.57         59.3948
906.96        59.70855
907.36        59.98895
907.76        60.29463
908.15        60.54331
908.55        60.50927
908.95        60.19297
909.34        59.64312
909.74        59.04573
910.14        58.66256
910.53        58.56285
910.93        58.70237
911.33        58.98759
911.72        59.26965
912.12        59.47964
912.52        59.63697
912.91          59.786
913.31        59.96682
913.70        60.20566
914.10        60.44043
914.49         60.5928
914.89        60.48011
915.29         60.1116
915.68        59.57057
916.08        59.06305
916.47        58.85045
916.87        59.00981
917.26         59.3963
917.66        59.90346
918.05        60.36834
918.45        60.69571
918.84        60.97939
919.24        61.04629
919.64         60.7192
920.03        60.00639
920.42        58.96193
920.82        57.96752
921.21        57.44368
921.61        57.46742
922.00        58.00251
922.40         58.6801
922.79         58.9058
923.19        58.50471
923.58        57.67856
923.98         56.9324
924.37        56.99353
924.77        57.99063
925.16        59.70193
925.55        61.58459
925.95        62.63306
926.34        62.55408
926.74        61.62602
927.13         60.3415
927.52        59.45031
927.92        59.16888
928.31        59.26746
928.70        59.53867
929.10        59.62504
929.49        59.43973
929.89        59.15824
930.28        58.89848
930.67        58.77589
931.07        58.82118
931.46        58.95407
931.85        59.20721
932.24        59.68215
932.64        60.33324
933.03        61.18776
933.42        61.95567
933.82        62.17543
934.21        61.78838
934.60        60.91836
934.99        59.98474
935.39        59.60926
935.78        59.91198
936.17        60.69164
936.56        61.59485
936.96        62.01596
937.35        61.81907
937.74        61.20065
938.13        60.32925
938.53        59.46753
938.92        58.73893
939.31        58.12325
939.70        57.75652
940.09        57.86131
940.49        58.39369
940.88        59.28402
941.27        60.31754
941.66        61.09808
942.05        61.43293
942.44        61.40795
942.84        60.91055
943.23         59.7993
943.62        58.24302
944.01        56.44306
944.40        54.89896
944.79         54.2126
945.18        54.44794
945.57        55.46939
945.97        56.87967
946.36        58.07319
946.75        58.63703
947.14        58.71232
947.53        58.54031
947.92        58.56916
948.31        58.92234
948.70        59.38886
949.09        59.84844
949.48        60.13981
949.87        60.19804
950.26         60.1379
950.65        59.92215
951.04        59.46291
951.43        58.80056
951.82        57.97713
952.21         57.2304
952.60        56.91215
952.99         57.0789
953.38          57.649
953.77        58.32663
954.16        58.59334
954.55        58.30279
954.94         57.5776
955.33        56.74841
955.72        56.36766
956.11        56.57565
956.50         57.2186
956.89        57.95595
957.28         58.2271
957.66        57.91339
958.05        57.20243
958.44        56.45693
958.83        56.24592
959.22        56.70238
959.61        57.60782
960.00        58.66796
960.39        59.37502
960.78        59.53728
961.16        59.31511
961.55        58.80107
961.94        58.12593
962.33        57.39145
962.72        56.56345
963.11         55.8234
963.49        55.49486
963.88        55.60293
964.27        56.11634
964.66        56.78585
965.04        57.17957
965.43        57.12207
965.82        56.73343
966.21        56.24379
966.60        56.05016
966.98         56.2756
967.37        56.79129
967.76        57.36751
968.15        57.62594
968.53        57.47898
968.92        56.98413
969.31        56.44317
969.69        56.34452
970.08        56.75955
970.47        57.53722
970.86        58.28098
971.24        58.34997
971.63         57.6336
972.02        56.43093
972.40        55.17064
972.79        54.56065
973.17        54.88328
973.56        55.79057
973.95        57.18518
974.33        58.95721
974.72        60.90846
975.11        63.12009
975.49        65.15239
975.88        65.97444
976.26        65.32261
976.65        63.44746
977.04         61.0943
977.42        59.30449
977.81        58.34622
978.19         57.9002
978.58        57.82121
978.96        57.67583
979.35        57.34149
979.74        56.95469
980.12        56.50945
980.51        55.84904
980.89        55.06491
981.28        54.19407
981.66        53.41918
982.05        53.04203
982.43        53.16478
982.82        53.64799
983.20        54.52791
983.59        55.87012
983.97         57.6781
984.35        59.91902
984.74        61.90506
985.12         62.6671
985.51        61.82687
985.89        59.77781
986.28        57.45402
986.66        55.90769
987.04        55.45931
987.43          55.738
987.81        56.48083
988.20        57.04374
988.58        57.23194
988.96        57.34759
989.35         57.1946
989.73        56.57882
990.12        55.51289
990.50        53.95824
990.88        52.64685
991.27        52.71394
991.65         54.3519
992.03        57.45963
992.42        60.74176
992.80        61.71117
993.18        59.49855
993.56        55.23702
993.95        51.03975
994.33        49.09116
994.71         49.8321
995.10         52.5603
995.48         56.4956
995.86        59.37388
996.24        60.06733
996.63         59.3142
997.01        57.86073
997.39        56.69417
997.77        56.15338
998.15        55.79797
998.54        55.78807
998.92        56.52629
999.30        58.03444
999.68        60.34415
1000.06        62.71063
1000.45        63.61092
1000.83        62.84585
1001.21        60.84766
1001.59        58.59275
1001.97        57.45328
1002.35        57.72775
1002.73        59.00481
1003.12        60.93424
1003.50        62.91406
1003.88        64.51141
1004.26        65.88988
1004.64        66.82018
1005.02        66.97994
1005.40        66.30755
1005.78        64.68261
1006.16          62.611
1006.54        61.00957
1006.92        60.13407
1007.30        59.94873
1007.69        59.73818
1008.07        58.22669
1008.45        55.41911
1008.83        52.10217
1009.21        49.46129
1009.59        48.67636
1009.97        49.80544
1010.35         52.5979
1010.73        56.22827
1011.11        58.61625
1011.49        58.69001
1011.86        56.67576
1012.24         54.1105
1012.62        53.38745
1013.00        55.22232
1013.38        59.38363
1013.76        64.18307
1014.14        65.23693
1014.52        61.55067
1014.90        55.67278
1015.28        50.65441
1015.66         49.1365
1016.04        51.22881
1016.41        56.40816
1016.79        63.67403
1017.17        70.30363
1017.55        73.98585
1017.93        75.03133
1018.31        73.00959
1018.69        68.31641
1019.06        62.41524
1019.44        56.39392
1019.82        51.78611
1020.20        49.70235
1020.58        49.80326
1020.95        51.87211
1021.33        55.11754
1021.71        57.24014
1022.09        57.08649
1022.46        54.97692
1022.84        52.51936
1023.22        51.70671
1023.60        53.05796
1023.97        56.57846
1024.35        60.77886
1024.73        61.09956
