SpectraSmart Spectrum 2.9.0.0
--------- Device Information -----------
Spectrum Name :  反射率_0
Saving Time :  2024/05/03 20:57:48
Spectro-Module Model Name : SE2030-DUVN
Spectro-Module Serial Number : OS361AC55029948
Wavelength Start : 200
Wavelength End : 1025
Wavelength Unit : Wavelength(nm)
Spectrum Unit : Reflectance(%)
-----------Spectrum Setting ------------
Integration Time : 20ms
Average : 10
Boxcar : 0
Background removal :  enabled
linearity correction :  enabled
SC :  disabled
Intensity correction :  disabled
DWT denoise :  enabled
savitzky-golay :  disabled
FFT :  disabled
Running average :  disabled
Kalman :  disabled
High pass :  disabled
---------------BEGIN--------------------
Wavelength(nm)             Reflectance(%)
200.29               0
200.75       -9.004679
201.21       -15.99342
201.67        513.7533
202.13        22.03819
202.58        16.53955
203.04        17.16051
203.50        18.71305
203.96        18.73426
204.42         16.0738
204.88        4.316413
205.34          415.32
205.80        55.66356
206.26        43.74483
206.72       -588.1057
207.18        42.84603
207.64        41.13365
208.10         40.7779
208.55        44.37868
209.01        84.44899
209.47        159.3835
209.93        69.79482
210.39        57.17694
210.85        54.51703
211.31        57.39855
211.77        65.63928
212.23        86.47612
212.69        136.1173
213.14        153.6478
213.60        72.74146
214.06        28.32166
214.52         12.1881
214.98        6.189469
215.44        3.800159
215.90        4.249575
216.36       -64.07166
216.81       -35.47303
217.27       -66.30646
217.73       -164.9666
218.19       -728.1561
218.65       -15943.16
219.11       -1195.065
219.57       -316.7401
220.02       -181.0912
220.48       -328.0194
220.94        430.0755
221.40        151.6314
221.86        111.4825
222.32        102.3848
222.77        104.7626
223.23        117.3923
223.69        139.8651
224.15        153.0974
224.61        143.4447
225.06        125.2662
225.52        114.7813
225.98        118.7649
226.44        136.6321
226.90        167.2041
227.36        206.7289
227.81        234.2162
228.27        234.1416
228.73         216.806
229.19        193.3636
229.65        172.3976
230.10        155.4877
230.56        142.0471
231.02        131.9975
231.48        125.9908
231.93        123.2077
232.39        123.2683
232.85        124.8452
233.31        126.4217
233.77        127.4506
234.22        127.9104
234.68        128.2034
235.14        129.1281
235.60        130.7928
236.05         133.198
236.51        134.5404
236.97        132.1889
237.43        126.0119
237.88        117.4816
238.34        109.6633
238.80        105.8862
239.26        106.8613
239.71        113.7158
240.17        127.8827
240.63        143.1219
241.08        148.4586
241.54        139.6526
242.00        126.0138
242.46        118.8045
242.91        119.6449
243.37        126.2329
243.83        139.8571
244.28        152.4886
244.74        145.4865
245.20        125.1094
245.66        100.1019
246.11        73.86387
246.57         49.1615
247.03        26.82325
247.48        11.34666
247.94        6.187702
248.40        10.22656
248.85        20.91994
249.31        35.43459
249.77        44.87661
250.22        45.99898
250.68        43.03176
251.14        40.16887
251.59        41.38836
252.05        48.15465
252.51        61.49791
252.96         83.2492
253.42        107.3971
253.88        122.2791
254.33        125.5276
254.79        120.8908
255.25        113.1987
255.70        105.9095
256.16        100.7778
256.62        97.57804
257.07        96.25463
257.53        96.74189
257.99        97.76581
258.44        98.72477
258.90        99.73917
259.35        100.0041
259.81        100.3252
260.27        99.94094
260.72        98.11693
261.18        95.85497
261.63        93.22398
262.09        91.34745
262.55        90.70049
263.00        90.99894
263.46        91.96198
263.91        92.97701
264.37        93.70039
264.83        93.85974
265.28        93.59195
265.74        92.94852
266.19        91.50686
266.65        89.57356
267.11        87.18955
267.56        84.87524
268.02        83.55784
268.47        83.24841
268.93        83.73244
269.38        84.40018
269.84        84.20449
270.30        82.94816
270.75        80.99684
271.21        79.00626
271.66        77.73351
272.12        77.33813
272.57        77.41159
273.03        77.61812
273.48        77.44803
273.94        76.77485
274.39         75.8032
274.85        74.57121
275.31        72.92648
275.76        70.94849
276.22        68.84643
276.67        66.97131
277.13        66.04958
277.58         65.9676
278.04        66.52785
278.49        67.09903
278.95        66.79505
279.40         65.4088
279.86        63.46439
280.31          61.364
280.77        59.85212
281.22        58.89764
281.68        58.34621
282.13        57.92569
282.59        57.41579
283.04        56.69051
283.50        55.89878
283.95        55.06186
284.41         54.2947
284.86        53.57234
285.32        52.90955
285.77        52.22226
286.22        51.50413
286.68         50.7878
287.13        50.04752
287.59        49.39275
288.04        48.85513
288.50        48.47205
288.95        48.17435
289.41        47.90687
289.86        47.51713
290.32        47.01481
290.77        46.40093
291.22         45.7837
291.68        45.29334
292.13        44.92359
292.59        44.66604
293.04        44.42039
293.50        44.06026
293.95        43.57017
294.40        43.02299
294.86        42.56565
295.31        42.37841
295.77        42.48553
296.22        42.79229
296.68        43.16514
297.13        43.39157
297.58        43.39423
298.04        43.27265
298.49        43.03349
298.95        42.74303
299.40        42.42144
299.85         42.0691
300.31        41.82048
300.76        41.85072
301.21        42.18366
301.67        42.75585
302.12        43.34739
302.58        43.64808
303.03        43.56769
303.48        43.21726
303.94        42.80212
304.39        42.55227
304.84        42.54892
305.30           42.71
305.75        42.90128
306.20         42.9609
306.66        42.86875
307.11        42.67055
307.57        42.47233
308.02        42.33945
308.47        42.31535
308.93        42.36654
309.38        42.43906
309.83        42.50653
310.29        42.54937
310.74        42.55988
311.19        42.53456
311.65        42.46313
312.10        42.33383
312.55        42.14942
313.00        41.91161
313.46         41.6298
313.91        41.30357
314.36         40.9607
314.82        40.63219
315.27         40.3476
315.72         40.1279
316.18        39.96792
316.63        39.86455
317.08        39.81622
317.53        39.80892
317.99        39.82509
318.44        39.84426
318.89        39.81392
319.35         39.7195
319.80        39.57689
320.25        39.39383
320.70        39.19362
321.16        38.98208
321.61        38.75845
322.06        38.54781
322.51        38.39522
322.97        38.30397
323.42        38.27527
323.87        38.24681
324.32        38.11985
324.78        37.87033
325.23        37.53709
325.68        37.19094
326.13        36.95877
326.59        36.86321
327.04        36.88979
327.49        36.96288
327.94        36.96761
328.39         36.8672
328.85         36.6832
329.30        36.48234
329.75        36.33551
330.20        36.26867
330.66        36.24419
331.11        36.24674
331.56        36.20778
332.01        36.11253
332.46        35.98581
332.92        35.84556
333.37        35.76455
333.82          35.744
334.27        35.76136
334.72        35.80146
335.17        35.84113
335.63        35.85474
336.08        35.86843
336.53        35.85215
336.98        35.77323
337.43        35.63292
337.88        35.44649
338.34        35.25635
338.79         35.1375
339.24        35.11058
339.69        35.16292
340.14        35.26567
340.59        35.36816
341.05         35.4484
341.50         35.5141
341.95        35.57454
342.40        35.65371
342.85        35.74964
343.30        35.84431
343.75        35.90297
344.20        35.87499
344.66        35.76828
345.11        35.61066
345.56        35.44959
346.01        35.35028
346.46        35.33583
346.91        35.38288
347.36        35.49678
347.81        35.68588
348.26        35.92877
348.72        36.20902
349.17        36.44979
349.62        36.54044
350.07        36.46082
350.52        36.24818
350.97        35.96689
351.42        35.72678
351.87        35.56313
352.32        35.44304
352.77        35.36443
353.22        35.31861
353.67        35.29426
354.13        35.31396
354.58         35.3106
355.03        35.20102
355.48        34.98147
355.93        34.68115
356.38        34.39354
356.83        34.27137
357.28        34.33788
357.73        34.53099
358.18        34.75629
358.63        34.85946
359.08        34.79281
359.53        34.60744
359.98        34.33271
360.43        34.01878
360.88         33.6946
361.33        33.34188
361.78        33.00973
362.23        32.77432
362.68        32.64382
363.13        32.60805
363.58        32.57903
364.03        32.40927
364.48        32.07399
364.93        31.61978
365.38        31.16132
365.83        30.87585
366.28        30.80118
366.73        30.88246
367.18        31.00978
367.63        31.00591
368.08        30.82263
368.53         30.5114
368.98        30.16842
369.43        29.93876
369.88        29.85387
370.33        29.86639
370.78        29.88539
371.23        29.76435
371.68        29.47161
372.13        29.06432
372.58        28.64436
373.03        28.35985
373.48        28.24181
373.93         28.2384
374.38         28.2696
374.83        28.20594
375.28        28.01043
375.72        27.72042
376.17        27.41062
376.62        27.14001
377.07        26.92992
377.52        26.76074
377.97        26.62062
378.42        26.49934
378.87        26.39037
379.32        26.29187
379.77        26.21492
380.22        26.16964
380.67        26.15009
381.11        26.15921
381.56        26.13368
382.01        25.99305
382.46        25.73384
382.91        25.38991
383.36        25.06366
383.81        24.90311
384.26        24.92852
384.71        25.09047
385.15        25.27754
385.60        25.32612
386.05        25.18808
386.50        24.91909
386.95        24.60478
387.40        24.37493
387.85        24.26533
388.29        24.22452
388.74        24.22477
389.19        24.17234
389.64        24.04856
390.09        23.88272
390.54         23.7279
390.98        23.64189
391.43        23.64515
391.88         23.7487
392.33        23.88422
392.78        23.83987
393.23        23.66397
393.67        23.62516
394.12        23.72025
394.57        23.69546
395.02        23.54483
395.47        23.39476
395.91        23.28615
396.36        23.21547
396.81        23.20755
397.26        23.27079
397.71        23.33486
398.15        23.32246
398.60        23.25343
399.05        23.01448
399.50        22.72714
399.95        22.82498
400.39        23.21427
400.84        23.20825
401.29        22.81544
401.74        22.60762
402.18        22.60709
402.63        22.49498
403.08        22.32314
403.53        22.14163
403.97        22.28048
404.42        22.41857
404.87        22.58315
405.32        22.66226
405.76        22.62636
406.21        22.51337
406.66        22.36977
407.11        22.27693
407.55        22.26173
408.00        22.29462
408.45        22.33893
408.90        22.32601
409.34        22.23736
409.79        22.09833
410.24        21.96179
410.68         21.8969
411.13        21.91894
411.58        22.00737
412.03        22.10272
412.47        22.10587
412.92        21.98855
413.37        21.79097
413.81        21.58805
414.26        21.50844
414.71        21.56204
415.15        21.72143
415.60        21.89693
416.05         21.9551
416.49         21.8582
416.94         21.6581
417.39        21.43606
417.83        21.30642
418.28        21.29856
418.73        21.37109
419.17        21.48534
419.62        21.56492
420.07        21.58406
420.51         21.5581
420.96         21.5073
421.41        21.44227
421.85        21.36153
422.30        21.27465
422.74        21.17218
423.19         21.1032
423.64        21.05671
424.08        20.99969
424.53        20.93114
424.98        20.93653
425.42        21.03526
425.87        21.13407
426.31        21.22187
426.76        21.40981
427.21        21.62247
427.65        21.56631
428.10        21.31402
428.54        21.20723
428.99        21.28356
429.44        21.48303
429.88        21.66365
430.33        21.48968
430.77        21.06311
431.22        20.88082
431.66        20.97716
432.11         21.1778
432.56         21.4059
433.00        21.52422
433.45        21.39002
433.89        21.37258
434.34        20.75049
434.78        20.70793
435.23        21.10255
435.67        21.18223
436.12        21.00289
436.57        20.92673
437.01        20.99817
437.46        21.04177
437.90        21.05344
438.35        21.08217
438.79        21.10839
439.24         21.0877
439.68        21.02855
440.13        21.00388
440.57        20.99299
441.02        20.93566
441.46        20.83095
441.91        20.69185
442.35        20.55673
442.80        20.62556
443.24        20.83456
443.69         20.9266
444.13        20.87915
444.58        20.87538
445.02        20.90941
445.47        20.86304
445.91        20.75303
446.36        20.68402
446.80        20.66324
447.24        20.66764
447.69        20.69092
448.13        20.72198
448.58        20.75659
449.02        20.79406
449.47        20.83299
449.91        20.85496
450.36         20.8624
450.80        20.85388
451.25        20.83453
451.69        20.80541
452.13         20.7709
452.58         20.7304
453.02        20.69114
453.47        20.67425
453.91        20.68085
454.36        20.70679
454.80        20.72432
455.24        20.72095
455.69         20.7017
456.13        20.60012
456.58           20.45
457.02        20.54394
457.46        20.55771
457.91        20.54624
458.35         20.4235
458.79        20.42016
459.24        20.50813
459.68        20.45305
460.13         20.3061
460.57         20.2491
461.01        20.30431
461.46        20.37126
461.90        20.42123
462.34        20.43712
462.79        20.40401
463.23        20.32869
463.68        20.24875
464.12        20.20781
464.56        20.21416
465.01        20.31049
465.45        20.42503
465.89        20.39555
466.34        20.27056
466.78        20.26844
467.22        20.39865
467.67        20.48823
468.11        20.51607
468.55        20.49793
468.99         20.4513
469.44        20.43194
469.88        20.44901
470.32        20.45152
470.77        20.44332
471.21         20.4648
471.65         20.5123
472.10        20.57277
472.54        20.62099
472.98        20.62858
473.42        20.59173
473.87        20.53111
474.31        20.45385
474.75        20.39049
475.20        20.35874
475.64        20.33986
476.08         20.3346
476.52        20.37301
476.97        20.45658
477.41        20.52062
477.85        20.52679
478.29        20.80531
478.74        20.65637
479.18        20.79155
479.62        20.97025
480.06        21.03803
480.50        20.97954
480.95        20.89629
481.39        20.82743
481.83        20.80181
482.27        20.84638
482.72        20.97834
483.16        21.13626
483.60        21.23671
484.04        21.26678
484.48        21.13621
484.93        20.99454
485.37        21.22221
485.81        21.77491
486.25        21.96966
486.69        22.03296
487.14        21.89122
487.58        21.48803
488.02         21.5802
488.46        22.18065
488.90        21.65539
489.34         21.7403
489.79        21.76534
490.23        22.21091
490.67        22.48141
491.11        22.52805
491.55        22.46029
491.99        22.32925
492.43        22.29934
492.88        22.39432
493.32        22.51842
493.76        22.63592
494.20        22.75023
494.64        22.85492
495.08        22.95181
495.52        23.04696
495.96        23.16476
496.41        23.30604
496.85         23.4163
497.29        23.50986
497.73        23.69696
498.17        23.93318
498.61         24.0419
499.05        24.01652
499.49        23.94162
499.93        23.88101
500.37        23.95242
500.82        24.13287
501.26         24.2412
501.70        24.26234
502.14        24.32146
502.58        24.42005
503.02        24.49297
503.46         24.5386
503.90        24.57786
504.34        24.61625
504.78          24.663
505.22        24.72249
505.66        24.78265
506.10        24.83373
506.54        24.91803
506.98        25.04433
507.42        25.10309
507.86        25.05417
508.30        25.37936
508.74        25.18907
509.18         25.2058
509.62        25.19331
510.06        25.22209
510.50        25.29579
510.94        25.40793
511.38        25.53353
511.82        25.60509
512.26        25.60961
512.70        25.56767
513.14        25.50598
513.58        25.46726
514.02        25.46367
514.46         25.4795
514.90        25.50667
515.34        25.53179
515.78        25.54984
516.22        25.57158
516.66        25.58712
517.10        25.57878
517.54        25.54683
517.98        25.49336
518.42        25.45043
518.86        25.47016
519.30        25.55994
519.74        25.70445
520.18        25.85345
520.62        25.92452
521.06        25.89823
521.50        25.79714
521.93        25.67403
522.37        25.61862
522.81        25.64875
523.25        25.73566
523.69        25.83052
524.13        25.85587
524.57        25.79575
525.01        25.68245
525.45        25.55447
525.89        25.47103
526.32        25.44761
526.76        25.46379
527.20        25.50525
527.64        25.55311
528.08        25.59548
528.52        25.63885
528.96        25.66401
529.40        25.64013
529.83        25.56093
530.27        25.43921
530.71        25.30832
531.15         25.2252
531.59        25.20247
532.03        25.22853
532.46        25.26673
532.90        25.25661
533.34         25.1892
533.78        25.09037
534.22         24.9979
534.66        24.96651
535.09              25
535.53        25.07516
535.97        25.16552
536.41        25.21146
536.85        25.19445
537.28        25.20183
537.72        25.21781
538.16        25.05918
538.60        24.81409
539.04        24.83148
539.47        25.07463
539.91        25.20102
540.35        25.19028
540.79        25.24765
541.22        25.36055
541.66        25.42983
542.10        25.45348
542.54        25.42289
542.97        25.37753
543.41        25.47945
543.85        25.69519
544.29        25.81475
544.72        25.82915
545.16         25.9063
545.60        26.04226
546.04        26.14468
546.47        26.21656
546.91        26.31082
547.35        26.42985
547.79        26.56553
548.22        26.71776
548.66        26.88495
549.10        27.07129
549.53         27.3391
549.97        27.63778
550.41        27.82257
550.84        27.86954
551.28        27.84811
551.72        27.80156
552.15        27.77805
552.59        27.81375
553.03        27.88463
553.46        27.97447
553.90        28.09412
554.34        28.22214
554.77         28.3309
555.21        28.42678
555.65        28.54134
556.08        28.67051
556.52        28.79861
556.96        28.90742
557.39        28.99798
557.83        29.07803
558.27        29.10714
558.70        29.11675
559.14        29.22623
559.57        29.40879
560.01        29.53299
560.45        29.57894
560.88        29.61821
561.32        29.66368
561.75        29.66091
562.19        29.65849
562.63        29.66512
563.06        29.69788
563.50        29.92158
563.93        30.23851
564.37        30.21234
564.80        29.91873
565.24        29.94241
565.68        30.24768
566.11        30.38096
566.55        30.34302
566.98        30.36113
567.42        30.45054
567.85        30.64015
568.29        30.72076
568.72        30.83086
569.16        30.92697
569.60        31.15274
570.03        31.18325
570.47         31.4376
570.90        31.55054
571.34        31.59574
571.77        32.01522
572.21        31.79877
572.64        32.02886
573.08        31.84226
573.51        32.54609
573.95        32.56053
574.38        32.31116
574.82        32.22856
575.25        32.74928
575.69        32.88624
576.12        32.82962
576.56         32.6685
576.99        32.90734
577.42         33.3238
577.86        32.92292
578.29        33.15908
578.73        32.94361
579.16        32.97455
579.60        32.94854
580.03        32.88893
580.47        32.75683
580.90        32.60838
581.33        32.42245
581.77        32.40699
582.20        32.82909
582.64        32.65825
583.07         32.6916
583.51        32.40535
583.94        32.15274
584.37        31.97077
584.81        31.93554
585.24        31.78254
585.68        32.07227
586.11        31.53496
586.54        31.55559
586.98        31.34944
587.41        31.26703
587.85         31.6259
588.28        31.52229
588.71        31.52514
589.15        31.49826
589.58        31.53195
590.01        31.43186
590.45        31.34654
590.88         31.2784
591.31        31.39441
591.75        31.63585
592.18        31.67839
592.61        31.53929
593.05        31.46995
593.48         32.1186
593.91         31.7393
594.35        31.80376
594.78        31.83423
595.21        32.17802
595.65        32.16504
596.08        31.79271
596.51        32.29059
596.94        32.32571
597.38        32.54063
597.81        32.50266
598.24        32.80884
598.68        32.95571
599.11        32.93587
599.54        33.47331
599.97        33.37929
600.41        33.98373
600.84        34.24099
601.27         34.4777
601.70        34.65713
602.14        34.91077
602.57        35.25021
603.00        35.65636
603.43        36.02832
603.87        36.34972
604.30        36.59001
604.73        36.78462
605.16        37.21869
605.60        37.12229
606.03        37.54173
606.46        38.21138
606.89        38.09614
607.32        38.68849
607.76        38.84141
608.19        39.16616
608.62        39.46048
609.05        39.76753
609.48        39.99733
609.92        40.26625
610.35        40.43192
610.78        41.49125
611.21         41.9553
611.64        42.07018
612.07        42.15113
612.50        42.27269
612.94        42.37112
613.37        42.48838
613.80        42.78036
614.23        42.97838
614.66        43.25421
615.09        43.52374
615.52        43.75798
615.96        43.94666
616.39        44.18927
616.82        44.50984
617.25        44.50698
617.68        44.95104
618.11        44.96059
618.54        44.55038
618.97        44.72321
619.40        45.33978
619.84        45.72984
620.27        45.83308
620.70        46.03881
621.13         46.3381
621.56         46.4183
621.99        46.31713
622.42        46.40511
622.85        46.59037
623.28        46.53027
623.71        46.33708
624.14        46.31803
624.57        46.18448
625.00        46.09862
625.43        46.27027
625.86        46.43741
626.29        46.62117
626.72        46.70035
627.15        46.64201
627.58        46.46887
628.01        46.21451
628.44        45.95193
628.87        45.72388
629.30        45.51688
629.73        45.29658
630.16        45.19805
630.59        44.84553
631.02        44.57704
631.45        44.31873
631.88        44.11995
632.31        43.98091
632.74        43.88019
633.17         43.7658
633.60        43.54663
634.03        43.20315
634.46         42.7678
634.89        42.28236
635.32        41.81366
635.75        41.38929
636.18        40.99626
636.61        40.63972
637.04           40.32
637.47        40.02351
637.89        39.78116
638.32        39.57035
638.75        39.28846
639.18        38.91026
639.61        38.79265
640.04        38.35833
640.47        38.10406
640.90        37.86248
641.33        37.64114
641.76        37.44558
642.18        37.30304
642.61        37.20885
643.04        37.15738
643.47        37.12479
643.90        37.06892
644.33        36.97905
644.76         36.8714
645.18        36.78254
645.61        36.72415
646.04        36.70408
646.47        36.80139
646.90        37.02503
647.33        36.94268
647.75        37.24794
648.18        37.38454
648.61        37.57788
649.04        37.84175
649.47        38.17904
649.89        38.55931
650.32        38.93794
650.75         39.2973
651.18        39.62243
651.61        39.91813
652.03        40.21531
652.46        40.53628
652.89         40.8608
653.32        41.14614
653.74        41.51587
654.17        41.54755
654.60        42.05209
655.03        42.66156
655.46        42.82209
655.88        43.47355
656.31        45.46498
656.74        48.92807
657.16         46.0674
657.59        43.53348
658.02        45.38131
658.45         45.8127
658.87        46.78556
659.30         46.1193
659.73        46.47413
660.15        46.62652
660.58        46.58861
661.01        46.79725
661.44        47.03865
661.86        47.22722
662.29        47.35067
662.72        47.66256
663.14         48.1195
663.57        48.23764
664.00        48.11145
664.42        48.31702
664.85        48.84762
665.27        49.20857
665.70        49.33979
666.13        49.49755
666.55        49.67825
666.98        49.72209
667.41        49.70018
667.83        49.79284
668.26        50.02115
668.69        50.35087
669.11        50.68249
669.54        50.84219
669.96        50.80226
670.39        50.64787
670.82        50.52689
671.24        50.59754
671.67        50.92319
672.09         51.5624
672.52        52.35726
672.94        52.67825
673.37        53.01454
673.80        52.76445
674.22        52.31609
674.65         52.1693
675.07        52.42572
675.50        52.84061
675.92        53.28256
676.35         53.5857
676.77        53.69647
677.20        53.67556
677.62        53.61372
678.05        53.65371
678.47        53.82962
678.90        54.08836
679.32         54.3732
679.75        54.64529
680.17        54.88648
680.60         55.0475
681.02        55.11584
681.45        55.41365
681.87        55.37129
682.30        55.44542
682.72        55.49288
683.15        55.56972
683.57        55.68783
684.00        55.84039
684.42         55.9996
684.85        56.10441
685.27        56.13831
685.70        56.10601
686.12        56.03884
686.54        56.08547
686.97         56.2256
687.39        56.32838
687.82        56.36303
688.24         56.4189
688.66        56.49186
689.09        56.50859
689.51        56.50795
689.94        56.63903
690.36        56.93294
690.78        57.23098
691.21        57.40471
691.63        58.02985
692.06        57.63706
692.48        57.90962
692.90        58.34732
693.33        58.56142
693.75        58.53357
694.17        58.40838
694.60        58.30013
695.02        58.71637
695.44        58.83765
695.87          59.463
696.29        60.13813
696.71          60.128
697.14        59.54261
697.56        59.32472
697.98        59.55045
698.41        59.62673
698.83        59.55807
699.25        59.75888
699.68         60.1521
700.10         60.4566
700.52        60.60331
700.94        60.68105
701.37        60.71289
701.79        60.75814
702.21         60.8256
702.64        60.88879
703.06        60.94779
703.48         61.0157
703.90         61.1023
704.33         61.2205
704.75        61.36148
705.17        61.49115
705.59        61.59775
706.01         61.6735
706.44        61.76889
706.86        61.95466
707.28        62.21139
707.70        62.62832
708.12        63.07463
708.55        63.07367
708.97        62.72052
709.39        62.70118
709.81        63.03602
710.23        63.19056
710.66         63.1542
711.08        63.28342
711.50        63.54474
711.92        63.73105
712.34         63.8259
712.76        63.88514
713.19        63.91569
713.61        63.98633
714.03        64.08502
714.45         64.1797
714.87        64.24657
715.29        64.30412
715.71        64.35581
716.13        64.32119
716.56        64.15883
716.98        64.34554
717.40        64.11786
717.82        64.09457
718.24        64.07838
718.66        64.13132
719.08        64.25247
719.50        64.43281
719.92        64.65973
720.34        64.87354
720.76        65.06905
721.19        65.28267
721.61        65.48315
722.03        65.58784
722.45        65.61844
722.87        65.45313
723.29        65.17669
723.71        65.35995
724.13        66.03594
724.55         65.6257
724.97        66.12121
725.39        66.06572
725.81         66.0408
726.23        65.98931
726.65        65.91601
727.07        65.76438
727.49        66.01703
727.91        66.51617
728.33        66.80772
728.75        67.17108
729.17        67.39502
729.59        67.48771
730.01        67.50143
730.43        67.57167
730.85         67.7258
731.27        67.90596
731.69        68.04644
732.10        68.06072
732.52        67.93398
732.94        67.71081
733.36        67.47283
733.78        67.34882
734.20        67.38313
734.62        67.54808
735.04        67.78284
735.46        67.98334
735.88         68.1002
736.30        68.18141
736.72        68.27885
737.13        68.33049
737.55         68.2703
737.97         68.6912
738.39        68.87141
738.81        68.62878
739.23        68.01012
739.65          68.361
740.06        69.42209
740.48        69.73756
740.90        69.21983
741.32        68.66113
741.74        68.29391
742.16        68.12923
742.57        68.25813
742.99        68.70424
743.41         69.3091
743.83        69.66507
744.25        69.75056
744.67        69.92484
745.08          70.216
745.50        70.35032
745.92        70.34596
746.34        70.35023
746.75        70.35479
747.17         70.2961
747.59        70.17961
748.01        70.02663
748.42        69.88129
748.84        69.83194
749.26        69.85869
749.68        69.89031
750.09        69.93623
750.51         69.9388
750.93        69.99706
751.35        70.51964
751.76        71.35274
752.18        71.72459
752.60         71.5519
753.01        71.22094
753.43         70.9229
753.85        70.74918
754.27        70.74538
754.68        71.05704
755.10        71.59405
755.52          71.379
755.93        71.48907
756.35        71.67781
756.77        72.09323
757.18        72.29829
757.60         72.3318
758.02          71.829
758.43        71.03605
758.85        72.33457
759.26        73.35892
759.68        73.90199
760.10         73.4323
760.51        72.79031
760.93        72.33152
761.34        72.29144
761.76        72.98843
762.18        72.68523
762.59        71.72785
763.01        71.83665
763.42        72.96402
763.84         73.3429
764.26        72.90611
764.67        72.49444
765.09        72.32077
765.50        72.47649
765.92        72.87434
766.33        72.79719
766.75        72.27438
767.16        72.32624
767.58        72.88895
768.00        73.35688
768.41        73.64861
768.83        74.14118
769.24        74.63747
769.66        74.44756
770.07        73.69784
770.49        73.10957
770.90        72.83049
771.32        72.86234
771.73        73.15843
772.15        73.41438
772.56        73.61414
772.97         73.9228
773.39        74.27573
773.80        74.61158
774.22        74.81252
774.63        74.75332
775.05        74.46286
775.46        74.25083
775.88        74.15126
776.29        74.03876
776.70        73.95334
777.12        74.02843
777.53        74.28944
777.95        74.67982
778.36        75.09009
778.77        75.29475
779.19        75.25465
779.60        75.04434
780.02        74.78844
780.43        74.71796
780.84        74.90015
781.26        75.16072
781.67        75.48233
782.09        75.92905
782.50        76.36602
782.91        76.44049
783.33        76.17928
783.74        76.04694
784.15        76.04839
784.57        75.95795
784.98        75.80618
785.39        75.69978
785.81        75.68204
786.22         75.8459
786.63        76.08859
787.04        76.13468
787.46        75.97303
787.87        75.68599
788.28        75.46037
788.70        75.50121
789.11        75.81551
789.52        76.44196
789.93        77.16439
790.35        77.35949
790.76        77.08649
791.17        77.02578
791.58        77.22059
792.00        77.23083
792.41        77.10878
792.82        77.06844
793.23         77.1627
793.65        77.48538
794.06        77.99473
794.47        78.28906
794.88        78.22503
795.29        78.40527
795.71        77.93787
796.12        77.41965
796.53        76.79704
796.94        76.53799
797.35        76.75958
797.76        77.39947
798.18        78.17825
798.59          78.616
799.00        78.55418
799.41        78.15009
799.82        77.64366
800.23        77.40768
800.64        77.54224
801.06        77.89201
801.47        78.34886
801.88         78.5966
802.29        78.53201
802.70        78.24816
803.11        77.88005
803.52        77.63071
803.93        77.57677
804.34        77.67348
804.75         77.8245
805.17        77.90498
805.58        77.91311
805.99        77.75114
806.40        77.57084
806.81        77.88565
807.22        78.57535
807.63        78.95174
808.04        78.94373
808.45        78.94865
808.86        78.95233
809.27        78.66335
809.68        78.19284
810.09        77.91345
810.50        77.89571
810.91        78.03441
811.32        78.25086
811.73        78.38622
812.14        78.38444
812.55        78.37287
812.96        78.35526
813.37        78.16953
813.78        77.91429
814.19        77.93913
814.60        78.21783
815.01        78.42271
815.42        78.53439
815.83         78.7396
816.24         79.0328
816.65        79.28091
817.05        79.45045
817.46        79.53247
817.87        79.52825
818.28        79.38914
818.69        79.12663
819.10        78.75829
819.51        78.39404
819.92        78.23975
820.33        78.34528
820.74        78.63705
821.14        78.99445
821.55        79.24858
821.96        79.33646
822.37        79.32689
822.78        79.22563
823.19        79.04628
823.60        78.83117
824.00         78.5972
824.41        78.43266
824.82        78.57957
825.23        79.06568
825.64        79.81097
826.04        80.66103
826.45        81.22791
826.86        81.43053
827.27         81.3656
827.68        81.09497
828.08        80.76437
828.49        80.40786
828.90        80.01038
829.31        79.70962
829.72        79.72991
830.12        80.13562
830.53         80.8224
830.94        81.56399
831.35        81.88793
831.75        81.67915
832.16        80.99958
832.57        80.15431
832.97        79.61356
833.38        79.51375
833.79        79.72829
834.20        80.04906
834.60        80.13886
835.01        79.93887
835.42        79.57082
835.82         79.2282
836.23        79.15832
836.64        79.44555
837.04        80.02187
837.45        80.66756
837.86        81.15569
838.26        81.40038
838.67        81.40749
839.08        81.27276
839.48        81.13078
839.89        81.02007
840.29        80.86689
840.70        80.67053
841.11        80.35996
841.51        79.96417
841.92        79.56412
842.33         79.1839
842.73        78.85953
843.14        78.58437
843.54        78.35622
843.95        78.35469
844.35         78.9134
844.76        79.98991
845.17        81.47793
845.57        82.94404
845.98        83.46798
846.38        82.90273
846.79        81.55207
847.19        79.92091
847.60        78.82471
848.00        78.48555
848.41        78.63596
848.81        79.21524
849.22        79.99283
849.62        80.87547
850.03        81.86414
850.43        82.70793
850.84        82.82281
851.24        82.16261
851.65        80.83549
852.05        79.30407
852.46        78.37091
852.86        78.22041
853.27        78.64559
853.67            79.3
854.07        79.91092
854.48        80.31564
854.88        80.71539
855.29        80.89153
855.69        80.70657
856.10        80.04883
856.50         79.0322
856.90        78.02044
857.31        77.61507
857.71        77.96777
858.12        78.89331
858.52        80.09303
858.92        80.76455
859.33         80.6395
859.73        79.98034
860.13        79.11446
860.54        78.61073
860.94        78.67248
861.34        79.09533
861.75        79.63345
862.15        79.99512
862.55        80.01772
862.96        79.81946
863.36        79.51287
863.76        79.26518
864.17        79.13147
864.57        79.09498
864.97        79.04321
865.38        78.79656
865.78        78.36647
866.18        77.76843
866.58        77.23866
866.99        77.17175
867.39        77.64983
867.79        78.50864
868.19        79.33436
868.60        79.46167
869.00        78.78165
869.40        77.53224
869.80        76.12545
870.21        75.29722
870.61        75.30261
871.01        75.85592
871.41        76.72329
871.81        77.56461
872.22        78.22723
872.62        78.89345
873.02        79.44639
873.42        79.64928
873.82        79.46819
874.22        78.92567
874.63        78.37698
875.03        78.34695
875.43        78.93121
875.83        79.96885
876.23        81.07668
876.63        81.56801
877.03        81.28959
877.44        80.53149
877.84        79.56981
878.24        78.88183
878.64        78.60897
879.04        78.50415
879.44        78.63508
879.84        79.12498
880.24        79.90536
880.64        81.00011
881.04        81.83947
881.44        81.40679
881.84         79.6056
882.24        76.87675
882.65        74.25479
883.05        73.09737
883.45        73.71178
883.85        75.70577
884.25        78.36153
884.65        80.31712
885.05        81.04299
885.45        80.87311
885.85        80.24832
886.25        79.87553
886.65        79.95853
887.05        80.23055
887.45        80.45138
887.85        80.28625
888.25        79.66867
888.65        78.80466
889.04        77.93346
889.44        77.39866
889.84        77.27556
890.24        77.48061
890.64         77.8504
891.04        78.12043
891.44        78.20958
891.84        78.18342
892.24        78.19003
892.64        78.45842
893.04        79.03663
893.44        79.85078
893.83        80.72091
894.23        81.25948
894.63        81.39483
895.03         81.1822
895.43        80.88603
895.83        80.93038
896.23        81.39654
896.63        82.17194
897.02         82.8735
897.42        82.88654
897.82        82.12026
898.22        80.79655
898.62        79.43961
899.01        78.77029
899.41        78.94479
899.81        79.77666
900.21        80.78373
900.61        81.06106
901.00        80.36922
901.40        79.10715
901.80        77.88142
902.20        77.52023
902.59        78.20923
902.99        79.64491
903.39        81.40998
903.79        82.57863
904.18        82.77324
904.58        82.30209
904.98        81.57649
905.38        81.17702
905.77        81.23362
906.17        81.55804
906.57        81.97781
906.96        82.27635
907.36        82.31362
907.76        82.21439
908.15        82.03099
908.55         81.7336
908.95        81.39104
909.34        80.99966
909.74        80.63794
910.14        80.38116
910.53        80.25565
910.93        80.28242
911.33        80.44905
911.72        80.73879
912.12        81.11327
912.52        81.53093
912.91        81.97581
913.31        82.40622
913.70        82.81229
914.10        83.12524
914.49         83.2804
914.89        83.08965
915.29        82.57964
915.68        81.85259
916.08        81.09686
916.47        80.54353
916.87        80.30678
917.26        80.27603
917.66        80.47083
918.05        80.89132
918.45        81.45882
918.84        82.22826
919.24        82.88218
919.64        83.00242
920.03        82.50609
920.42        81.51008
920.82         80.4846
921.21        79.94788
921.61        80.01358
922.00        80.58353
922.40        81.33183
922.79        81.80051
923.19        81.78882
923.58        81.47227
923.98        81.12674
924.37        81.10922
924.77        81.51267
925.16          82.228
925.55        83.03931
925.95        83.56366
926.34        83.70678
926.74        83.53124
927.13        83.18673
927.52        82.90372
927.92        82.75157
928.31        82.66869
928.70        82.56272
929.10        82.26304
929.49        81.78709
929.89        81.24501
930.28        80.81917
930.67        80.74018
931.07        81.04124
931.46        81.62316
931.85        82.40679
932.24        83.29363
932.64        84.15903
933.03        85.07941
933.42        85.77981
933.82        85.85815
934.21        85.30719
934.60        84.23605
934.99        83.10668
935.39        82.60008
935.78        82.84639
936.17        83.63487
936.56        84.59609
936.96        85.08249
937.35        84.94695
937.74        84.39389
938.13        83.54898
938.53        82.60786
938.92         81.7023
939.31         80.8575
939.70        80.30353
940.09        80.41709
940.49        81.15895
940.88        82.38608
941.27        83.83813
941.66        85.02957
942.05        85.70742
942.44        86.01891
942.84        85.65987
943.23         84.1952
943.62        81.83985
944.01        78.96278
944.40        76.54328
944.79        75.81854
945.18        76.92854
945.57        79.57473
945.97        82.89998
946.36        85.39233
946.75         86.1996
947.14        85.68735
947.53        84.49362
947.92         83.7377
948.31        83.75604
948.70        84.12567
949.09         84.6188
949.48         84.8987
949.87        84.84238
950.26        84.71255
950.65        84.43947
951.04        83.83213
951.43        82.93842
951.82        81.79176
952.21        80.81362
952.60        80.66434
952.99        81.42198
953.38         82.8914
953.77        84.46535
954.16        85.09029
954.55        84.47234
954.94        82.89054
955.33        80.97913
955.72        79.79449
956.11        79.65395
956.50        80.29907
956.89        81.23798
957.28        81.64619
957.66        81.32277
958.05        80.52972
958.44        79.75314
958.83        79.74236
959.22        80.65125
959.61        82.16723
960.00        83.78897
960.39         84.6769
960.78        84.56207
961.16        83.73147
961.55        82.51285
961.94        81.40387
962.33        80.62561
962.72        80.06273
963.11        79.78745
963.49        79.93946
963.88        80.45467
964.27        81.33366
964.66        82.36482
965.04        83.18114
965.43        83.58437
965.82        83.64561
966.21        83.45661
966.60        83.22259
966.98        83.04411
967.37        82.85003
967.76        82.63618
968.15        82.37493
968.53        82.09355
968.92        81.78591
969.31        81.56024
969.69        81.55267
970.08        81.73649
970.47        82.06987
970.86        82.39665
971.24        82.46986
971.63         82.2377
972.02        81.84786
972.40        81.46236
972.79        81.28666
973.17        81.49619
973.56        81.94933
973.95        82.74392
974.33        84.08125
974.72        85.82929
975.11        87.90503
975.49        90.02311
975.88        91.33805
976.26        91.53995
976.65        90.78245
977.04        89.17967
977.42        86.85997
977.81        84.11581
978.19        80.99603
978.58        78.18578
978.96        76.52296
979.35        76.19265
979.74        76.93304
980.12        78.21574
980.51        78.94869
980.89        78.90163
981.28        78.37794
981.66        77.67753
982.05        77.26167
982.43        77.35129
982.82         77.6357
983.20        78.35061
983.59         79.9487
983.97         82.4898
984.35        85.89147
984.74        89.02818
985.12         90.0964
985.51        88.47443
985.89        84.93423
986.28        80.95176
986.66        78.22475
987.04        77.26616
987.43         77.4883
987.81        78.65009
988.20        80.02057
988.58        81.28924
988.96        82.69032
989.35        83.72745
989.73        83.72522
990.12        82.60609
990.50        80.43623
990.88        78.19798
991.27        77.39809
991.65        78.35154
992.03        80.86855
992.42        83.67209
992.80        84.47185
993.18         82.3663
993.56        78.45189
993.95         74.6767
994.33        72.90524
994.71        73.57926
995.10        76.03184
995.48        79.56715
995.86        82.02004
996.24         82.3882
996.63        81.41586
997.01        79.98206
997.39        79.30829
997.77        79.70932
998.15        80.59737
998.54         81.8456
998.92        83.37681
999.30        84.97234
999.68        86.83382
1000.06        88.10619
1000.45        87.20509
1000.83        84.18803
1001.21         79.6346
1001.59        75.31393
1001.97        73.58339
1002.35        74.83247
1002.73        78.48635
1003.12         83.2341
1003.50        86.62784
1003.88        87.63631
1004.26         86.8894
1004.64        85.40018
1005.02        84.89327
1005.40        85.79437
1005.78        87.34128
1006.16         88.8584
1006.54        89.32726
1006.92        88.36803
1007.30        86.43133
1007.69        83.58562
1008.07        80.23792
1008.45        76.99065
1008.83        74.07086
1009.21        72.01238
1009.59        71.22756
1009.97        71.66136
1010.35        73.38108
1010.73        75.86805
1011.11        77.72755
1011.49        78.24508
1011.86        77.37462
1012.24        76.41043
1012.62        77.56171
1013.00         81.4487
1013.38        87.90083
1013.76         94.7345
1014.14        96.26676
1014.52        91.23912
1014.90        83.06306
1015.28        75.62865
1015.66        72.12145
1016.04        72.58748
1016.41        76.24146
1016.79        82.29926
1017.17        88.95892
1017.55        94.36439
1017.93         98.8078
1018.31         100.566
1018.69        97.43924
1019.06         90.2948
1019.44        81.44142
1019.82        73.92071
1020.20         70.1228
1020.58        69.69381
1020.95        72.05476
1021.33         75.9547
1021.71        78.20246
1022.09        77.32038
1022.46        74.00431
1022.84        70.56152
1023.22        69.84408
1023.60        72.62183
1023.97        79.00927
1024.35        86.86662
1024.73        89.13903
