SpectraSmart Spectrum 2.9.0.0
--------- Device Information -----------
Spectrum Name :  反射率_0
Saving Time :  2024/05/03 20:54:17
Spectro-Module Model Name : SE2030-DUVN
Spectro-Module Serial Number : OS361AC55029948
Wavelength Start : 200
Wavelength End : 1025
Wavelength Unit : Wavelength(nm)
Spectrum Unit : Reflectance(%)
-----------Spectrum Setting ------------
Integration Time : 20ms
Average : 10
Boxcar : 0
Background removal :  enabled
linearity correction :  enabled
SC :  disabled
Intensity correction :  disabled
DWT denoise :  enabled
savitzky-golay :  disabled
FFT :  disabled
Running average :  disabled
Kalman :  disabled
High pass :  disabled
---------------BEGIN--------------------
Wavelength(nm)             Reflectance(%)
200.29               0
200.75        75.19466
201.21        125.9325
201.67       -3139.991
202.13       -78.12381
202.58        -25.7511
203.04       -3.311963
203.50        8.535814
203.96        10.93024
204.42        2.361057
204.88       -42.80501
205.34        1627.149
205.80        180.7637
206.26        167.8416
206.72         20196.6
207.18       -3.703516
207.64        11.45517
208.10        -10.5817
208.55       -103.6293
209.01       -1086.197
209.47       -1749.857
209.93       -240.8241
210.39       -80.72565
210.85       -35.48168
211.31       -19.93888
211.77       -15.05947
212.23       -15.87518
212.69       -24.39104
213.14       -26.83381
213.60        -12.8562
214.06       -5.243123
214.52       -3.599795
214.98       -5.752499
215.44       -13.19527
215.90       -43.51843
216.36        354.6867
216.81        61.53344
217.27        36.82515
217.73        11.49299
218.19       -94.39404
218.65       -2629.442
219.11       -115.5067
219.57        22.45146
220.02        55.61837
220.48        113.0086
220.94       -76.87615
221.40      -0.9948999
221.86        11.41791
222.32        14.48034
222.77         14.0467
223.23        11.78018
223.69        7.912147
224.15         6.06204
224.61        8.793287
225.06        12.45943
225.52        15.90467
225.98        19.71961
226.44        24.59124
226.90        31.33834
227.36        38.58651
227.81        40.79224
228.27        35.93081
228.73         27.7921
229.19        20.72532
229.65        17.83594
230.10        18.36761
230.56        20.63168
231.02        23.40084
231.48        25.61995
231.93        27.14385
232.39        28.45907
232.85        29.59286
233.31         30.5206
233.77        31.27314
234.22        31.71618
234.68        32.10043
235.14        32.89071
235.60        34.18699
236.05        36.01674
236.51        37.75756
236.97        38.20134
237.43        37.04575
237.88        34.95552
238.34        32.93297
238.80        31.94817
239.26        32.23099
239.71        36.19038
240.17         40.8765
240.63        47.67835
241.08        51.17205
241.54        49.26545
242.00        44.87931
242.46        42.45455
242.91        42.80314
243.37        44.97763
243.83        48.18416
244.28        45.52604
244.74        30.30243
245.20        9.884239
245.66       -5.605026
246.11       -13.01678
246.57       -14.18911
247.03         -11.148
247.48       -6.445859
247.94       -2.707949
248.40       0.1044319
248.85        2.391109
249.31          5.2354
249.77        9.098247
250.22         12.9618
250.68        15.85307
251.14        18.00355
251.59        20.25623
252.05        23.45131
252.51        28.64048
252.96        36.10799
253.42        43.05554
253.88         45.8198
254.33        44.59481
254.79        42.92675
255.25        43.20327
255.70        44.62844
256.16        46.46842
256.62        47.92385
257.07         48.6362
257.53        49.11666
257.99        49.31575
258.44        49.34156
258.90        49.75055
259.35        50.11531
259.81        50.61984
260.27        50.73692
260.72        49.99192
261.18        48.85731
261.63        47.41574
262.09        46.25082
262.55        45.61996
263.00        45.39645
263.46         45.4668
263.91        45.48423
264.37        45.23341
264.83        44.63094
265.28        43.79429
265.74        42.91098
266.19        41.99335
266.65        41.16436
267.11        40.33675
267.56        39.55017
268.02        38.94648
268.47        38.48934
268.93        38.18563
269.38        37.89537
269.84        37.38411
270.30        36.64767
270.75        35.75375
271.21        34.97286
271.66        34.60578
272.12        34.68199
272.57        35.03666
273.03        35.38226
273.48        35.28277
273.94        34.66191
274.39        33.69736
274.85        32.61308
275.31        31.63404
275.76         30.8363
276.22        30.19348
276.67        29.71905
277.13        29.54711
277.58        29.58609
278.04         29.8155
278.49        29.98464
278.95         29.7568
279.40        29.06609
279.86        28.13422
280.31        27.15481
280.77        26.48749
281.22        26.11794
281.68        25.97418
282.13        25.91862
282.59        25.81909
283.04        25.61307
283.50        25.36898
283.95        25.10704
284.41         24.8812
284.86        24.68563
285.32        24.52042
285.77        24.34587
286.22         24.1684
286.68        24.00075
287.13        23.82937
287.59        23.69317
288.04        23.59323
288.50        23.55025
288.95        23.53739
289.41        23.55173
289.86        23.54441
290.32         23.5256
290.77        23.48711
291.22        23.46658
291.68        23.50795
292.13        23.61593
292.59        23.81289
293.04         24.0577
293.50          24.299
293.95        24.52151
294.40        24.74017
294.86        25.04529
295.31        25.57318
295.77        26.33375
296.22        27.25846
296.68        28.19122
297.13        28.86993
297.58        29.21492
298.04        29.32883
298.49        29.31071
298.95        29.35302
299.40         29.5082
299.85        29.73533
300.31        30.06915
300.76        30.53169
301.21        31.11415
301.67        31.80999
302.12        32.49483
302.58        32.98889
303.03        33.24037
303.48        33.30738
303.94        33.33059
304.39        33.47141
304.84        33.78585
305.30        34.21297
305.75        34.64991
306.20        34.96958
306.66        35.14846
307.11        35.21507
307.57         35.2333
308.02        35.22591
308.47        35.23265
308.93        35.24636
309.38        35.26019
309.83        35.30935
310.29        35.39092
310.74        35.47929
311.19        35.55387
311.65        35.57407
312.10        35.51758
312.55         35.4012
313.00        35.21359
313.46        34.94272
313.91        34.59205
314.36         34.1897
314.82        33.80661
315.27        33.54013
315.72        33.41905
316.18        33.41664
316.63        33.47179
317.08        33.48739
317.53        33.42951
317.99        33.31265
318.44        33.16959
318.89        33.04284
319.35        32.94434
319.80        32.85636
320.25        32.75379
320.70         32.6062
321.16        32.40222
321.61        32.16237
322.06        31.91011
322.51        31.68542
322.97        31.49886
323.42        31.34761
323.87        31.20666
324.32        31.03866
324.78         30.8306
325.23        30.60417
325.68         30.3755
326.13        30.17617
326.59        30.00531
327.04        29.86795
327.49        29.74509
327.94        29.61818
328.39        29.47714
328.85         29.3169
329.30        29.14857
329.75        28.96043
330.20        28.75345
330.66        28.52062
331.11        28.28353
331.56        28.04029
332.01        27.79731
332.46        27.56097
332.92        27.33137
333.37        27.13969
333.82        26.98292
334.27        26.86206
334.72          26.776
335.17         26.7219
335.63        26.68282
336.08        26.66088
336.53        26.64186
336.98        26.61756
337.43        26.58018
337.88        26.53302
338.34        26.44692
338.79        26.28123
339.24        26.03975
339.69        25.74585
340.14        25.47203
340.59        25.33418
341.05        25.35549
341.50        25.50042
341.95        25.69561
342.40        25.82361
342.85        25.84582
343.30        25.79236
343.75        25.68789
344.20        25.57767
344.66        25.48968
345.11        25.40402
345.56        25.33165
346.01         25.2894
346.46        25.27927
346.91        25.29859
347.36        25.33793
347.81        25.37825
348.26        25.40955
348.72        25.43342
349.17        25.43288
349.62        25.39217
350.07         25.3091
350.52         25.1858
350.97        25.04238
351.42        24.91319
351.87        24.80607
352.32        24.71374
352.77        24.61829
353.22        24.48899
353.67        24.32408
354.13        24.14819
354.58        23.97123
355.03        23.82614
355.48        23.72371
355.93        23.65631
356.38        23.61981
356.83        23.60908
357.28        23.61412
357.73        23.62553
358.18        23.63382
358.63        23.62423
359.08        23.59065
359.53        23.53867
359.98        23.45098
360.43        23.30545
360.88        23.10352
361.33        22.84883
361.78        22.59863
362.23        22.43855
362.68        22.38303
363.13        22.41661
363.58        22.45021
364.03          22.339
364.48        22.06113
364.93         21.6644
365.38        21.27636
365.83        21.09395
366.28        21.15335
366.73        21.38756
367.18        21.66018
367.63        21.74938
368.08        21.59593
368.53        21.26918
368.98        20.88146
369.43        20.60334
369.88        20.48157
370.33        20.46607
370.78        20.48597
371.23        20.42597
371.68         20.2551
372.13        20.01694
372.58        19.77794
373.03        19.63188
373.48        19.59493
373.93        19.62796
374.38        19.66432
374.83        19.59998
375.28        19.41146
375.72         19.1342
376.17        18.84291
376.62        18.60954
377.07        18.45382
377.52         18.3495
377.97        18.28007
378.42        18.22199
378.87        18.16374
379.32        18.11405
379.77        18.06516
380.22        18.00071
380.67        17.91813
381.11         17.8236
381.56        17.71789
382.01        17.62296
382.46        17.54748
382.91        17.48441
383.36        17.43844
383.81        17.41395
384.26         17.4068
384.71        17.41685
385.15        17.41245
385.60        17.36018
386.05        17.24855
386.50        17.08659
386.95        16.92027
387.40        16.81878
387.85        16.79553
388.29         16.8265
388.74        16.86914
389.19         16.8218
389.64        16.66996
390.09        16.43945
390.54        16.21689
390.98        16.12537
391.43        16.19005
391.88        16.39026
392.33        16.60888
392.78        16.59571
393.23        16.37153
393.67        16.16027
394.12        16.02551
394.57        15.89273
395.02        15.78053
395.47        15.74303
395.91        15.75355
396.36        15.71826
396.81        15.63311
397.26        15.53888
397.71        15.44148
398.15        15.36448
398.60        15.33491
399.05        15.24687
399.50        15.14075
399.95        15.25298
400.39        15.50964
400.84        15.46852
401.29        15.15868
401.74        14.99727
402.18        15.00869
402.63        14.96736
403.08         14.8923
403.53        14.79573
403.97        14.88944
404.42        14.96359
404.87        15.04125
405.32        15.05236
405.76         14.9835
406.21        14.86614
406.66        14.72809
407.11        14.61811
407.55        14.55581
408.00        14.52035
408.45        14.51665
408.90        14.54829
409.34        14.60417
409.79        14.67718
410.24        14.73868
410.68        14.74389
411.13         14.6881
411.58        14.58519
412.03        14.45182
412.47        14.32874
412.92        14.23291
413.37        14.15645
413.81        14.11036
414.26        14.12376
414.71        14.18607
415.15        14.29732
415.60        14.39918
416.05        14.40135
416.49        14.28464
416.94        14.08246
417.39        13.86386
417.83        13.72929
418.28        13.70181
418.73        13.74865
419.17        13.83513
419.62        13.89338
420.07        13.89948
420.51        13.87001
420.96        13.81661
421.41        13.74463
421.85        13.65549
422.30        13.55609
422.74        13.44989
423.19        13.38457
423.64        13.35363
424.08        13.33105
424.53        13.30385
424.98        13.30615
425.42        13.34521
425.87        13.37216
426.31        13.38516
426.76        13.46447
427.21         13.5659
427.65        13.50111
428.10        13.33006
428.54        13.28717
428.99        13.39427
429.44        13.60852
429.88        13.80499
430.33          13.715
430.77        13.39496
431.22        13.17865
431.66        13.12866
432.11        13.17672
432.56        13.28643
433.00        13.43789
433.45        13.49114
433.89        13.38237
434.34        12.74573
434.78         12.7539
435.23        13.26668
435.67        13.40722
436.12        13.16577
436.57        13.02516
437.01        13.03234
437.46        13.01872
437.90        12.99212
438.35        13.00105
438.79        13.01686
439.24        12.98362
439.68        12.90267
440.13        12.82621
440.57        12.76085
441.02        12.70395
441.46        12.66081
441.91        12.62387
442.35        12.59578
442.80          12.674
443.24        12.81342
443.69        12.86305
444.13        12.81827
444.58        12.80646
445.02        12.82906
445.47        12.80896
445.91        12.75013
446.36        12.70744
446.80        12.68338
447.24        12.66584
447.69        12.65998
448.13        12.67258
448.58        12.70223
449.02        12.74376
449.47        12.78055
449.91        12.77793
450.36        12.73442
450.80        12.65995
451.25        12.57638
451.69        12.51431
452.13        12.48393
452.58        12.47555
453.02        12.48251
453.47        12.49949
453.91        12.52091
454.36        12.54954
454.80        12.56894
455.24        12.57069
455.69        12.55845
456.13        12.48901
456.58         12.3899
457.02        12.44947
457.46        12.47351
457.91        12.49363
458.35        12.44411
458.79        12.44455
459.24        12.47527
459.68        12.39743
460.13        12.26406
460.57        12.21551
461.01        12.26998
461.46        12.35667
461.90        12.43079
462.34        12.43467
462.79        12.35152
463.23        12.20294
463.68        12.04805
464.12        11.97124
464.56        11.99124
465.01        12.11022
465.45        12.25702
465.89        12.29356
466.34        12.23843
466.78         12.2366
467.22        12.30031
467.67        12.33629
468.11        12.33656
468.55        12.30476
468.99        12.25702
469.44        12.23741
469.88         12.2529
470.32        12.27401
470.77        12.29108
471.21        12.30559
471.65        12.31263
472.10        12.31226
472.54        12.30888
472.98         12.3164
473.42         12.3378
473.87        12.37387
474.31         12.4082
474.75        12.42831
475.20        12.43661
475.64         12.4293
476.08         12.4206
476.52        12.45015
476.97         12.5243
477.41        12.59673
477.85        12.63184
478.29        12.81403
478.74        12.70888
479.18        12.76278
479.62         12.8425
480.06         12.8763
480.50         12.8596
480.95        12.84716
481.39         12.8501
481.83        12.86751
482.27        12.91447
482.72        13.01248
483.16         13.1319
483.60        13.23465
484.04        13.31406
484.48        13.30476
484.93         13.3181
485.37        13.57845
485.81         13.9961
486.25        14.29367
486.69        14.22178
487.14        13.93861
487.58        14.11351
488.02        14.13508
488.46         14.2186
488.90        14.17951
489.34        13.88488
489.79        13.96451
490.23        14.31865
490.67         14.6068
491.11        14.75501
491.55        14.77051
491.99        14.71464
492.43         14.7833
492.88        14.99565
493.32        15.21555
493.76        15.39412
494.20         15.5388
494.64        15.64186
495.08        15.69978
495.52        15.74536
495.96        15.84456
496.41        16.00925
496.85        16.19189
497.29        16.37121
497.73        16.57355
498.17        16.75718
498.61        16.81316
499.05        16.77021
499.49        16.74101
499.93        16.78125
500.37        16.95578
500.82        17.21325
501.26        17.36731
501.70        17.39388
502.14        17.40227
502.58        17.42887
503.02        17.48256
503.46        17.57578
503.90        17.70497
504.34        17.84629
504.78        17.95993
505.22        18.03487
505.66        18.07832
506.10        18.10005
506.54        18.15737
506.98        18.26558
507.42        18.33436
507.86        18.33065
508.30         18.6027
508.74        18.49529
509.18        18.54113
509.62        18.56003
510.06        18.59162
510.50        18.63693
510.94         18.6933
511.38        18.75514
511.82         18.7942
512.26        18.80692
512.70        18.80505
513.14          18.793
513.58        18.77796
514.02        18.76358
514.46        18.74326
514.90        18.73169
515.34        18.75289
515.78        18.80791
516.22        18.89241
516.66        18.96776
517.10        18.97145
517.54        18.89617
517.98        18.76377
518.42         18.6308
518.86        18.58804
519.30        18.65375
519.74        18.79585
520.18        18.96195
520.62        19.06557
521.06        19.07976
521.50        19.03128
521.93        18.94336
522.37        18.85655
522.81        18.78569
523.25         18.7163
523.69        18.65433
524.13        18.61061
524.57        18.58553
525.01        18.58311
525.45        18.58322
525.89        18.54972
526.32        18.47587
526.76        18.37271
527.20        18.27051
527.64        18.22004
528.08        18.22949
528.52        18.28035
528.96        18.33462
529.40        18.33293
529.83        18.25848
530.27        18.13442
530.71        17.99227
531.15         17.8819
531.59        17.81813
532.03        17.79014
532.46        17.77575
532.90        17.74049
533.34        17.67943
533.78        17.60783
534.22        17.55081
534.66        17.54338
535.09        17.58507
535.53        17.65984
535.97        17.73903
536.41        17.76486
536.85        17.72334
537.28         17.6814
537.72        17.64678
538.16         17.5215
538.60        17.37329
539.04        17.43626
539.47        17.66917
539.91        17.80469
540.35        17.82093
540.79        17.87137
541.22        17.95596
541.66        18.01849
542.10        18.06213
542.54         18.0758
542.97        18.08409
543.41        18.19902
543.85        18.39528
544.29        18.52359
544.72        18.57808
545.16        18.68125
545.60        18.83006
546.04        18.95638
546.47        19.05815
546.91        19.16643
547.35         19.2831
547.79        19.40758
548.22        19.54574
548.66        19.70525
549.10        19.89362
549.53        20.15522
549.97        20.45591
550.41        20.69189
550.84        20.84018
551.28        20.94556
551.72        21.02871
552.15        21.10845
552.59        21.20802
553.03        21.31543
553.46        21.42087
553.90        21.53856
554.34        21.65769
554.77        21.75643
555.21        21.85364
555.65         21.9953
556.08        22.17855
556.52        22.38206
556.96        22.56728
557.39        22.69827
557.83        22.77352
558.27        22.77284
558.70        22.73956
559.14         22.7975
559.57        22.93823
560.01        23.05339
560.45         23.1204
560.88        23.18826
561.32        23.26474
561.75         23.2968
562.19        23.33104
562.63        23.41473
563.06        23.54638
563.50        23.78564
563.93        24.05408
564.37        24.06242
564.80        23.87181
565.24        23.91209
565.68        24.16689
566.11         24.3079
566.55        24.33766
566.98        24.43235
567.42        24.59114
567.85        24.79376
568.29         24.8707
568.72         24.9826
569.16        25.11008
569.60         25.2577
570.03        25.41794
570.47        25.60375
570.90        25.80401
571.34        25.89234
571.77        26.26539
572.21        26.19516
572.64        26.44411
573.08        26.29671
573.51        26.69983
573.95        26.79431
574.38        26.84611
574.82        26.70657
575.25        27.27699
575.69        27.22074
576.12        26.92011
576.56        26.88073
576.99        27.22095
577.42        27.57061
577.86         27.4192
578.29        27.43054
578.73        27.22569
579.16         27.1627
579.60        27.08301
580.03        27.01437
580.47        26.97989
580.90        26.64125
581.33        26.49232
581.77        26.61162
582.20        27.08156
582.64        26.44445
583.07         26.5952
583.51        26.19373
583.94        25.91013
584.37        25.72702
584.81        25.58591
585.24        25.52353
585.68         25.8512
586.11        25.51277
586.54        25.54819
586.98        25.09462
587.41        25.14897
587.85        25.41949
588.28        25.24857
588.71        25.13943
589.15        24.99306
589.58        25.16874
590.01        24.98659
590.45        24.83059
590.88        24.65153
591.31        24.69122
591.75        24.94552
592.18        25.01534
592.61        24.88887
593.05           25.04
593.48        25.53086
593.91        25.24872
594.35        25.39514
594.78        25.41694
595.21        25.63633
595.65        25.69893
596.08        25.61753
596.51        25.83746
596.94        26.09291
597.38        26.31083
597.81        26.36758
598.24        26.63149
598.68        27.13985
599.11        26.77084
599.54        27.70465
599.97        27.59369
600.41         28.1731
600.84        28.45788
601.27        28.81203
601.70         28.8083
602.14        29.08486
602.57        29.56339
603.00        30.30602
603.43        30.67338
603.87        30.70636
604.30        30.99207
604.73        31.56597
605.16        31.94253
605.60        32.05934
606.03        32.47332
606.46        33.13206
606.89        33.15042
607.32        33.71981
607.76        33.81016
608.19        34.19967
608.62        34.44355
609.05        34.65752
609.48        34.97219
609.92        35.49989
610.35        35.32382
610.78        36.41505
611.21        36.80931
611.64        36.98844
612.07        37.17049
612.50        37.38874
612.94        37.51582
613.37        37.55301
613.80        37.93767
614.23        37.96326
614.66        38.21441
615.09        38.48209
615.52        38.73785
615.96        38.96154
616.39        39.22626
616.82        39.55436
617.25        39.57272
617.68        40.07063
618.11        39.98825
618.54        39.70248
618.97        39.74825
619.40        40.16277
619.84        40.49675
620.27        40.66989
620.70        40.98119
621.13        41.38565
621.56        41.10122
621.99        40.71833
622.42        40.81337
622.85        41.52496
623.28        41.21475
623.71        41.31437
624.14        41.34829
624.57        40.88264
625.00         40.9902
625.43        40.98899
625.86        41.08615
626.29        41.05865
626.72        41.23719
627.15        41.03623
627.58        40.90154
628.01        40.69105
628.44        40.45447
628.87        40.20638
629.30        39.95008
629.73         39.6919
630.16        39.42564
630.59          39.154
631.02        38.87872
631.45        38.61647
631.88        38.39067
632.31         38.1969
632.74        38.02035
633.17        37.81321
633.60        37.50083
634.03        37.07156
634.46        36.55527
634.89        36.00638
635.32        35.51057
635.75        35.09566
636.18        34.74144
636.61        34.42678
637.04        34.11572
637.47        33.79582
637.89        33.47267
638.32         33.1363
638.75        32.82335
639.18        32.54771
639.61        32.17358
640.04        31.94627
640.47        31.67627
640.90        31.43851
641.33        31.22645
641.76        31.05814
642.18        30.96228
642.61        30.92718
643.04         30.9462
643.47        30.98438
643.90        30.98452
644.33        30.93315
644.76        30.85476
645.18        30.78374
645.61        30.73598
646.04        30.72554
646.47        30.81796
646.90        31.04276
647.33        31.07087
647.75        31.48582
648.18        31.80763
648.61        32.18625
649.04         32.5636
649.47        32.93099
649.89        33.29841
650.32        33.65076
650.75        34.00041
651.18        34.35769
651.61        34.71297
652.03        35.08022
652.46        35.53473
652.89        36.00976
653.32        36.27092
653.74        36.51575
654.17        36.67591
654.60        36.91912
655.03        37.89517
655.46        38.18591
655.88        38.20106
656.31        40.85747
656.74         45.4347
657.16        42.82731
657.59        40.41197
658.02        41.01955
658.45        41.51107
658.87        41.83585
659.30         41.4659
659.73        41.65257
660.15        41.78354
660.58        42.12426
661.01         42.3785
661.44        42.50036
661.86        42.63989
662.29        42.80398
662.72        43.08439
663.14        43.44117
663.57         43.5145
664.00        43.38616
664.42        43.54659
664.85        43.98809
665.27        44.26073
665.70        44.34153
666.13        44.51704
666.55        44.78564
666.98        44.97934
667.41        45.09589
667.83        45.19506
668.26        45.27832
668.69        45.35012
669.11        45.39683
669.54        45.39408
669.96        45.34882
670.39        45.27458
670.82        45.25773
671.24        45.40389
671.67        45.72276
672.09        46.21505
672.52        46.75948
672.94        46.88488
673.37        47.06741
673.80        46.75695
674.22        46.30945
674.65        46.21238
675.07        46.52205
675.50        46.90429
675.92        47.24496
676.35        47.50578
676.77        47.63959
677.20        47.62806
677.62        47.53403
678.05        47.49662
678.47        47.54734
678.90        47.63593
679.32        47.75769
679.75        47.93886
680.17        48.16952
680.60        48.42318
681.02        48.62402
681.45        48.85165
681.87        48.61992
682.30         48.5938
682.72        48.65578
683.15        48.62449
683.57        48.55021
684.00        48.68574
684.42        48.98047
684.85        49.14913
685.27        49.16563
685.70        49.12646
686.12          49.056
686.54        49.11982
686.97        49.30088
687.39        49.20937
687.82        49.15967
688.24         49.2197
688.66        49.44363
689.09        49.48265
689.51        49.37062
689.94        49.44597
690.36        49.73755
690.78        49.98586
691.21        50.08194
691.63        50.59724
692.06        50.25258
692.48        50.48972
692.90        50.87083
693.33        51.05587
693.75        51.02968
694.17        50.92597
694.60        50.82218
695.02        51.14918
695.44        51.19698
695.87        51.58525
696.29        51.97794
696.71        52.03189
697.14        51.76497
697.56        51.52361
697.98        51.42075
698.41        51.37732
698.83        51.40302
699.25        51.62127
699.68        51.94415
700.10         52.1775
700.52         52.2502
700.94         52.3547
701.37        52.28751
701.79        52.30947
702.21        52.36322
702.64        52.42982
703.06        52.49944
703.48        52.57178
703.90        52.64982
704.33        52.73908
704.75        52.83926
705.17         52.9322
705.59        53.01381
706.01        53.08227
706.44        53.15221
706.86        53.25988
707.28         53.3913
707.70        53.57318
708.12        53.76999
708.55        53.82654
708.97        53.77217
709.39        53.84805
709.81        54.03852
710.23        54.12207
710.66        54.08899
711.08         54.0809
711.50        54.11739
711.92        54.18648
712.34        54.29543
712.76        54.44453
713.19        54.59412
713.61        54.72383
714.03         54.7968
714.45         54.8171
714.87        54.80408
715.29        54.79068
715.71        54.78491
716.13        54.77997
716.56        54.74685
716.98        54.69445
717.40        54.61129
717.82        54.51813
718.24        54.44893
718.66        54.45372
719.08        54.54066
719.50        54.68322
719.92         54.8626
720.34        55.05321
720.76          55.246
721.19        55.41439
721.61        55.52549
722.03        55.60086
722.45        55.67925
722.87        55.34106
723.29        55.18303
723.71        55.26671
724.13        55.78144
724.55        55.37795
724.97        55.77464
725.39        55.78451
725.81        55.89798
726.23        56.01558
726.65        56.18719
727.07        56.05562
727.49         56.3921
727.91         56.5545
728.33        56.74212
728.75        56.88636
729.17        56.97641
729.59        57.01935
730.01        57.03148
730.43         57.0647
730.85         57.1322
731.27        57.20872
731.69        57.26593
732.10        57.35138
732.52        57.37122
732.94        57.33448
733.36         57.2234
733.78        57.33489
734.20        57.31139
734.62        57.24946
735.04        57.40767
735.46        57.35809
735.88        57.23209
736.30        57.10775
736.72        57.06775
737.13        57.17938
737.55        57.36952
737.97        57.65269
738.39        57.92715
738.81        57.78193
739.23        57.36706
739.65         57.5296
740.06        58.13123
740.48        58.27154
740.90         57.9057
741.32        57.56524
741.74         57.3837
742.16        57.33268
742.57        57.46511
742.99         57.7682
743.41        58.16634
743.83         58.5193
744.25         58.7745
744.67        58.94913
745.08         59.0617
745.50        59.11288
745.92        59.12435
746.34        59.07962
746.75        58.98446
747.17        58.87203
747.59        58.75724
748.01        58.63887
748.42        58.53323
748.84        58.49377
749.26        58.49859
749.68        58.45769
750.09        58.41684
750.51        58.46947
750.93        58.65075
751.35        59.11824
751.76        59.74357
752.18        59.95848
752.60         59.6832
753.01        59.52477
753.43        58.99458
753.85        58.81421
754.27          58.846
754.68        59.10119
755.10        59.48971
755.52        59.50944
755.93        59.72805
756.35         59.7421
756.77        59.70912
757.18        59.71898
757.60        59.83704
758.02        59.64362
758.43        59.24629
758.85        60.08216
759.26        61.08635
759.68        61.25439
760.10        60.36433
760.51        60.30152
760.93        60.26787
761.34        60.42918
761.76         60.5792
762.18        60.29412
762.59        59.76815
763.01        59.70735
763.42        60.14903
763.84        60.38239
764.26        60.34396
764.67        60.12318
765.09        59.89244
765.50        60.06059
765.92        60.54459
766.33        60.61193
766.75        60.20105
767.16        60.22937
767.58        60.19571
768.00        60.50011
768.41        60.89302
768.83        61.44352
769.24        61.88799
769.66        61.35046
770.07        60.16192
770.49        59.83719
770.90        60.35783
771.32        60.56453
771.73        60.40274
772.15         60.4994
772.56        60.85912
772.97        61.13609
773.39         61.2655
773.80         61.3719
774.22        61.41447
774.63        61.39378
775.05        61.31573
775.46        61.24555
775.88         61.1882
776.29         61.1588
776.70        61.16052
777.12        61.19796
777.53        61.27808
777.95        61.37552
778.36         61.4665
778.77        61.46978
779.19        61.39103
779.60        61.30491
780.02        61.22245
780.43        61.17348
780.84        61.22311
781.26        61.25047
781.67        61.35773
782.09        62.01463
782.50        62.96872
782.91        63.19521
783.33        62.71054
783.74        62.54695
784.15        62.63649
784.57        62.50375
784.98        62.19085
785.39        61.95566
785.81         61.8108
786.22        62.23085
786.63        62.18341
787.04        62.33799
787.46        62.38428
787.87        62.35527
788.28        62.31413
788.70        62.32931
789.11        62.40464
789.52        62.59202
789.93        62.81173
790.35        62.76033
790.76        62.51345
791.17        62.48286
791.58        62.69118
792.00        62.81242
792.41         62.8625
792.82        63.04778
793.23        63.30416
793.65         63.4901
794.06        63.66864
794.47        63.73535
794.88        63.52731
795.29         64.2653
795.71        63.33721
796.12        62.97955
796.53        62.58845
796.94        62.42616
797.35        62.57215
797.76        63.11536
798.18        63.82401
798.59         64.1578
799.00        63.98637
799.41        63.50623
799.82        62.95275
800.23        62.67323
800.64        62.76782
801.06          63.096
801.47         63.5673
801.88        63.91563
802.29        64.03796
802.70        64.00249
803.11        63.86922
803.52        63.72757
803.93        63.62002
804.34        63.52414
804.75        63.41835
805.17        63.28374
805.58        63.15126
805.99        62.99022
806.40        62.88154
806.81        63.02515
807.22        63.37674
807.63        63.71027
808.04         63.9488
808.45        64.08984
808.86        64.08819
809.27        63.89116
809.68        63.58605
810.09        63.38074
810.50        63.33368
810.91        63.38954
811.32        63.50388
811.73        63.59764
812.14        63.64163
812.55        63.67157
812.96        63.69233
813.37        63.70303
813.78        63.70899
814.19        63.70002
814.60         63.6953
815.01        63.73265
815.42        63.81854
815.83        63.94593
816.24        64.08548
816.65        64.17504
817.05        64.19688
817.46        64.13936
817.87        64.06296
818.28         64.0126
818.69        64.00529
819.10        64.03043
819.51        64.08361
819.92        64.15674
820.33         64.2348
820.74         64.3051
821.14        64.36163
821.55        64.41464
821.96        64.45578
822.37        64.50281
822.78        64.51321
823.19        64.41512
823.60        64.21053
824.00         63.9362
824.41        63.70137
824.82        63.75471
825.23        64.13512
825.64        64.76875
826.04         65.4747
826.45        65.85155
826.86        65.81869
827.27        65.47881
827.68        64.99498
828.08        64.66868
828.49        64.56178
828.90        64.61153
829.31        64.77034
829.72        64.95847
830.12        65.16154
830.53         65.3607
830.94        65.53871
831.35        65.60855
831.75        65.56664
832.16        65.37775
832.57        65.12394
832.97         64.9226
833.38        64.80927
833.79        64.75797
834.20        64.73357
834.60        64.66508
835.01        64.55472
835.42        64.44169
835.82        64.35531
836.23        64.29458
836.64        64.28269
837.04        64.32279
837.45        64.40424
837.86        64.62781
838.26        64.99895
838.67        65.43862
839.08        65.81995
839.48        65.92149
839.89        65.70245
840.29         65.2198
840.70        64.65548
841.11        64.23009
841.51        64.03579
841.92        64.03326
842.33        64.14149
842.73        64.22135
843.14         64.1889
843.54        64.09096
843.95        64.07092
844.35        64.38995
844.76        65.03426
845.17        65.92358
845.57         66.7703
845.98         66.9577
846.38        66.41094
846.79        65.34531
847.19        64.14661
847.60        63.42782
848.00        63.33775
848.41        63.67136
848.81        64.30804
849.22         64.9368
849.62        65.46515
850.03        65.92213
850.43        66.23494
850.84        66.16975
851.24        65.74897
851.65        64.99819
852.05        64.16098
852.46        63.65904
852.86        63.57596
853.27        63.82189
853.67         64.1953
854.07        64.57447
854.48        64.85523
854.88        65.15154
855.29         65.2887
855.69        65.15659
856.10        64.66007
856.50        63.90583
856.90        63.13807
857.31         62.7532
857.71        62.86749
858.12        63.35358
858.52        64.05941
858.92        64.50956
859.33        64.53054
859.73         64.2671
860.13        63.88596
860.54        63.68855
860.94        63.78627
861.34        64.06076
861.75        64.32085
862.15        64.35323
862.55        64.06047
862.96        63.54684
863.36        62.98556
863.76        62.65327
864.17        62.62284
864.57        62.85344
864.97        63.16038
865.38        63.23764
865.78        63.04715
866.18        62.62782
866.58        62.22548
866.99        62.25936
867.39        62.81929
867.79        63.73682
868.19        64.61324
868.60        64.82217
869.00        64.25817
869.40        63.13793
869.80        61.87573
870.21        61.19822
870.61        61.33976
871.01        62.02283
871.41        62.94232
871.81        63.65322
872.22        64.00033
872.62        64.17711
873.02        64.21227
873.42         64.1452
873.82        64.03387
874.22        63.84257
874.63        63.72254
875.03        63.90262
875.43        64.40446
875.83        65.13139
876.23        65.89883
876.63        66.36004
877.03        66.42594
877.44        66.26411
877.84        65.87476
878.24        65.30289
878.64         64.6257
879.04        63.79015
879.44        63.14697
879.84        63.21082
880.24        64.00001
880.64        65.39853
881.04        66.72311
881.44        66.74001
881.84        65.23473
882.24        62.70548
882.65        60.13169
883.05        58.81176
883.45        59.05244
883.85        60.45478
884.25         62.4452
884.65        63.95131
885.05        64.54028
885.45        64.49992
885.85        64.09711
886.25        63.74977
886.65        63.59891
887.05        63.46382
887.45         63.2807
887.85        63.00329
888.25        62.63324
888.65        62.27463
889.04        61.97237
889.44        61.77647
889.84        61.69619
890.24         61.7255
890.64         61.8724
891.04        62.15287
891.44        62.54529
891.84        63.01264
892.24        63.50859
892.64        63.97102
893.04        64.38006
893.44        64.75086
893.83        65.07919
894.23         65.2852
894.63        65.38639
895.03        65.36287
895.43         65.3168
895.83        65.41237
896.23        65.67572
896.63        66.08655
897.02        66.43514
897.42        66.37424
897.82        65.86285
898.22        65.01115
898.62        64.16479
899.01        63.80323
899.41        64.02812
899.81        64.73031
900.21        65.53165
900.61        65.72272
901.00        65.12402
901.40        64.03437
901.80        62.98469
902.20        62.70697
902.59        63.35089
902.99         64.6629
903.39        66.21002
903.79        67.05815
904.18        66.87381
904.58        65.99436
904.98        64.91265
905.38        64.30247
905.77        64.30663
906.17        64.71841
906.57        65.30994
906.96        65.75306
907.36        65.87978
907.76        65.82142
908.15        65.67321
908.55        65.50099
908.95        65.37251
909.34        65.23202
909.74        65.06731
910.14        64.83574
910.53         64.5477
910.93        64.28004
911.33         64.0951
911.72        64.09182
912.12        64.28291
912.52        64.60517
912.91        65.04259
913.31        65.54743
913.70        66.09175
914.10        66.61546
914.49        67.00336
914.89        66.99971
915.29        66.59352
915.68        65.88272
916.08        65.07896
916.47        64.46684
916.87        64.17126
917.26        64.08135
917.66        64.18956
918.05        64.45884
918.45        64.82109
918.84        65.35303
919.24        65.80847
919.64        65.85785
920.03        65.43633
920.42        64.60937
920.82        63.79637
921.21        63.48851
921.61        63.77938
922.00        64.59192
922.40        65.51199
922.79        65.88543
923.19        65.50064
923.58        64.58525
923.98        63.66142
924.37        63.46227
924.77        64.13478
925.16         65.4744
925.55        66.97527
925.95         67.7086
926.34        67.42438
926.74        66.38456
927.13        65.08414
927.52        64.26402
927.92        64.11861
928.31        64.41908
928.70        64.87655
929.10         64.9995
929.49        64.68398
929.89        64.14382
930.28        63.62326
930.67        63.44854
931.07        63.69712
931.46        64.22179
931.85        64.94275
932.24        65.77493
932.64        66.60773
933.03        67.52306
933.42        68.26481
933.82        68.43943
934.21        68.01896
934.60        67.09212
934.99        66.09859
935.39        65.69164
935.78        66.00168
936.17        66.85064
936.56        67.82996
936.96         68.2345
937.35        67.90754
937.74        67.04383
938.13        65.94563
938.53        65.08928
938.92        64.62321
939.31         64.4754
939.70        64.53418
940.09        64.64079
940.49        64.68359
940.88        64.69479
941.27        64.81026
941.66        65.27065
942.05        66.06332
942.44        67.09585
942.84        67.81711
943.23        67.33549
943.62        65.63638
944.01        63.19488
944.40        60.89553
944.79        59.83876
945.18        60.19115
945.57        61.65963
945.97        63.66972
946.36        65.28483
946.75        65.93301
947.14        65.87267
947.53        65.45807
947.92        65.30621
948.31        65.59137
948.70        66.01611
949.09        66.44031
949.48        66.68622
949.87        66.67912
950.26        66.58231
950.65        66.29624
951.04        65.61708
951.43        64.59094
951.82        63.29678
952.21         62.1531
952.60        61.78994
952.99        62.29749
953.38        63.50021
953.77        64.86297
954.16        65.45233
954.55        65.00222
954.94        63.75518
955.33        62.25732
955.72        61.41829
956.11        61.50488
956.50        62.28286
956.89        63.29879
957.28        63.80587
957.66        63.61488
958.05        62.94485
958.44        62.25352
958.83        62.25682
959.22        63.09718
959.61        64.49174
960.00        65.92393
960.39         66.5225
960.78        66.04221
961.16        64.80228
961.55           63.23
961.94        61.96745
962.33        61.25392
962.72        60.91586
963.11         60.9295
963.49        61.26892
963.88        61.82259
964.27        62.64137
964.66        63.52594
965.04        64.13042
965.43        64.30682
965.82        64.12749
966.21        63.78532
966.60        63.64864
966.98        63.84286
967.37        64.25282
967.76        64.73952
968.15        65.06004
968.53        65.14149
968.92         64.9903
969.31        64.76298
969.69        64.69347
970.08        64.81026
970.47        65.08846
970.86        65.27279
971.24        64.95261
971.63        64.08936
972.02        62.87949
972.40        61.81481
972.79        61.68576
973.17        62.72617
973.56        64.55959
973.95        66.74376
974.33        68.64864
974.72        69.96117
975.11        70.82707
975.49        71.28327
975.88        71.31232
976.26        70.99386
976.65         70.2589
977.04        69.18477
977.42        67.84443
977.81        66.34845
978.19        64.73242
978.58        63.27036
978.96        62.15393
979.35        61.45091
979.74        61.07831
980.12        60.89076
980.51        60.51233
980.89        59.94263
981.28         59.3223
981.66        58.80365
982.05        58.59109
982.43        58.77786
982.82        59.20133
983.20        60.02223
983.59        61.53506
983.97        63.80373
984.35        66.77156
984.74        69.57011
985.12        70.85548
985.51        70.10029
985.89        67.79427
986.28        65.13863
986.66         63.5589
987.04        63.46157
987.43        64.36794
987.81        65.80487
988.20        66.67013
988.58        66.64437
988.96        66.19054
989.35        65.37357
989.73        64.39955
990.12        63.39038
990.50        62.15338
990.88        61.29816
991.27        61.79323
991.65        63.77632
992.03        67.22131
992.42         70.7349
992.80        71.67992
993.18        69.12887
993.56        64.25427
993.95        59.41964
994.33        57.06015
994.71         57.6545
995.10        60.47113
995.48        64.52546
995.86        67.07798
996.24          66.916
996.63        64.97752
997.01        62.49296
997.39        61.10062
997.77        61.20336
998.15        62.14593
998.54         63.5897
998.92        65.01733
999.30         66.1252
999.68        67.21551
1000.06        67.90651
1000.45        67.43732
1000.83        65.95145
1001.21        63.62873
1001.59        61.45872
1001.97        60.81964
1002.35         61.9323
1002.73         64.4865
1003.12        67.65934
1003.50        69.91452
1003.88        70.61055
1004.26         70.1554
1004.64        69.19346
1005.02        68.84406
1005.40        69.35361
1005.78        70.15532
1006.16        70.89329
1006.54        71.03083
1006.92        70.33452
1007.30        69.14999
1007.69        67.15724
1008.07        63.99926
1008.45        60.18222
1008.83        56.27626
1009.21        53.38338
1009.59         52.5755
1009.97        53.81876
1010.35        56.92635
1010.73        61.04498
1011.11        63.88379
1011.49         64.2854
1011.86        62.56663
1012.24        60.16256
1012.62        59.39869
1013.00        60.98932
1013.38        64.51528
1013.76        68.87217
1014.14        70.93655
1014.52        69.63983
1014.90        66.73085
1015.28        63.88921
1015.66        62.49239
1016.04        62.64878
1016.41         63.9889
1016.79        66.29947
1017.17        69.67735
1017.55         73.6328
1017.93        78.18688
1018.31        81.44052
1018.69        80.30878
1019.06        74.94234
1019.44        67.70478
1019.82        61.35279
1020.20        58.04193
1020.58        57.55793
1020.95        59.33082
1021.33         62.3412
1021.71        64.06133
1022.09        63.31244
1022.46        60.58636
1022.84        57.94011
1023.22        57.90714
1023.60        61.22446
1023.97         68.2234
1024.35        76.62859
1024.73        78.70563
