SpectraSmart Spectrum 2.9.0.0
--------- Device Information -----------
Spectrum Name :  反射率_0
Saving Time :  2024/05/03 20:55:25
Spectro-Module Model Name : SE2030-DUVN
Spectro-Module Serial Number : OS361AC55029948
Wavelength Start : 200
Wavelength End : 1025
Wavelength Unit : Wavelength(nm)
Spectrum Unit : Reflectance(%)
-----------Spectrum Setting ------------
Integration Time : 20ms
Average : 10
Boxcar : 0
Background removal :  enabled
linearity correction :  enabled
SC :  disabled
Intensity correction :  disabled
DWT denoise :  enabled
savitzky-golay :  disabled
FFT :  disabled
Running average :  disabled
Kalman :  disabled
High pass :  disabled
---------------BEGIN--------------------
Wavelength(nm)             Reflectance(%)
200.29               0
200.75        41.98186
201.21        82.83666
201.67       -2510.514
202.13       -76.78304
202.58       -33.72389
203.04       -15.35324
203.50       -6.493921
203.96       -7.507869
204.42       -22.06189
204.88       -85.04688
205.34        2224.508
205.80        237.5051
206.26        249.7172
206.72        45637.52
207.18       -106.0512
207.64       -43.80071
208.10        -31.3232
208.55       -36.10739
209.01       -129.6223
209.47       -61.54161
209.93        10.64404
210.39        11.09059
210.85        11.01836
211.31        14.14179
211.77        21.45676
212.23        39.25596
212.69        83.18292
213.14        107.5877
213.60        43.88323
214.06         5.33371
214.52       -10.00982
214.98        -17.2702
215.44       -23.74288
215.90       -40.58142
216.36        145.8726
216.81       0.6714719
217.27       -23.72206
217.73       -73.75558
218.19       -336.1887
218.65       -7076.025
219.11         -478.06
219.57       -99.56403
220.02       -33.38307
220.48       -40.95505
220.94        70.08006
221.40        33.55192
221.86        29.05515
222.32        27.59094
222.77        26.73567
223.23        26.64798
223.69        26.75431
224.15        25.51901
224.61        23.36074
225.06        21.31875
225.52        21.16088
225.98         24.0059
226.44        29.97815
226.90          39.436
227.36        50.85142
227.81        57.04279
228.27        54.00313
228.73        45.80109
229.19        37.17099
229.65         31.6227
230.10        29.00109
230.56         28.1185
231.02        28.09916
231.48        28.28072
231.93         28.4591
232.39        28.82466
232.85        29.42445
233.31        30.31207
233.77        31.44733
234.22        32.69989
234.68        33.83797
235.14        34.49057
235.60        34.53466
236.05        34.06187
236.51        33.22348
236.97         32.5522
237.43        32.28738
237.88        32.55021
238.34        33.10466
238.80        33.44518
239.26        33.44777
239.71        35.36017
240.17        36.11881
240.63        40.01388
241.08        45.77395
241.54        51.18503
242.00        54.57946
242.46        57.09527
242.91        60.08278
243.37        62.88994
243.83        65.82532
244.28        67.47512
244.74        64.11062
245.20        58.02776
245.66        49.21644
246.11        35.22758
246.57        18.57291
247.03        2.244374
247.48       -9.898246
247.94       -15.45344
248.40       -14.80019
248.85       -9.938068
249.31        -1.58559
249.77         6.59177
250.22        11.68398
250.68        14.19205
251.14        16.03619
251.59        19.71982
252.05         26.6939
252.51        38.41915
252.96        54.66277
253.42        67.08165
253.88         67.1711
254.33        57.87767
254.79        48.60995
255.25        45.76596
255.70        47.21476
256.16        50.03587
256.62        52.19653
257.07        52.61034
257.53        52.00828
257.99        50.76504
258.44         49.3766
258.90        48.86405
259.35        48.78692
259.81        49.04356
260.27        48.95045
260.72        47.88073
261.18        46.33212
261.63        44.54821
262.09        43.05647
262.55        42.06178
263.00         41.4493
263.46        41.06214
263.91        40.76398
264.37        40.62307
264.83        40.52252
265.28        40.43949
265.74        40.18246
266.19        39.27773
266.65        37.85049
267.11        36.05324
267.56        34.31353
268.02        33.30504
268.47        33.08266
268.93        33.44703
269.38        34.01777
269.84        34.13866
270.30        33.64977
270.75        32.76167
271.21        31.81169
271.66        31.19527
272.12        31.00392
272.57        31.04538
273.03        31.13066
273.48        31.00674
273.94        30.61109
274.39        30.04841
274.85        29.41703
275.31        28.75419
275.76        28.09058
276.22        27.46526
276.67        26.90581
277.13        26.55342
277.58        26.34812
278.04        26.26114
278.49        26.15518
278.95        25.87933
279.40        25.38577
279.86        24.81081
280.31        24.18656
280.77        23.65241
281.22        23.17693
281.68        22.75881
282.13        22.38617
282.59        22.10757
283.04        21.90986
283.50        21.80563
283.95        21.72668
284.41        21.58952
284.86        21.37336
285.32         21.1285
285.77        20.91265
286.22        20.86912
286.68        21.01574
287.13        21.26287
287.59        21.54103
288.04        21.71116
288.50        21.76117
288.95        21.71862
289.41        21.62259
289.86        21.49238
290.32        21.37225
290.77        21.24248
291.22        21.16135
291.68        21.20409
292.13        21.37445
292.59        21.68422
293.04        22.05778
293.50        22.37944
293.95        22.61417
294.40        22.79416
294.86        23.02389
295.31        23.46395
295.77        24.13992
296.22        24.98609
296.68        25.86323
297.13        26.53679
297.58        26.93312
298.04        27.14111
298.49        27.25615
298.95        27.46063
299.40        27.79526
299.85         28.2141
300.31        28.71275
300.76        29.25609
301.21        29.83053
301.67        30.45038
302.12        31.04625
302.58        31.52561
303.03        31.85299
303.48        32.05133
303.94        32.22191
304.39        32.46885
304.84        32.83484
305.30        33.28802
305.75         33.7247
306.20         34.0146
306.66        34.14265
307.11         34.1328
307.57        34.09646
308.02        34.13243
308.47        34.28065
308.93        34.50547
309.38         34.7168
309.83        34.81822
310.29        34.78616
310.74        34.64444
311.19        34.45676
311.65        34.31923
312.10        34.24839
312.55         34.2164
313.00        34.16679
313.46        34.01722
313.91        33.74387
314.36        33.39537
314.82        33.04061
315.27        32.77114
315.72         32.6203
316.18        32.56126
316.63         32.5496
317.08        32.51918
317.53        32.44661
317.99        32.34264
318.44         32.2375
318.89        32.16532
319.35        32.13079
319.80        32.11462
320.25        32.07956
320.70        31.97789
321.16        31.79127
321.61        31.53776
322.06        31.24746
322.51        30.97473
322.97        30.73676
323.42        30.53346
323.87        30.33146
324.32        30.07775
324.78        29.76105
325.23        29.41067
325.68        29.07365
326.13        28.83028
326.59        28.68777
327.04        28.63375
327.49        28.60522
327.94        28.50883
328.39         28.3131
328.85        28.03395
329.30        27.71716
329.75        27.41492
330.20        27.15275
330.66        26.90922
331.11        26.69239
331.56        26.47771
332.01        26.26211
332.46        26.06052
332.92        25.87413
333.37        25.73238
333.82        25.62796
334.27        25.55047
334.72        25.49369
335.17         25.4506
335.63         25.4042
336.08        25.36451
336.53        25.30823
336.98        25.21203
337.43         25.0718
337.88        24.89518
338.34        24.70084
338.79        24.52255
339.24        24.37413
339.69        24.25681
340.14        24.16361
340.59        24.08083
341.05        24.00305
341.50        23.93185
341.95        23.88033
342.40        23.87279
342.85        23.90687
343.30         23.9702
343.75        24.01562
344.20         23.9708
344.66         23.8338
345.11        23.62842
345.56        23.41933
346.01        23.30371
346.46         23.3043
346.91        23.38583
347.36        23.50981
347.81        23.61567
348.26        23.67748
348.72         23.7114
349.17        23.70528
349.62        23.64721
350.07        23.54221
350.52        23.39464
350.97        23.23142
351.42        23.09964
351.87        23.01094
352.32        22.95268
352.77        22.91315
353.22        22.86946
353.67        22.81276
354.13        22.75865
354.58        22.68415
355.03        22.57335
355.48        22.42853
355.93        22.25587
356.38           22.09
356.83        21.98693
357.28        21.95555
357.73        21.97758
358.18        22.01298
358.63        21.99519
359.08        21.90744
359.53        21.77098
359.98        21.61375
360.43        21.48166
360.88        21.38558
361.33        21.30466
361.78        21.22992
362.23        21.14729
362.68        21.05153
363.13        20.95582
363.58         20.8435
364.03        20.68749
364.48        20.49037
364.93        20.25978
365.38        20.04927
365.83        19.94007
366.28        19.94372
366.73        20.03704
367.18        20.14218
367.63        20.13248
368.08        19.97782
368.53        19.71188
368.98        19.42056
369.43         19.2366
369.88          19.188
370.33        19.23643
370.78        19.29594
371.23        19.22277
371.68        18.98601
372.13        18.64078
372.58        18.28531
373.03        18.06381
373.48        18.00923
373.93         18.0741
374.38        18.18325
374.83        18.21365
375.28        18.12549
375.72        17.94785
376.17        17.74687
376.62        17.58656
377.07        17.48362
377.52        17.41524
377.97        17.34893
378.42        17.23836
378.87        17.08065
379.32        16.90256
379.77        16.74559
380.22        16.66302
380.67        16.65964
381.11        16.71466
381.56        16.78386
382.01        16.80516
382.46        16.75909
382.91        16.66775
383.36        16.54921
383.81        16.42998
384.26        16.32044
384.71        16.21017
385.15        16.10688
385.60        16.04181
386.05        16.00953
386.50        16.00144
386.95        15.99156
387.40         15.9361
387.85        15.83267
388.29        15.69852
388.74        15.56627
389.19        15.44555
389.64        15.34277
390.09        15.24522
390.54        15.18262
390.98        15.18882
391.43        15.26286
391.88        15.41253
392.33        15.55848
392.78        15.50872
393.23        15.29525
393.67        15.11449
394.12        15.00899
394.57          14.886
395.02        14.75858
395.47        14.68441
395.91        14.66398
396.36        14.64907
396.81        14.64005
397.26        14.65877
397.71        14.66658
398.15        14.62123
398.60        14.54247
399.05        14.35742
399.50        14.15105
399.95        14.20859
400.39        14.47274
400.84        14.50809
401.29        14.31092
401.74        14.22369
402.18        14.25324
402.63        14.20432
403.08        14.09756
403.53        13.94864
403.97        13.96815
404.42         13.9589
404.87        13.96949
405.32        13.97875
405.76        13.97652
406.21         13.9713
406.66        13.95768
407.11        13.93114
407.55          13.895
408.00        13.84698
408.45        13.78853
408.90        13.72235
409.34        13.65233
409.79        13.57723
410.24        13.51562
410.68        13.48985
411.13        13.50196
411.58        13.54758
412.03        13.58791
412.47        13.55776
412.92        13.44287
413.37        13.26964
413.81        13.09707
414.26         13.0207
414.71        13.04976
415.15        13.16516
415.60        13.30076
416.05         13.3504
416.49        13.28417
416.94        13.13865
417.39        12.98049
417.83        12.90665
418.28        12.93651
418.73        13.03172
419.17        13.14497
419.62        13.19143
420.07        13.14737
420.51        13.04228
420.96        12.90584
421.41        12.76986
421.85         12.6439
422.30        12.52616
422.74        12.42087
423.19        12.37239
423.64        12.37135
424.08        12.39665
424.53        12.41542
424.98        12.42279
425.42         12.4178
425.87        12.36241
426.31        12.29292
426.76        12.34482
427.21        12.49041
427.65        12.53928
428.10        12.49832
428.54         12.5093
428.99        12.57778
429.44        12.69113
429.88         12.7752
430.33        12.64439
430.77        12.36264
431.22        12.21251
431.66        12.22795
432.11        12.30719
432.56        12.40348
433.00         12.5136
433.45        12.51454
433.89        12.36237
434.34        11.73229
434.78         11.6991
435.23        12.14276
435.67        12.28053
436.12        12.10452
436.57        12.05415
437.01        12.14541
437.46        12.16946
437.90        12.12111
438.35        12.05987
438.79        12.00097
439.24        11.95791
439.68        11.94265
440.13        11.97986
440.57        12.03218
441.02        12.02482
441.46         11.9455
441.91        11.81621
442.35        11.67703
442.80        11.66527
443.24        11.75127
443.69        11.78535
444.13        11.74973
444.58        11.73961
445.02        11.74997
445.47        11.71573
445.91        11.65729
446.36        11.64827
446.80        11.69175
447.24        11.76644
447.69        11.84381
448.13        11.87843
448.58        11.86138
449.02        11.80695
449.47        11.74199
449.91        11.70075
450.36        11.69487
450.80        11.70873
451.25        11.72917
451.69        11.73175
452.13        11.70945
452.58        11.67128
453.02         11.6208
453.47        11.56804
453.91        11.51788
454.36         11.4697
454.80        11.42191
455.24        11.38799
455.69        11.37623
456.13         11.3456
456.58        11.30421
457.02        11.39657
457.46        11.43618
457.91        11.45257
458.35        11.40133
458.79        11.41702
459.24        11.48519
459.68        11.47221
460.13        11.39586
460.57        11.34079
461.01        11.32051
461.46        11.28436
461.90         11.2424
462.34        11.22307
462.79         11.2264
463.23        11.24467
463.68        11.26996
464.12        11.27724
464.56        11.26052
465.01        11.25996
465.45        11.26116
465.89        11.20944
466.34        11.13985
466.78        11.16099
467.22        11.26496
467.67        11.33462
468.11        11.34996
468.55        11.32706
468.99        11.28742
469.44        11.27981
469.88         11.3128
470.32        11.35168
470.77        11.38456
471.21        11.41091
471.65        11.42537
472.10        11.43093
472.54        11.42927
472.98        11.42927
473.42        11.43384
473.87        11.44338
474.31        11.45257
474.75        11.46521
475.20        11.48454
475.64        11.50254
476.08        11.51448
476.52        11.52886
476.97        11.54823
477.41        11.54131
477.85        11.49946
478.29        11.62875
478.74        11.54506
479.18        11.64153
479.62        11.78077
480.06        11.87001
480.50         11.8943
480.95         11.9094
481.39        11.92833
481.83        11.95681
482.27        12.00829
482.72        12.09629
483.16        12.19741
483.60        12.27064
484.04        12.29737
484.48        12.29429
484.93        12.36357
485.37        12.54432
485.81         12.7463
486.25        13.40147
486.69        13.00919
487.14        12.99719
487.58        13.41112
488.02        13.28997
488.46        13.40522
488.90        13.17559
489.34        13.09219
489.79        13.17381
490.23        13.44275
490.67        13.78088
491.11        14.06284
491.55        14.02365
491.99        13.75401
492.43        13.72942
492.88        13.98841
493.32        14.24677
493.76        14.44187
494.20        14.62083
494.64        14.76875
495.08        14.87391
495.52        14.95561
495.96        15.05728
496.41         15.1881
496.85        15.30778
497.29        15.42351
497.73        15.60279
498.17        15.81485
498.61         15.9469
499.05        15.99027
499.49        15.99121
499.93        15.99101
500.37         16.0729
500.82        16.22386
501.26        16.32625
501.70         16.3719
502.14        16.44134
502.58        16.54405
503.02        16.64994
503.46         16.7569
503.90        16.87395
504.34        16.98211
504.78        17.04887
505.22        17.07081
505.66         17.0552
506.10        17.02217
506.54        17.04414
506.98        17.13966
507.42        17.21945
507.86         17.2475
508.30        17.54121
508.74        17.47713
509.18        17.55961
509.62        17.60873
510.06        17.64708
510.50        17.67496
510.94        17.69375
511.38        17.71663
511.82        17.74889
512.26        17.79323
512.70        17.84901
513.14        17.90241
513.58        17.93122
514.02        17.93077
514.46        17.90549
514.90        17.87386
515.34        17.86608
515.78        17.88964
516.22        17.93841
516.66        17.98726
517.10        17.99621
517.54        17.95854
517.98        17.88644
518.42        17.81584
518.86         17.8033
519.30        17.85892
519.74         17.9636
520.18        18.07317
520.62        18.11642
521.06        18.07561
521.50         17.9727
521.93        17.84837
522.37        17.76895
522.81        17.75109
523.25        17.77529
523.69          17.811
524.13        17.81031
524.57        17.76162
525.01        17.68223
525.45        17.59704
525.89        17.54398
526.32        17.53026
526.76         17.5424
527.20        17.55854
527.64        17.54705
528.08        17.50056
528.52        17.43245
528.96        17.35444
529.40        17.28531
529.83        17.22895
530.27        17.17957
530.71        17.13853
531.15         17.1108
531.59        17.09347
532.03        17.08774
532.46        17.07267
532.90        17.01456
533.34         16.9142
533.78        16.78931
534.22        16.67329
534.66        16.61444
535.09        16.61841
535.53        16.66849
535.97        16.74315
536.41        16.79464
536.85        16.80562
537.28        16.83212
537.72        16.86321
538.16        16.77561
538.60         16.6269
539.04        16.65122
539.47        16.81817
539.91        16.88875
540.35        16.85169
540.79        16.85041
541.22        16.89499
541.66        16.94812
542.10        17.01442
542.54        17.07963
542.97        17.14926
543.41        17.30099
543.85        17.50392
544.29         17.6222
544.72        17.66435
545.16        17.77041
545.60        17.94305
546.04        18.10978
546.47        18.25577
546.91        18.39071
547.35        18.51115
547.79        18.62247
548.22        18.74221
548.66        18.89583
549.10        19.09321
549.53         19.3699
549.97        19.68098
550.41         19.9061
550.84        20.02076
551.28        20.08066
551.72        20.11641
552.15        20.16211
552.59        20.24544
553.03        20.34649
553.46        20.46243
553.90        20.61726
554.34        20.79699
554.77        20.97674
555.21        21.14404
555.65        21.29401
556.08        21.41663
556.52        21.50785
556.96        21.57307
557.39        21.64293
557.83         21.7311
558.27        21.80054
558.70        21.85793
559.14         21.9652
559.57        22.09833
560.01        22.16927
560.45        22.18522
560.88        22.23536
561.32        22.33587
561.75        22.42211
562.19        22.50973
562.63        22.60125
563.06        22.68713
563.50        22.83841
563.93        23.01551
564.37        22.99822
564.80        22.85471
565.24        22.97643
565.68        23.30724
566.11        23.46546
566.55        23.44118
566.98        23.43004
567.42        23.47346
567.85         23.6161
568.29        23.71147
568.72        23.89118
569.16        24.11251
569.60        24.32223
570.03        24.49796
570.47        24.70189
570.90        24.93811
571.34        24.93317
571.77        25.42144
572.21        25.31838
572.64        25.53797
573.08        25.49574
573.51        25.84452
573.95        25.85816
574.38        25.78035
574.82        25.62911
575.25        26.25089
575.69        26.33136
576.12        26.18934
576.56        26.01647
576.99        26.40732
577.42        26.57047
577.86        26.26761
578.29        26.47758
578.73        26.38762
579.16        26.37645
579.60        26.16857
580.03        26.08407
580.47        26.14503
580.90        25.87827
581.33        25.57858
581.77        25.99155
582.20        25.98174
582.64        25.91576
583.07        25.72509
583.51        25.35627
583.94        25.02486
584.37        24.80605
584.81        24.76815
585.24        24.69086
585.68        25.01962
586.11        24.40834
586.54        24.53035
586.98        24.39283
587.41        24.46009
587.85        24.49302
588.28        24.30088
588.71        24.38152
589.15        24.23303
589.58        24.14989
590.01        24.07781
590.45        24.00575
590.88        23.96786
591.31        24.00257
591.75        24.11071
592.18        24.10049
592.61        23.96071
593.05        24.27302
593.48        24.59545
593.91        24.37357
594.35        24.60527
594.78        24.57079
595.21        24.69831
595.65         24.7009
596.08        24.65499
596.51        24.79957
596.94        25.11309
597.38        25.32697
597.81         25.3829
598.24        25.69072
598.68         26.2387
599.11        25.89169
599.54        26.87284
599.97        26.83175
600.41         27.2984
600.84        27.54709
601.27         27.8484
601.70        28.11408
602.14        28.35687
602.57        28.76026
603.00        29.26552
603.43        29.64289
603.87        29.90617
604.30        30.23486
604.73        30.63968
605.16        31.16215
605.60        31.12266
606.03        31.58976
606.46        32.29107
606.89         32.3006
607.32        32.83215
607.76         32.8106
608.19        33.33406
608.62        33.68338
609.05        34.02737
609.48        34.28961
609.92        34.60857
610.35        34.57774
610.78        35.61275
611.21        36.17866
611.64        36.17379
612.07        36.29409
612.50        36.46012
612.94        36.61474
613.37        36.78846
613.80        37.03275
614.23        37.29982
614.66        37.58152
615.09        37.85087
615.52        38.08466
615.96        38.28819
616.39        38.49552
616.82        38.71741
617.25        38.84764
617.68        39.29018
618.11        39.12371
618.54        38.67155
618.97        38.73771
619.40        39.32334
619.84        39.73702
620.27        39.88784
620.70        40.13685
621.13        40.43279
621.56        40.35905
621.99        40.02716
622.42        40.08819
622.85        40.49947
623.28        40.60732
623.71        40.36408
624.14        40.50177
624.57        40.18962
625.00        40.32319
625.43        40.22759
625.86        40.21337
626.29        40.12176
626.72        40.17854
627.15          40.009
627.58        39.92494
628.01        39.79737
628.44         39.5593
628.87        39.24397
629.30         38.9628
629.73        38.71367
630.16        38.58983
630.59        38.22365
631.02        37.98684
631.45         37.7715
631.88        37.54961
632.31        37.30998
632.74        37.05974
633.17        36.78609
633.60        36.46049
634.03        36.08193
634.46        35.66208
634.89        35.21668
635.32        34.77088
635.75        34.33752
636.18        33.91575
636.61        33.51452
637.04        33.14642
637.47        32.81408
637.89        32.50834
638.32        32.20498
638.75        31.91656
639.18        31.64704
639.61        31.27102
640.04        31.03216
640.47        30.75232
640.90        30.50707
641.33        30.28959
641.76        30.11008
642.18        29.98625
642.61        29.90741
643.04        29.87116
643.47        29.86596
643.90        29.87098
644.33         29.8784
644.76        29.90044
645.18        29.93546
645.61        29.94459
646.04        29.92659
646.47        29.95565
646.90        30.09543
647.33        30.08804
647.75        30.51619
648.18        30.89888
648.61        31.34014
649.04        31.73553
649.47        32.07256
649.89         32.3286
650.32        32.53813
650.75         32.9444
651.18          33.506
651.61        33.82991
652.03        33.96558
652.46        34.43269
652.89        35.16591
653.32        35.53605
653.74        35.67325
654.17        36.05114
654.60        36.05161
655.03        37.06928
655.46        37.47612
655.88        37.40368
656.31        40.21954
656.74        44.07804
657.16        41.97218
657.59        39.47524
658.02        40.03845
658.45        40.84728
658.87        41.15059
659.30        40.97016
659.73        40.56239
660.15        41.30436
660.58        41.32319
661.01        41.85506
661.44        42.18795
661.86        42.24698
662.29        42.10461
662.72        42.28292
663.14        42.78106
663.57        42.91561
664.00        42.75011
664.42         42.9155
664.85        43.39728
665.27        43.69365
665.70        43.76533
666.13        43.88586
666.55        44.05718
666.98        44.12933
667.41         44.1326
667.83        44.17532
668.26        44.26503
668.69        44.38395
669.11        44.51017
669.54        44.57093
669.96        44.55322
670.39        44.57861
670.82        44.67578
671.24        44.64426
671.67        44.59354
672.09        45.02846
672.52         45.8214
672.94        46.06639
673.37        46.20459
673.80        45.96987
674.22        45.68147
674.65        45.59715
675.07        45.78804
675.50        46.10103
675.92        46.45332
676.35        46.70716
676.77        46.81001
677.20        46.87132
677.62        46.94107
678.05        46.77216
678.47        46.80359
678.90        46.91765
679.32        46.83604
679.75        46.95228
680.17        47.14542
680.60        47.36477
681.02        47.54753
681.45        47.83924
681.87        47.71126
682.30        47.84793
682.72        47.71329
683.15         47.6989
683.57        47.72229
684.00        47.86565
684.42        48.08425
684.85        48.23709
685.27         48.3049
685.70        48.30091
686.12        48.26444
686.54        48.40304
686.97        48.65599
687.39        48.71311
687.82        48.56932
688.24         48.5129
688.66        48.56087
689.09        48.54077
689.51        48.47353
689.94        48.53185
690.36        48.74767
690.78        48.93526
691.21        49.01543
691.63        49.63105
692.06        49.47499
692.48        49.73478
692.90        49.99426
693.33        50.14164
693.75        50.17308
694.17        50.08878
694.60        49.94908
695.02        50.22309
695.44        50.21686
695.87        50.51147
696.29        50.81118
696.71        50.87507
697.14        50.70921
697.56        50.54552
697.98        50.47187
698.41        50.45401
698.83        50.49437
699.25        50.68217
699.68        50.95255
700.10        51.16076
700.52        51.24369
700.94        51.43778
701.37         51.4064
701.79        51.48365
702.21        51.56459
702.64        51.63932
703.06        51.68901
703.48        51.69938
703.90        51.67896
704.33        51.64459
704.75        51.61745
705.17        51.61407
705.59         51.6444
706.01        51.69961
706.44        51.79879
706.86         51.9824
707.28        52.22672
707.70        52.54302
708.12        52.86356
708.55        53.00248
708.97        52.97282
709.39        52.99177
709.81        53.07632
710.23        53.09647
710.66        53.06459
711.08        53.08966
711.50        53.16779
711.92        53.25718
712.34        53.35473
712.76        53.46984
713.19        53.58263
713.61        53.70335
714.03        53.80096
714.45        53.86638
714.87        53.89198
715.29        53.87019
715.71        53.80012
716.13        53.69604
716.56        53.57355
716.98         53.4385
717.40        53.28063
717.82        53.25631
718.24         53.4189
718.66        53.08802
719.08        53.46733
719.50        53.57107
719.92        53.74424
720.34        53.93336
720.76         54.1339
721.19        54.32772
721.61        54.47581
722.03        54.55159
722.45        54.57351
722.87        54.42393
723.29        54.17672
723.71        54.32032
724.13        54.88594
724.55        54.54981
724.97        54.96035
725.39         54.9399
725.81        54.98308
726.23        54.91281
726.65        54.80063
727.07        54.80553
727.49        54.93733
727.91        55.16073
728.33        55.42396
728.75        55.64185
729.17        55.77973
729.59        55.85965
730.01        55.89999
730.43        55.92844
730.85        55.95843
731.27        55.98191
731.69        55.99219
732.10        55.99173
732.52        55.98629
732.94        55.95716
733.36        55.91809
733.78        55.96027
734.20        56.10854
734.62        56.06678
735.04            56.3
735.46        56.34052
735.88        56.32409
736.30        56.21372
736.72        56.09264
737.13        56.14635
737.55        56.30596
737.97        56.50678
738.39        56.67746
738.81        56.48647
739.23        56.10676
739.65        56.40514
740.06        57.18222
740.48        57.40388
740.90        57.00291
741.32        56.56264
741.74        56.26321
742.16        56.13066
742.57        56.23908
742.99        56.59151
743.41        57.07652
743.83        57.41742
744.25        57.58395
744.67         57.7923
745.08        58.04514
745.50        58.14933
745.92        58.11504
746.34        58.03345
746.75        57.93172
747.17        57.82073
747.59        57.71553
748.01        57.64353
748.42        57.60456
748.84        57.54078
749.26        57.44811
749.68        57.45058
750.09        57.55596
750.51        57.52887
750.93        57.47937
751.35        57.95804
751.76        58.78704
752.18         59.0816
752.60        58.76041
753.01        58.26161
753.43        57.79704
753.85        57.57114
754.27         57.6564
754.68        57.96167
755.10        58.35867
755.52        58.60429
755.93        58.65868
756.35        58.69065
756.77        58.68532
757.18         58.3983
757.60        58.65122
758.02        58.01632
758.43        57.65017
758.85        58.44029
759.26        60.06103
759.68        60.36644
760.10        59.35892
760.51        59.03726
760.93        59.41403
761.34        59.50572
761.76        59.52762
762.18        59.11847
762.59        58.56245
763.01         58.4798
763.42        58.90434
763.84        59.22116
764.26        59.30193
764.67        59.02002
765.09        58.59956
765.50        58.69356
765.92        59.20753
766.33         59.2948
766.75        58.88347
767.16        58.70543
767.58        58.53148
768.00        58.88622
768.41        59.57166
768.83        60.13263
769.24        60.35754
769.66        60.10377
770.07        59.52444
770.49        59.15055
770.90        59.05745
771.32        59.14605
771.73        59.23315
772.15        59.44124
772.56        59.71803
772.97         60.0988
773.39        60.47194
773.80        60.68716
774.22        60.67164
774.63        60.49978
775.05        60.23993
775.46        60.06006
775.88         59.9966
776.29        60.02595
776.70        60.11725
777.12         60.2243
777.53        60.33722
777.95        60.45108
778.36        60.55125
778.77        60.57906
779.19        60.54047
779.60        60.46299
780.02        60.36755
780.43        60.34919
780.84        60.44587
781.26        60.44881
781.67        60.43455
782.09        60.87488
782.50        61.59726
782.91        61.60114
783.33        61.22611
783.74        61.05178
784.15        61.19308
784.57        61.17257
784.98        61.00771
785.39        60.93961
785.81        60.98005
786.22        61.07181
786.63        61.17405
787.04        61.21267
787.46        61.19023
787.87        61.11536
788.28         61.0499
788.70        61.06943
789.11        61.17128
789.52        61.33627
789.93        61.52965
790.35        61.69035
790.76        61.82429
791.17        61.93439
791.58         62.0084
792.00        62.07693
792.41        62.14977
792.82        62.03685
793.23        61.82678
793.65        62.00782
794.06        62.56847
794.47        62.83126
794.88        62.63126
795.29        63.01606
795.71        62.47855
796.12        62.02977
796.53        61.41941
796.94        61.23851
797.35        61.53733
797.76        61.96609
798.18         62.3511
798.59        62.63198
799.00         62.7081
799.41        62.53391
799.82        62.22673
800.23        62.04477
800.64        62.04886
801.06        62.12311
801.47        62.27472
801.88        62.41711
802.29        62.50881
802.70        62.57629
803.11        62.61032
803.52        62.58183
803.93        62.50111
804.34        62.38501
804.75        62.25363
805.17        62.17541
805.58        62.19752
805.99        62.18041
806.40        62.17077
806.81        62.47652
807.22        62.96179
807.63        63.08281
808.04         62.8391
808.45        62.69131
808.86        62.66779
809.27        62.47091
809.68        62.15479
810.09        61.97657
810.50        61.97591
810.91         62.0885
811.32        62.25641
811.73        62.37414
812.14        62.40575
812.55        62.38862
812.96        62.34717
813.37        62.31989
813.78        62.32571
814.19        62.34792
814.60        62.38895
815.01        62.45883
815.42        62.55814
815.83        62.68848
816.24        62.83465
816.65        62.95902
817.05        63.04583
817.46        63.06654
817.87        63.05986
818.28        63.04499
818.69        63.03216
819.10        63.01575
819.51        62.99525
819.92        62.98803
820.33        62.99491
820.74        62.96133
821.14        62.89307
821.55         62.9241
821.96        62.99934
822.37        62.88396
822.78        62.59781
823.19        62.41867
823.60        62.38727
824.00        62.35448
824.41        62.34455
824.82        62.54314
825.23        62.95142
825.64        63.50705
826.04        64.08508
826.45        64.38602
826.86        64.36513
827.27        64.10501
827.68        63.72974
828.08        63.47484
828.49        63.38278
828.90        63.40639
829.31         63.5452
829.72        63.79257
830.12         64.1456
830.53        64.56292
830.94        64.93967
831.35        65.04168
831.75        64.83192
832.16         64.3233
832.57        63.72092
832.97        63.33919
833.38        63.26431
833.79        63.41542
834.20        63.65447
834.60        63.74616
835.01        63.65125
835.42        63.46153
835.82        63.27952
836.23        63.22228
836.64        63.34335
837.04         63.5991
837.45        63.92081
837.86         64.3102
838.26        64.73581
838.67        65.14969
839.08        65.45121
839.48         65.4641
839.89        65.16374
840.29        64.58441
840.70        63.92068
841.11        63.41269
841.51        63.15492
841.92        63.12257
842.33         63.1881
842.73        63.12789
843.14        62.85522
843.54        62.44633
843.95         62.1547
844.35         62.4135
844.76        63.23924
845.17        64.49496
845.57        65.75928
845.98        66.17525
846.38        65.59074
846.79        64.29436
847.19        62.77338
847.60        61.79862
848.00        61.56979
848.41        61.83386
848.81        62.45379
849.22        63.09449
849.62        63.64947
850.03        64.17442
850.43        64.57231
850.84        64.55968
851.24        64.14711
851.65        63.36307
852.05        62.49706
852.46        62.05349
852.86        62.12691
853.27        62.59296
853.67        63.18658
854.07        63.70497
854.48        64.03203
854.88        64.29585
855.29        64.37779
855.69        64.26999
856.10        63.90352
856.50        63.35186
856.90        62.76261
857.31        62.38701
857.71        62.31923
858.12        62.48118
858.52        62.83613
858.92        63.12276
859.33        63.23458
859.73        63.24434
860.13        63.21394
860.54        63.27716
860.94        63.48225
861.34        63.75222
861.75        63.91711
862.15        63.79845
862.55        63.33422
862.96        62.63738
863.36        61.90143
863.76        61.44345
864.17        61.34846
864.57        61.55426
864.97        61.92144
865.38        62.20653
865.78         62.3598
866.18        62.40274
866.58        62.40048
866.99        62.46964
867.39        62.64183
867.79        62.83548
868.19        62.93557
868.60        62.75668
869.00        62.29698
869.40        61.66832
869.80          61.021
870.21        60.61608
870.61        60.56741
871.01        60.74781
871.41         61.1254
871.81        61.65407
872.22        62.26639
872.62        63.03133
873.02        63.74487
873.42        64.01624
873.82        63.76435
874.22        63.09884
874.63        62.41492
875.03        62.29349
875.43        62.84696
875.83        63.87613
876.23        65.03829
876.63        65.72762
877.03         65.7711
877.44        65.40907
877.84        64.78268
878.24        64.15276
878.64        63.63908
879.04        63.11053
879.44        62.74622
879.84         62.8218
880.24        63.32068
880.64        64.20438
881.04        64.99189
881.44        64.81038
881.84        63.53542
882.24        61.53481
882.65        59.55422
883.05        58.56145
883.45        58.79434
883.85        59.96133
884.25        61.62226
884.65        62.94898
885.05        63.58554
885.45        63.71388
885.85        63.54179
886.25        63.40435
886.65        63.41213
887.05        63.44596
887.45        63.36836
887.85        63.00436
888.25        62.35098
888.65         61.5292
889.04        60.80617
889.44        60.57854
889.84        60.90439
890.24        61.68671
890.64        62.59919
891.04        63.10029
891.44        63.05181
891.84        62.59158
892.24        62.07783
892.64        62.07792
893.04        62.72176
893.44        63.84731
893.83        65.08736
894.23        65.74564
894.63        65.66213
895.03        64.99895
895.43        64.19728
895.83        63.95233
896.23        64.41089
896.63         65.3643
897.02        66.29815
897.42         66.3877
897.82        65.49476
898.22        63.93808
898.62        62.33251
899.01        61.51434
899.41        61.67889
899.81        62.61117
900.21        63.82475
900.61        64.40488
901.00        64.06725
901.40        63.14908
901.80        62.23617
902.20         62.1447
902.59        63.05084
902.99        64.67915
903.39        66.49522
903.79        67.38524
904.18         66.9753
904.58        65.66697
904.98        64.16492
905.38        63.42597
905.77        63.62646
906.17        64.48071
906.57        65.52865
906.96        66.04509
907.36        65.76895
907.76         64.9583
908.15        63.97828
908.55        63.35426
908.95        63.28711
909.34        63.58283
909.74        64.00132
910.14         64.1525
910.53        63.94951
910.93        63.57317
911.33        63.21854
911.72        63.19131
912.12        63.56285
912.52        64.19746
912.91        64.96888
913.31        65.66959
913.70        66.23557
914.10         66.6585
914.49        66.94536
914.89        67.03912
915.29        66.96143
915.68        66.72242
916.08        66.37139
916.47         65.9462
916.87        65.51652
917.26        65.05989
917.66        64.68996
918.05        64.54589
918.45        64.61165
918.84        64.91081
919.24        65.18041
919.64        65.06389
920.03        64.49758
920.42        63.59512
920.82        62.74258
921.21        62.36823
921.61        62.55331
922.00        63.20952
922.40        64.01695
922.79        64.49194
923.19        64.44975
923.58        64.06304
923.98        63.65347
924.37        63.67308
924.77        64.22044
925.16        65.14707
925.55        66.18723
925.95        66.85278
926.34        67.00208
926.74        66.75901
927.13          66.275
927.52        65.77834
927.92        65.36111
928.31        64.94628
928.70        64.56988
929.10        64.28155
929.49        64.10849
929.89        64.08316
930.28          64.145
930.67        64.12767
931.07        63.99247
931.46        63.78919
931.85        63.66787
932.24        63.90366
932.64        64.51527
933.03        65.46115
933.42        66.44767
933.82        67.01639
934.21        67.05705
934.60        66.65848
934.99         66.1212
935.39        65.88484
935.78        66.04729
936.17        66.48058
936.56        66.91528
936.96        66.91069
937.35        66.41119
937.74        65.56045
938.13        64.61095
938.53        63.94389
938.92        63.65673
939.31        63.69137
939.70        63.92823
940.09        64.19016
940.49        64.36224
940.88        64.48256
941.27         64.6412
941.66        65.01358
942.05        65.59104
942.44        66.30305
942.84        66.75486
943.23        66.30906
943.62        64.96558
944.01        63.07445
944.40        61.30711
944.79        60.48974
945.18        60.74518
945.57        61.86777
945.97        63.37031
946.36         64.5219
946.75        64.86451
947.14        64.60304
947.53         64.1158
947.92         64.0413
948.31        64.53279
948.70        65.31051
949.09        66.09681
949.48        66.46596
949.87        66.28831
950.26        65.77777
950.65        65.02859
951.04        64.16948
951.43        63.31813
951.82        62.44789
952.21        61.77821
952.60        61.63297
952.99        62.03648
953.38        62.91916
953.77        63.90123
954.16        64.31097
954.55        63.96565
954.94        63.01833
955.33         61.9102
955.72        61.38798
956.11         61.6507
956.50        62.50106
956.89        63.51441
957.28        63.98727
957.66        63.75235
958.05        63.02284
958.44        62.22968
958.83        62.05225
959.22        62.64086
959.61        63.73653
960.00         64.9319
960.39        65.53088
960.78        65.32027
961.16         64.5603
961.55        63.50967
961.94        62.54742
962.33        61.84499
962.72        61.29092
963.11        60.99564
963.49        61.16229
963.88        61.74302
964.27        62.72008
964.66        63.78102
965.04        64.39671
965.43        64.36669
965.82        63.82115
966.21        63.06248
966.60        62.63091
966.98        62.69855
967.37          63.109
967.76        63.62162
968.15        63.81548
968.53        63.60418
968.92        63.10139
969.31        62.58808
969.69        62.50365
970.08        62.91711
970.47        63.66257
970.86        64.47153
971.24        64.92641
971.63        64.92065
972.02        64.66372
972.40        64.30791
972.79        64.06362
973.17        64.11102
973.56        64.29159
973.95        64.79962
974.33        65.97118
974.72        67.74004
975.11        70.06034
975.49        72.48147
975.88        73.87979
976.26        73.85226
976.65        72.61073
977.04        70.66438
977.42        68.72398
977.81        67.07442
978.19        65.54591
978.58        64.23109
978.96        63.07058
979.35        62.08487
979.74        61.32503
980.12        60.83935
980.51        60.52976
980.89        60.46183
981.28        60.66873
981.66        61.06641
982.05        61.46817
982.43        61.81312
982.82        61.98344
983.20        62.33761
983.59        63.48597
983.97        65.57554
984.35        68.50321
984.74        71.15482
985.12        71.75867
985.51        69.77531
985.89        65.95254
986.28        62.00261
986.66        59.97794
987.04        60.36499
987.43        62.52538
987.81        65.53435
988.20        67.38941
988.58        67.41639
988.96          66.284
989.35        64.49771
989.73        62.99451
990.12        62.10698
990.50        61.43694
990.88        61.25745
991.27        62.06483
991.65        63.89151
992.03        66.83714
992.42        69.86909
992.80        71.04613
993.18        69.56844
993.56        66.23106
993.95        62.78246
994.33        60.99244
994.71        61.25615
995.10        62.97408
995.48        65.51119
995.86        66.97327
996.24         66.5851
996.63        65.13439
997.01        63.38951
997.39        62.30383
997.77        62.15136
998.15        62.46606
998.54         63.3861
998.92        65.24397
999.30        67.93604
999.68        71.44823
1000.06        74.62411
1000.45        75.30186
1000.83        73.21375
1001.21        69.03367
1001.59         64.5171
1001.97        62.04073
1002.35        62.08894
1002.73        64.09435
1003.12        67.12277
1003.50        69.44054
1003.88        70.30329
1004.26         70.2228
1004.64        69.80906
1005.02        70.06975
1005.40        71.21288
1005.78        72.64396
1006.16        73.92484
1006.54        74.45522
1006.92        73.99962
1007.30        72.89304
1007.69        70.98668
1008.07        68.23574
1008.45         65.1244
1008.83        62.03815
1009.21        59.83639
1009.59        59.33649
1009.97        60.53199
1010.35        63.37762
1010.73        67.09068
1011.11        69.59663
1011.49        69.82268
1011.86        67.88655
1012.24        65.41171
1012.62        65.01987
1013.00        67.49593
1013.38        72.66998
1013.76        78.49265
1014.14        79.66438
1014.52        75.01888
1014.90        67.59788
1015.28        61.27916
1015.66         59.4434
1016.04        62.23643
1016.41        69.09853
1016.79          78.561
1017.17        86.54884
1017.55        89.90712
1017.93        89.06767
1018.31        84.53995
1018.69        78.76604
1019.06        73.57327
1019.44        69.08408
1019.82         65.8307
1020.20        64.04756
1020.58        63.40762
1020.95        64.17259
1021.33        65.62867
1021.71        65.99618
1022.09        64.63817
1022.46        61.66472
1022.84        59.20655
1023.22        60.04379
1023.60         64.9854
1023.97        74.72836
1024.35         86.4323
1024.73        89.81946
