SpectraSmart Spectrum 2.9.0.0
--------- Device Information -----------
Spectrum Name :  反射率_0
Saving Time :  2024/05/03 20:56:08
Spectro-Module Model Name : SE2030-DUVN
Spectro-Module Serial Number : OS361AC55029948
Wavelength Start : 200
Wavelength End : 1025
Wavelength Unit : Wavelength(nm)
Spectrum Unit : Reflectance(%)
-----------Spectrum Setting ------------
Integration Time : 20ms
Average : 10
Boxcar : 0
Background removal :  enabled
linearity correction :  enabled
SC :  disabled
Intensity correction :  disabled
DWT denoise :  enabled
savitzky-golay :  disabled
FFT :  disabled
Running average :  disabled
Kalman :  disabled
High pass :  disabled
---------------BEGIN--------------------
Wavelength(nm)             Reflectance(%)
200.29               0
200.75        56.59967
201.21        108.5658
201.67       -3129.956
202.13       -91.43554
202.58       -38.40464
203.04       -15.25571
203.50       -3.354222
203.96       -2.906402
204.42        -16.9957
204.88       -80.81823
205.34        2231.045
205.80        228.9964
206.26         210.268
206.72        27033.94
207.18        -8.37709
207.64        35.46629
208.10        60.99002
208.55        122.2056
209.01        638.5034
209.47        778.1433
209.93        109.6029
210.39        43.68763
210.85        26.77279
211.31         23.7306
211.77        27.73896
212.23        42.89158
212.69        83.89822
213.14        109.4071
213.60        51.11428
214.06        14.78651
214.52       0.4855086
214.98       -5.195334
215.44       -8.054575
215.90       -11.11248
216.36       -4.699914
216.81       -17.97204
217.27       -32.34576
217.73       -75.08014
218.19       -319.3848
218.65       -7049.415
219.11       -552.1884
219.57        -156.028
220.02        -95.6065
220.48       -176.8804
220.94        222.6585
221.40        74.96399
221.86        52.65274
222.32        45.61592
222.77        42.96515
223.23         42.5453
223.69         43.5346
224.15        43.65958
224.61         42.1897
225.06        40.59089
225.52        40.72628
225.98        43.53769
226.44        49.31337
226.90        58.31924
227.36        69.61471
227.81        77.43084
228.27        77.58427
228.73        72.87412
229.19        66.77349
229.65        62.08355
230.10        58.91628
230.56         56.8055
231.02        55.36922
231.48        54.47183
231.93        53.93764
232.39        53.95355
232.85        54.17426
233.31        54.18953
233.77        53.92223
234.22        53.35157
234.68         52.9161
235.14        53.36678
235.60        54.88356
236.05        57.45865
236.51        60.08225
236.97        60.89542
237.43        59.36249
237.88        56.22681
238.34        53.09382
238.80        51.75418
239.26        52.73434
239.71        58.36982
240.17        66.79699
240.63        75.83414
241.08        77.20891
241.54        68.72068
242.00         58.8452
242.46        57.26432
242.91        66.45572
243.37        89.37025
243.83        130.8696
244.28        170.6945
244.74        161.8504
245.20        108.4548
245.66        49.75519
246.11        16.92304
246.57         7.81947
247.03        11.58684
247.48        18.99273
247.94        20.95401
248.40        16.66356
248.85        8.749908
249.31        1.416243
249.77        2.528152
250.22        11.93484
250.68        23.52291
251.14        33.57308
251.59        40.93282
252.05        46.82613
252.51        52.77081
252.96        59.24668
253.42        64.25829
253.88        65.00646
254.33        61.80038
254.79        57.00328
255.25        52.25296
255.70        48.50961
256.16        46.23333
256.62        45.30436
257.07        45.67908
257.53        47.16292
257.99          49.035
258.44        50.40119
258.90        50.73508
259.35        49.83535
259.81        48.58757
260.27        47.28897
260.72        46.28137
261.18        45.83048
261.63          45.511
262.09        45.36742
262.55        45.15421
263.00        44.76764
263.46        44.33981
263.91        43.82178
264.37         43.3937
264.83        43.01682
265.28        42.62572
265.74        42.18665
266.19        41.43908
266.65        40.48301
267.11        39.36745
267.56        38.27062
268.02        37.51702
268.47        37.10488
268.93        36.95206
269.38        36.87574
269.84        36.56846
270.30        35.98634
270.75        35.24145
271.21        34.53885
271.66        34.07853
272.12        33.90279
272.57        33.87751
273.03        33.89344
273.48        33.81463
273.94         33.5933
274.39        33.26816
274.85        32.83052
275.31         32.1717
275.76         31.3145
276.22        30.37977
276.67         29.5064
277.13         28.9844
277.58        28.77351
278.04        28.80005
278.49         28.8562
278.95        28.67947
279.40        28.18619
279.86        27.55323
280.31        26.85809
280.77        26.30664
281.22        25.87135
281.68         25.5325
282.13        25.22626
282.59        24.93786
283.04         24.6384
283.50        24.35648
283.95        24.08772
284.41        23.84704
284.86        23.61705
285.32        23.41673
285.77        23.20101
286.22        22.96237
286.68        22.71256
287.13        22.43504
287.59        22.18826
288.04        22.00912
288.50        21.91557
288.95         21.8668
289.41        21.82381
289.86         21.6831
290.32         21.4528
290.77        21.15933
291.22        20.87024
291.68        20.67105
292.13        20.57018
292.59        20.55407
293.04        20.59409
293.50        20.66331
293.95        20.74168
294.40         20.8476
294.86         20.9797
295.31        21.13138
295.77        21.30182
296.22        21.47594
296.68        21.66815
297.13        21.90435
297.58         22.1792
298.04        22.50163
298.49        22.79921
298.95        22.99403
299.40        23.06992
299.85        23.05296
300.31        23.07488
300.76        23.31762
301.21         23.8061
301.67        24.46839
302.12        25.10712
302.58        25.43133
303.03        25.38293
303.48        25.08429
303.94        24.74281
304.39        24.61642
304.84        24.77955
305.30        25.13873
305.75        25.57644
306.20        25.93408
306.66        26.16789
307.11        26.31974
307.57         26.4255
308.02        26.48487
308.47        26.52535
308.93        26.53208
309.38        26.53295
309.83        26.61069
310.29          26.772
310.74        26.98911
311.19         27.1867
311.65        27.23662
312.10         27.1082
312.55        26.84569
313.00        26.53371
313.46        26.30615
313.91        26.18823
314.36        26.15142
314.82        26.14259
315.27          26.066
315.72        25.90474
316.18        25.69225
316.63        25.47535
317.08        25.32805
317.53        25.26477
317.99        25.25115
318.44        25.24771
318.89          25.182
319.35        25.03363
319.80        24.82903
320.25        24.59372
320.70        24.37015
321.16        24.16686
321.61        23.97054
322.06        23.77707
322.51        23.58417
322.97        23.38952
323.42        23.21054
323.87        23.02588
324.32        22.79985
324.78        22.52807
325.23        22.22424
325.68        21.93818
326.13        21.75782
326.59        21.69094
327.04        21.72318
327.49        21.77646
327.94        21.72642
328.39        21.53864
328.85        21.24397
329.30        20.91209
329.75        20.64688
330.20        20.48625
330.66        20.39088
331.11        20.34458
331.56        20.29047
332.01        20.20706
332.46        20.11359
332.92        19.99985
333.37        19.87177
333.82         19.7239
334.27        19.55263
334.72        19.37971
335.17        19.24752
335.63        19.16135
336.08        19.12572
336.53        19.11122
336.98         19.0729
337.43        18.99903
337.88        18.90361
338.34        18.80597
338.79         18.7395
339.24        18.71227
339.69         18.7106
340.14        18.71932
340.59        18.71764
341.05         18.6946
341.50        18.65335
341.95        18.59566
342.40        18.52782
342.85         18.4529
343.30        18.37298
343.75        18.27798
344.20        18.15331
344.66        18.01008
345.11         17.8556
345.56        17.72712
346.01         17.6757
346.46        17.70957
346.91        17.80904
347.36         17.9353
347.81        18.02858
348.26        18.06766
348.72         18.0628
349.17        18.02707
349.62        17.99051
350.07        17.96137
350.52        17.93019
350.97        17.87982
351.42        17.78624
351.87        17.64744
352.32        17.47489
352.77        17.30102
353.22        17.17436
353.67        17.10651
354.13         17.0915
354.58        17.08338
355.03        17.02494
355.48         16.9083
355.93        16.75767
356.38        16.61539
356.83        16.54886
357.28        16.56848
357.73        16.64056
358.18        16.73267
358.63        16.79324
359.08        16.80217
359.53        16.77881
359.98        16.70854
360.43        16.57099
360.88        16.37182
361.33        16.11268
361.78        15.85784
362.23        15.70757
362.68        15.67693
363.13        15.74241
363.58        15.80991
364.03        15.72508
364.48        15.46117
364.93        15.07128
365.38         14.6708
365.83         14.4374
366.28        14.41009
366.73         14.5315
367.18        14.70111
367.63        14.75516
368.08        14.64726
368.53        14.42894
368.98        14.17338
369.43        13.99082
369.88        13.90908
370.33        13.88877
370.78        13.88231
371.23        13.81547
371.68        13.66972
372.13        13.47924
372.58        13.28214
373.03         13.1292
373.48        13.03317
373.93        12.97311
374.38        12.93235
374.83        12.88708
375.28        12.82613
375.72        12.75141
376.17        12.67115
376.62        12.57174
377.07         12.4523
377.52        12.31308
377.97        12.16852
378.42        12.04706
378.87         11.9588
379.32            11.9
379.77        11.85523
380.22        11.79845
380.67        11.72198
381.11        11.63287
381.56        11.54297
382.01        11.48196
382.46          11.458
382.91        11.46347
383.36        11.47219
383.81        11.44573
384.26        11.37672
384.71        11.27432
385.15        11.16794
385.60        11.12076
386.05         11.1365
386.50        11.19348
386.95         11.2482
387.40        11.23423
387.85        11.14449
388.29        11.00588
388.74        10.86783
389.19        10.77267
389.64        10.73221
390.09        10.72672
390.54        10.75554
390.98        10.80762
391.43        10.87383
391.88         10.9721
392.33        11.06597
392.78        11.04846
393.23        10.94472
393.67        10.87895
394.12        10.86817
394.57        10.82293
395.02        10.74725
395.47        10.69476
395.91        10.66745
396.36        10.63164
396.81        10.59349
397.26         10.5672
397.71        10.54484
398.15        10.52576
398.60        10.52353
399.05        10.47237
399.50        10.40032
399.95        10.46905
400.39        10.62991
400.84        10.57943
401.29        10.34786
401.74         10.2366
402.18        10.26584
402.63        10.27965
403.08        10.27955
403.53        10.25416
403.97         10.3461
404.42        10.41479
404.87        10.48362
405.32        10.51695
405.76        10.50591
406.21        10.46125
406.66        10.39993
407.11        10.35352
407.55        10.33299
408.00        10.32869
408.45        10.32675
408.90        10.30001
409.34        10.24331
409.79        10.16779
410.24        10.09811
410.68        10.06515
411.13        10.07591
411.58        10.12237
412.03        10.17727
412.47        10.19463
412.92        10.15935
413.37         10.0856
413.81        10.00897
414.26        9.990871
414.71        10.03575
415.15        10.13028
415.60        10.22423
416.05        10.23748
416.49        10.15217
416.94        10.00185
417.39        9.844361
417.83        9.761376
418.28        9.771245
418.73         9.84519
419.17        9.952228
419.62        10.03431
420.07        10.06911
420.51        10.07145
420.96        10.04785
421.41        10.00096
421.85         9.93291
422.30        9.848637
422.74        9.760258
423.19        9.717486
423.64        9.718425
424.08        9.744543
424.53         9.76939
424.98        9.789306
425.42        9.802156
425.87        9.777711
426.31        9.744175
426.76         9.80863
427.21        9.948859
427.65        10.01581
428.10        10.00598
428.54        10.02053
428.99        10.06417
429.44        10.13067
429.88        10.18242
430.33        10.10323
430.77        9.944981
431.22        9.921886
431.66        10.03633
432.11        10.16164
432.56        10.24618
433.00         10.2965
433.45        10.23751
433.89        10.08424
434.34        9.587185
434.78        9.607242
435.23        10.02591
435.67        10.16226
436.12        9.999399
436.57        9.912234
437.01        9.936887
437.46         9.94044
437.90        9.928654
438.35        9.937799
438.79        9.949074
439.24        9.926638
439.68        9.873188
440.13        9.825336
440.57        9.789377
441.02        9.764545
441.46        9.752303
441.91        9.746087
442.35        9.739594
442.80        9.796426
443.24        9.882538
443.69        9.888281
444.13         9.82263
444.58        9.803574
445.02        9.836953
445.47        9.854596
445.91        9.855004
446.36        9.873073
446.80        9.905849
447.24        9.946157
447.69        9.984082
448.13        10.00284
448.58        9.999621
449.02        9.976855
449.47        9.947605
449.91        9.927133
450.36          9.9211
450.80        9.923422
451.25        9.923504
451.69        9.900823
452.13        9.853092
452.58        9.789371
453.02        9.723709
453.47        9.682183
453.91        9.670872
454.36        9.681856
454.80        9.699759
455.24        9.712995
455.69        9.720496
456.13        9.691401
456.58        9.638598
457.02        9.694538
457.46        9.705905
457.91        9.698977
458.35        9.634629
458.79        9.624449
459.24        9.656499
459.68        9.617301
460.13        9.535673
460.57        9.500274
461.01        9.523644
461.46        9.559448
461.90        9.585813
462.34        9.577273
462.79        9.525168
463.23        9.435579
463.68        9.350189
464.12        9.326842
464.56        9.373942
465.01        9.495923
465.45         9.62337
465.89        9.627434
466.34        9.524357
466.78        9.433866
467.22        9.393188
467.67        9.382344
468.11        9.409623
468.55        9.464463
468.99        9.524421
469.44        9.567617
469.88        9.583966
470.32        9.563606
470.77        9.526162
471.21        9.517979
471.65        9.546195
472.10         9.59504
472.54        9.640051
472.98        9.650725
473.42        9.622365
473.87        9.573092
474.31        9.517992
474.75        9.488555
475.20        9.495332
475.64        9.519579
476.08         9.55166
476.52        9.591054
476.97        9.633936
477.41        9.655678
477.85        9.638675
478.29        9.738091
478.74        9.630958
479.18        9.653361
479.62        9.704913
480.06        9.733563
480.50        9.734598
480.95        9.747398
481.39        9.777458
481.83        9.820621
482.27        9.884445
482.72        9.982863
483.16        10.08703
483.60        10.15652
484.04        10.18343
484.48        10.13818
484.93        10.11602
485.37          10.272
485.81        10.55711
486.25        10.85937
486.69        10.74532
487.14        10.61988
487.58        10.93926
488.02        10.71587
488.46        10.92601
488.90        10.85993
489.34        10.68759
489.79        10.72576
490.23        10.91942
490.67        11.15176
491.11         11.3383
491.55        11.33725
491.99        11.20407
492.43        11.22252
492.88        11.41291
493.32        11.59715
493.76        11.73112
494.20        11.84068
494.64        11.91778
495.08          11.958
495.52        11.98062
495.96        12.02631
496.41        12.10534
496.85        12.18603
497.29        12.27432
497.73        12.42311
498.17        12.60613
498.61         12.7316
499.05         12.7881
499.49        12.80653
499.93        12.81643
500.37        12.88355
500.82        12.99863
501.26        13.06942
501.70        13.09284
502.14        13.13805
502.58        13.21096
503.02         13.2844
503.46        13.35794
503.90        13.43758
504.34        13.52475
504.78        13.62036
505.22        13.72114
505.66        13.82011
506.10        13.89489
506.54        13.94437
506.98        13.97243
507.42        13.92665
507.86        13.81751
508.30        13.96221
508.74        13.88339
509.18        13.96522
509.62        14.04622
510.06        14.11371
510.50        14.15538
510.94        14.18139
511.38        14.20284
511.82        14.22278
512.26        14.24545
512.70         14.2705
513.14        14.28853
513.58         14.2872
514.02        14.26579
514.46        14.22648
514.90        14.19462
515.34        14.20988
515.78        14.27793
516.22        14.38818
516.66        14.49572
517.10        14.52922
517.54        14.47654
517.98        14.36003
518.42        14.23622
518.86        14.19572
519.30        14.25772
519.74        14.39207
520.18        14.54371
520.62         14.6227
521.06        14.60393
521.50        14.51594
521.93        14.39754
522.37        14.31099
522.81        14.27412
523.25        14.26609
523.69        14.26814
524.13        14.25182
524.57        14.20987
525.01        14.15776
525.45        14.10343
525.89        14.05623
526.32        14.01969
526.76        13.98919
527.20        13.96854
527.64        13.96655
528.08        13.98142
528.52        14.00942
528.96        14.03292
529.40        14.02423
529.83        13.97581
530.27        13.89781
530.71        13.80954
531.15        13.74309
531.59        13.70658
532.03        13.69347
532.46        13.68547
532.90         13.6532
533.34        13.59341
533.78        13.51971
534.22        13.45329
534.66        13.42398
535.09        13.43296
535.53        13.46718
535.97        13.50895
536.41        13.52011
536.85        13.49102
537.28        13.47208
537.72        13.46026
538.16        13.36588
538.60        13.23762
539.04        13.25626
539.47        13.40371
539.91        13.49813
540.35        13.52644
540.79        13.59899
541.22        13.69555
541.66        13.74075
542.10        13.73226
542.54        13.67438
542.97        13.61312
543.41        13.67461
543.85        13.84839
544.29        14.00844
544.72        14.12526
545.16        14.25418
545.60        14.38329
546.04        14.47197
546.47         14.5335
546.91        14.61512
547.35        14.72427
547.79           14.85
548.22        14.98733
548.66        15.12965
549.10        15.27886
549.53        15.47401
549.97        15.69181
550.41        15.85644
550.84        15.95287
551.28        16.01496
551.72        16.05958
552.15        16.10325
552.59        16.16443
553.03          16.234
553.46        16.30537
553.90        16.38946
554.34        16.47843
554.77        16.55803
555.21        16.63965
555.65        16.75036
556.08        16.88646
556.52        17.03792
556.96         17.1876
557.39        17.29501
557.83        17.41186
558.27        17.47636
558.70        17.51426
559.14        17.58322
559.57         17.6702
560.01        17.70198
560.45        17.69079
560.88         17.7173
561.32        17.79414
561.75        17.87333
562.19        17.96106
562.63        18.02907
563.06        18.07564
563.50        18.20395
563.93        18.36761
564.37        18.33211
564.80        18.15221
565.24        18.16819
565.68          18.364
566.11        18.47537
566.55        18.50097
566.98        18.58031
567.42        18.70694
567.85        18.85637
568.29        18.89863
568.72        18.95345
569.16        19.01458
569.60        19.12134
570.03        19.27824
570.47        19.44871
570.90        19.59484
571.34        19.78325
571.77        20.00358
572.21        19.88851
572.64        20.04886
573.08        19.95229
573.51         20.4093
573.95        20.53587
574.38        20.56832
574.82        20.31483
575.25        20.74379
575.69        20.83615
576.12        20.57397
576.56        20.70277
576.99        21.11532
577.42        21.20401
577.86        20.91941
578.29        21.21204
578.73        20.91595
579.16        20.89654
579.60        20.76188
580.03        20.71019
580.47         20.7573
580.90        20.55456
581.33        20.46954
581.77        20.72694
582.20        20.83725
582.64        20.61799
583.07        20.63719
583.51        20.35337
583.94        20.08292
584.37        19.91106
584.81        19.89216
585.24        19.80325
585.68        20.01421
586.11        19.52871
586.54         19.6735
586.98        19.54349
587.41        19.50698
587.85        19.49689
588.28        19.52605
588.71        19.43787
589.15        19.33485
589.58        19.43115
590.01         19.3486
590.45        19.22129
590.88        19.00236
591.31        19.07009
591.75        19.38021
592.18        19.42455
592.61        19.20779
593.05        19.25594
593.48        19.80278
593.91        19.46467
594.35        19.63803
594.78        19.63825
595.21        19.84905
595.65        19.89719
596.08        19.77062
596.51        20.12458
596.94         20.1401
597.38        20.31812
597.81        20.40453
598.24        20.53352
598.68        20.76249
599.11        20.75647
599.54        21.47248
599.97         21.3955
600.41        21.81061
600.84        22.01352
601.27        22.29537
601.70        22.55132
602.14        22.80382
602.57        23.14662
603.00        23.51096
603.43        24.01775
603.87        24.10572
604.30        24.43834
604.73        24.85417
605.16        25.26014
605.60        25.15764
606.03         25.5917
606.46        26.37398
606.89        26.28936
607.32         26.7507
607.76        26.92027
608.19        27.25328
608.62        27.52587
609.05        27.73601
609.48        28.04939
609.92        28.53969
610.35        28.41609
610.78        29.29249
611.21         29.6427
611.64        29.86292
612.07        30.09957
612.50        30.35377
612.94        30.54647
613.37        30.68302
613.80        30.88649
614.23          31.016
614.66        31.22947
615.09        31.47942
615.52         31.7571
615.96         32.0404
616.39        32.27758
616.82        32.45618
617.25        32.67457
617.68        32.90586
618.11        32.91309
618.54        32.78902
618.97        32.92081
619.40        33.31176
619.84        33.62572
620.27        33.79229
620.70         33.9925
621.13        34.20528
621.56        34.06836
621.99        33.67002
622.42        34.00731
622.85        34.28329
623.28        34.42524
623.71        34.17807
624.14        34.20803
624.57         34.0423
625.00        34.01702
625.43        34.00835
625.86        34.02726
626.29        34.04198
626.72        34.01414
627.15        33.93694
627.58        33.78862
628.01        33.56315
628.44         33.4235
628.87        33.23382
629.30        32.98434
629.73        32.59827
630.16        32.70395
630.59         32.2347
631.02        32.04824
631.45        31.83428
631.88        31.59003
632.31        31.29773
632.74        31.03217
633.17        30.81242
633.60        30.30681
634.03         30.0497
634.46        29.62484
634.89        29.20912
635.32        28.81745
635.75        28.46116
636.18        28.12997
636.61        27.80584
637.04        27.47328
637.47        27.12779
637.89        26.77118
638.32        26.40585
638.75        26.08033
639.18        25.80951
639.61        25.48037
640.04         25.2792
640.47        25.03991
640.90        24.81578
641.33        24.60766
641.76        24.42393
642.18        24.27819
642.61        24.16434
643.04        24.08077
643.47        24.02313
643.90        23.98461
644.33        23.96123
644.76        23.95935
645.18        23.97793
645.61        23.98432
646.04        23.97534
646.47        24.01299
646.90        24.13541
647.33        24.11318
647.75         24.4106
648.18        24.65122
648.61        24.94479
649.04        25.23565
649.47        25.51637
649.89         25.7992
650.32        26.08669
650.75        26.41169
651.18        26.77739
651.61        27.16185
652.03          27.562
652.46        27.98837
652.89         28.4035
653.32        28.68987
653.74        29.00267
654.17        29.14917
654.60        29.71553
655.03        30.35662
655.46         30.7337
655.88        31.12738
656.31        33.08148
656.74         36.4297
657.16        34.67933
657.59        32.71209
658.02        33.24652
658.45        33.97375
658.87        34.83242
659.30        34.58272
659.73        34.48656
660.15        34.87488
660.58         35.0088
661.01        35.28068
661.44        35.36082
661.86         35.5791
662.29        35.90012
662.72        36.20744
663.14        36.48788
663.57        36.61118
664.00        36.64863
664.42        36.88736
664.85        37.32094
665.27        37.64213
665.70        37.80795
666.13        37.99113
666.55        38.18759
666.98        38.27977
667.41        38.30938
667.83         38.3946
668.26        38.55261
668.69        38.76614
669.11        38.98023
669.54        39.10301
669.96        39.11926
670.39         39.0618
670.82        39.03299
671.24        39.16153
671.67        39.46572
672.09        39.95336
672.52        40.50722
672.94        40.63687
673.37         40.7738
673.80        40.60081
674.22        40.39245
674.65         40.3476
675.07        40.53007
675.50        40.86032
675.92        41.25037
676.35        41.53654
676.77        41.67673
677.20        41.72998
677.62         41.7442
678.05        41.78669
678.47        41.87648
678.90        42.01569
679.32        42.14068
679.75        42.32704
680.17        42.55213
680.60        42.79659
681.02        42.99261
681.45        43.21285
681.87        43.03431
682.30        43.03429
682.72        43.11541
683.15         43.1718
683.57        43.21906
684.00        43.35313
684.42        43.54012
684.85        43.67036
685.27        43.72585
685.70        43.69493
686.12        43.62249
686.54        43.73177
686.97        43.97364
687.39        44.05649
687.82        43.97206
688.24        43.97554
688.66        44.07867
689.09        44.12464
689.51        44.12484
689.94        44.23076
690.36        44.46572
690.78        44.64457
691.21        44.70885
691.63        45.28396
692.06        45.17936
692.48        45.45799
692.90        45.71832
693.33        45.83477
693.75        45.80207
694.17        45.62896
694.60         45.4137
695.02        45.65301
695.44        45.73099
695.87        46.15488
696.29        46.60414
696.71        46.78743
697.14        46.69269
697.56        46.52387
697.98        46.37614
698.41        46.43699
698.83        46.39065
699.25        46.57383
699.68        46.81234
700.10        46.99879
700.52        47.08107
700.94         47.1012
701.37        47.10344
701.79        47.16602
702.21         47.2949
702.64        47.46114
703.06        47.61044
703.48        47.66498
703.90        47.61823
704.33        47.50994
704.75        47.39994
705.17        47.37072
705.59        47.44576
706.01        47.59088
706.44        47.79679
706.86        48.03856
707.28        48.27209
707.70         48.5682
708.12        48.86671
708.55        48.84541
708.97        48.71443
709.39        48.65257
709.81        48.73331
710.23        48.74743
710.66        48.70732
711.08        48.77069
711.50         48.9243
711.92        49.08611
712.34        49.24273
712.76        49.40958
713.19        49.55714
713.61        49.67899
714.03        49.74473
714.45        49.75032
714.87         49.7059
715.29        49.63244
715.71        49.54165
716.13        49.44028
716.56        49.32269
716.98        49.23169
717.40        49.16762
717.82        49.12793
718.24        49.13651
718.66        49.24652
719.08        49.44291
719.50        49.65517
719.92        49.85045
720.34         50.0182
720.76         50.1439
721.19        50.20767
721.61        50.21355
722.03         50.1837
722.45        50.15389
722.87        50.00694
723.29        49.79109
723.71        49.92033
724.13        50.41446
724.55        50.06985
724.97        50.41942
725.39        50.41191
725.81        50.50544
726.23        50.52166
726.65        50.50303
727.07         50.5634
727.49        50.70308
727.91        50.89875
728.33        51.11329
728.75          51.292
729.17        51.42006
729.59        51.48497
730.01        51.49358
730.43        51.54734
730.85        51.67467
731.27        51.50055
731.69         51.6529
732.10        51.62168
732.52        51.59237
732.94        51.55423
733.36        51.52467
733.78        51.51131
734.20        51.52047
734.62        51.57835
735.04        51.65935
735.46        51.71641
735.88        51.74642
736.30        51.74933
736.72        51.78195
737.13        51.95185
737.55        52.17559
737.97        52.42887
738.39        52.62938
738.81        52.38002
739.23        51.87568
739.65        52.08483
740.06        52.82729
740.48        53.01097
740.90        52.57543
741.32        52.15168
741.74        51.90475
742.16        51.81493
742.57        51.94592
742.99        52.28051
743.41        52.71904
743.83        53.08506
744.25        53.31644
744.67        53.44337
745.08         53.4986
745.50        53.50785
745.92         53.5036
746.34        53.46911
746.75         53.4055
747.17        53.32357
747.59        53.20387
748.01        53.10875
748.42        53.09204
748.84        52.99304
749.26          52.736
749.68        53.28696
750.09        53.04514
750.51        52.93861
750.93        52.68801
751.35         53.1713
751.76        54.19333
752.18        54.59148
752.60        54.27429
753.01        53.86876
753.43         53.5674
753.85        53.32285
754.27        53.38667
754.68        53.58811
755.10        53.87273
755.52        54.06031
755.93        54.11902
756.35        54.12153
756.77        54.08455
757.18        54.13086
757.60        54.31491
758.02        54.31413
758.43        54.15857
758.85        54.82571
759.26        55.53955
759.68        55.55113
760.10        55.49633
760.51        55.17583
760.93        54.85279
761.34        54.44274
761.76        54.76141
762.18        54.53585
762.59        54.23568
763.01        53.93528
763.42        55.14143
763.84         55.3546
764.26        54.98928
764.67        54.49282
765.09        54.13829
765.50        54.26886
765.92        54.75724
766.33        54.83316
766.75        54.44807
767.16        54.30574
767.58        54.47924
768.00        54.74197
768.41        55.06828
768.83        55.51225
769.24        55.88865
769.66        55.76785
770.07        55.23428
770.49        54.77934
770.90        54.52933
771.32        54.54821
771.73        54.80615
772.15        55.01542
772.56        55.16233
772.97        55.44321
773.39        55.78598
773.80        56.00714
774.22        56.04034
774.63        55.96952
775.05        55.81961
775.46         55.6828
775.88        55.58215
776.29        55.51279
776.70        55.48824
777.12        55.54256
777.53        55.68258
777.95        55.87092
778.36        56.06684
778.77        56.17327
779.19        56.18494
779.60          56.148
780.02        56.05893
780.43        56.02029
780.84        56.07739
781.26        55.90229
781.67        55.64154
782.09        56.26241
782.50        57.22593
782.91        57.33942
783.33         56.5747
783.74        56.28146
784.15        56.50904
784.57        56.47478
784.98        56.20494
785.39        56.10553
785.81        56.20354
786.22        56.39251
786.63        56.58965
787.04        56.71162
787.46        56.75256
787.87        56.62387
788.28        56.40364
788.70        56.71076
789.11        56.69373
789.52        57.04493
789.93         57.3994
790.35        57.49807
790.76         57.3508
791.17        57.22087
791.58        57.18256
792.00        57.11788
792.41        57.06973
792.82        57.17286
793.23        57.40077
793.65        57.50134
794.06        57.52121
794.47        57.78179
794.88        58.15264
795.29        58.20829
795.71        57.89459
796.12        57.51419
796.53        57.19265
796.94        56.89201
797.35         56.7676
797.76        57.25285
798.18        58.10334
798.59        58.49852
799.00         58.2944
799.41        57.88506
799.82        57.47416
800.23        57.25434
800.64        57.30828
801.06        57.53429
801.47        57.88323
801.88        58.17356
802.29        58.32754
802.70        58.38998
803.11          58.364
803.52        58.24921
803.93        58.06742
804.34        57.82397
804.75        57.56512
805.17        57.38068
805.58         57.3237
805.99          57.339
806.40        57.43494
806.81         57.6559
807.22        57.94165
807.63        58.18814
808.04        58.34581
808.45        58.37857
808.86        58.27603
809.27        58.04538
809.68        57.74772
810.09        57.55186
810.50        57.50353
810.91        57.44861
811.32        57.45184
811.73        57.77676
812.14        58.28486
812.55        58.65268
812.96          58.743
813.37        58.26403
813.78        57.48307
814.19        57.43637
814.60        58.02739
815.01        58.17255
815.42        57.83674
815.83        57.70245
816.24        57.85351
816.65        58.04354
817.05        58.26466
817.46         58.5489
817.87        58.83914
818.28        59.01015
818.69        59.03746
819.10        58.93267
819.51        58.75385
819.92        58.62948
820.33        58.59735
820.74        58.61397
821.14        58.63477
821.55        58.60484
821.96        58.50365
822.37        58.38118
822.78        58.24453
823.19        58.10025
823.60         57.9696
824.00        57.85319
824.41        57.80769
824.82        57.99295
825.23        58.41622
825.64        59.02347
826.04        59.65186
826.45        59.94284
826.86        59.83666
827.27        59.43357
827.68        58.90556
828.08        58.56762
828.49        58.48818
828.90        58.60001
829.31        58.86068
829.72          59.195
830.12        59.57531
830.53         59.9749
830.94        60.32532
831.35        60.45922
831.75        60.35115
832.16        59.99303
832.57        59.52158
832.97        59.14713
833.38        58.94243
833.79        58.87009
834.20        58.87613
834.60        58.85701
835.01        58.79594
835.42        58.72969
835.82        58.70279
836.23        58.73775
836.64          58.857
837.04        59.06089
837.45        59.26562
837.86        59.44239
838.26        59.57443
838.67         59.6157
839.08        59.60547
839.48        59.59086
839.89        59.57583
840.29        59.53363
840.70        59.42285
841.11        59.12055
841.51        58.64326
841.92        58.05413
842.33        57.48033
842.73        57.14359
843.14        57.08012
843.54        57.24092
843.95        57.59045
844.35        58.09878
844.76         58.6789
845.17        59.33431
845.57        59.93333
845.98        60.13721
846.38        59.92562
846.79        59.39271
847.19        58.73423
847.60         58.2939
848.00        58.15858
848.41        58.21272
848.81        58.45535
849.22        58.78051
849.62        59.16481
850.03        59.58747
850.43        59.92469
850.84        59.86415
851.24        59.39847
851.65        58.60643
852.05        57.74559
852.46        57.24987
852.86        57.21093
853.27        57.50931
853.67        57.96366
854.07        58.47785
854.48        58.95169
854.88        59.48373
855.29         59.8587
855.69         59.8491
856.10        59.32958
856.50        58.43897
856.90        57.47785
857.31        56.92672
857.71        56.92852
858.12        57.33622
858.52        58.01001
858.92        58.50562
859.33        58.64956
859.73        58.58614
860.13        58.40913
860.54        58.29674
860.94         58.3333
861.34        58.42177
861.75         58.4804
862.15        58.48053
862.55        58.37035
862.96        58.20326
863.36        58.01251
863.76        57.85032
864.17        57.73644
864.57        57.69404
864.97          57.686
865.38        57.64316
865.78        57.58004
866.18         57.4622
866.58        57.38809
866.99        57.52533
867.39        57.89643
867.79        58.42777
868.19        58.86318
868.60        58.79082
869.00        58.16454
869.40        57.13369
869.80        56.04522
870.21        55.50658
870.61        55.71003
871.01        56.42962
871.41        57.37219
871.81        58.10873
872.22        58.49433
872.62         58.6864
873.02        58.75068
873.42        58.80082
873.82        58.89256
874.22        58.96541
874.63        59.05077
875.03        59.20197
875.43        59.42153
875.83        59.67646
876.23        59.93897
876.63        60.13151
877.03        60.23876
877.44        60.34264
877.84        60.31984
878.24        60.00898
878.64        59.42007
879.04        58.56835
879.44        57.83729
879.84        57.78772
880.24        58.45947
880.64         59.7052
881.04        60.88584
881.44        60.85785
881.84        59.42238
882.24        57.06231
882.65        54.66341
883.05        53.38578
883.45        53.51442
883.85        54.69451
884.25        56.45301
884.65          57.902
885.05        58.65432
885.45        58.92148
885.85        58.87669
886.25        58.80085
886.65        58.79571
887.05        58.73164
887.45        58.54583
887.85        58.19558
888.25        57.70193
888.65        57.15783
889.04        56.69407
889.44        56.49469
889.84        56.58359
890.24        56.91931
890.64        57.36833
891.04        57.70741
891.44        57.86326
891.84        57.87378
892.24        57.85295
892.64        57.98756
893.04        58.32463
893.44        58.81918
893.83        59.34536
894.23        59.61875
894.63        59.60193
895.03        59.34492
895.43        59.07214
895.83        59.13738
896.23        59.59612
896.63        60.33771
897.02        61.03037
897.42        61.13549
897.82        60.56572
898.22        59.51667
898.62        58.39325
899.01        57.75253
899.41        57.72529
899.81        58.16385
900.21        58.76152
900.61        58.94444
901.00        58.54701
901.40        57.82254
901.80        57.12239
902.20        56.92678
902.59        57.34611
902.99        58.18842
903.39        59.20046
903.79        59.82339
904.18        59.84603
904.58        59.47479
904.98        58.97947
905.38        58.73801
905.77        58.82418
906.17        59.10165
906.57         59.4684
906.96        59.80056
907.36         59.9924
907.76        60.12262
908.15        60.13452
908.55        59.84949
908.95        59.30609
909.34        58.56421
909.74        57.85363
910.14        57.49185
910.53        57.54113
910.93         57.9243
911.33        58.48158
911.72        58.95004
912.12        59.22925
912.52         59.3813
912.91        59.45882
913.31        59.52272
913.70        59.62277
914.10        59.67998
914.49        59.71069
914.89        59.69639
915.29        59.65388
915.68        59.60103
916.08        59.55297
916.47        59.46556
916.87        59.36221
917.26        59.21548
917.66        59.08567
918.05        59.05958
918.45        59.11707
918.84        59.27566
919.24        59.35668
919.64        59.15512
920.03        58.64699
920.42        57.91191
920.82        57.22141
921.21        56.84422
921.61        56.83902
922.00        57.17385
922.40        57.63839
922.79        57.94012
923.19        57.95669
923.58        57.77948
923.98        57.64322
924.37        57.88551
924.77        58.56337
925.16        59.56638
925.55         60.6042
925.95        61.14616
926.34        61.06125
926.74        60.49552
927.13        59.70708
927.52        59.08608
927.92        58.75044
928.31        58.57437
928.70         58.4996
929.10          58.408
929.49        58.27447
929.89        58.18677
930.28        58.11552
930.67        57.95384
931.07        57.68774
931.46        57.32557
931.85        57.06321
932.24        57.25617
932.64        57.93089
933.03        59.03813
933.42        60.16196
933.82        60.61939
934.21        60.27481
934.60        59.31811
934.99        58.24896
935.39        57.80933
935.78        58.16138
936.17        59.07236
936.56        60.14623
936.96         60.7124
937.35        60.61161
937.74        60.05206
938.13        59.26688
938.53        58.61521
938.92        58.22243
939.31         58.0247
939.70        58.02842
940.09        58.26761
940.49        58.66339
940.88        59.19543
941.27        59.80568
941.66        60.37978
942.05        60.82071
942.44        61.15757
942.84        61.10368
943.23        60.21778
943.62        58.59151
944.01        56.51416
944.40        54.67687
944.79        53.93433
945.18        54.38881
945.57        55.84238
945.97        57.69535
946.36        58.94279
946.75        59.05972
947.14        58.33296
947.53        57.32612
947.92        56.97348
948.31        57.50985
948.70        58.57029
949.09        59.79086
949.48        60.59305
949.87        60.76013
950.26        60.52444
950.65        59.94971
951.04        59.11361
951.43        58.14245
951.82        57.04482
952.21        56.06809
952.60        55.58625
952.99        55.66076
953.38        56.21713
953.77        56.99491
954.16        57.51045
954.55        57.60138
954.94        57.36363
955.33        56.99511
955.72        56.84365
956.11        57.00891
956.50        57.38827
956.89        57.80072
957.28        57.96127
957.66        57.81903
958.05        57.47322
958.44        57.15265
958.83        57.20753
959.22        57.69791
959.61        58.46895
960.00         59.2821
960.39        59.72532
960.78         59.6643
961.16         59.2523
961.55        58.58391
961.94         57.7925
962.33        56.98532
962.72        56.13556
963.11        55.47168
963.49        55.38015
963.88        55.87936
964.27        56.90625
964.66        58.08632
965.04        58.78235
965.43        58.77349
965.82        58.23785
966.21        57.53605
966.60        57.29945
966.98          57.701
967.37        58.50483
967.76        59.40953
968.15        59.91441
968.53        59.88184
968.92        59.44691
969.31        58.81366
969.69        58.30014
970.08        58.00209
970.47         57.8365
970.86        57.74522
971.24        57.63405
971.63        57.48343
972.02        57.41311
972.40          57.457
972.79        57.60367
973.17        57.91652
973.56        58.27877
973.95        58.83598
974.33        59.85705
974.72        61.27683
975.11        63.02978
975.49        64.77943
975.88        65.71101
976.26        65.55341
976.65        64.49134
977.04        62.88737
977.42        61.22282
977.81        59.70849
978.19        58.21362
978.58        56.93614
978.96        55.99197
979.35        55.41424
979.74        55.18568
980.12        55.13305
980.51        54.81032
980.89        54.20425
981.28        53.45606
981.66        52.80279
982.05        52.62071
982.43        53.03086
982.82         53.8222
983.20        55.00433
983.59        56.64751
983.97        58.74919
984.35        61.27365
984.74        63.50027
985.12        64.38869
985.51        63.52323
985.89        61.31594
986.28        58.73332
986.66         56.8528
987.04        56.01661
987.43        55.87843
987.81        56.19879
988.20         56.3951
988.58        56.31909
988.96        56.25336
989.35        56.09268
989.73        55.75964
990.12        55.25031
990.50        54.49062
990.88        53.93861
991.27        54.34725
991.65        55.84292
992.03        58.35981
992.42        60.95424
992.80        61.91912
993.18        60.54771
993.56        57.60889
993.95        54.60975
994.33         53.0159
994.71        53.17742
995.10        54.59217
995.48        56.77447
995.86        58.23029
996.24        58.29941
996.63        57.54964
997.01        56.55807
997.39        56.05278
997.77        56.24416
998.15        56.76125
998.54        57.66042
998.92        59.09805
999.30        60.99683
999.68        63.41138
1000.06          65.547
1000.45         65.9129
1000.83         64.3875
1001.21        61.38194
1001.59        58.24224
1001.97        56.81034
1002.35        57.41447
1002.73        59.60723
1003.12        62.42392
1003.50        64.08825
1003.88        63.94167
1004.26        62.56097
1004.64        60.77595
1005.02        59.93319
1005.40        60.35305
1005.78        61.41858
1006.16        62.67942
1006.54        63.44617
1006.92        63.41692
1007.30        62.94846
1007.69        61.72817
1008.07         59.3462
1008.45        56.22219
1008.83        52.87328
1009.21        50.37486
1009.59          49.828
1009.97        51.27021
1010.35        54.55201
1010.73        58.94066
1011.11        62.35771
1011.49         63.6275
1011.86        62.87582
1012.24         61.3884
1012.62        61.31615
1013.00        63.37128
1013.38        67.35307
1013.76         71.7364
1014.14        72.65115
1014.52        69.23794
1014.90        63.72676
1015.28        59.10709
1015.66        58.00793
1016.04        60.52034
1016.41        66.26453
1016.79        73.71948
1017.17        79.00006
1017.55        79.33855
1017.93        75.25542
1018.31        68.01488
1018.69        61.24387
1019.06        56.91544
1019.44         54.5174
1019.82        53.54987
1020.20         53.4128
1020.58        53.78841
1020.95        55.10026
1021.33        56.86417
1021.71        57.66561
1022.09        56.91909
1022.46        54.57339
1022.84        52.32619
1023.22        52.39457
1023.60        55.35442
1023.97         61.5934
1024.35        69.02065
1024.73        70.38821
