SpectraSmart Spectrum 2.9.0.0
--------- Device Information -----------
Spectrum Name :  反射率_0
Saving Time :  2024/05/03 20:42:33
Spectro-Module Model Name : SE2030-DUVN
Spectro-Module Serial Number : OS361AC55029948
Wavelength Start : 200
Wavelength End : 1025
Wavelength Unit : Wavelength(nm)
Spectrum Unit : Reflectance(%)
-----------Spectrum Setting ------------
Integration Time : 20ms
Average : 10
Boxcar : 0
Background removal :  enabled
linearity correction :  enabled
SC :  disabled
Intensity correction :  disabled
DWT denoise :  enabled
savitzky-golay :  disabled
FFT :  disabled
Running average :  disabled
Kalman :  disabled
High pass :  disabled
---------------BEGIN--------------------
Wavelength(nm)             Reflectance(%)
200.29               0
200.75        46.85542
201.21         102.378
201.67       -3395.211
202.13       -105.8606
202.58       -42.29604
203.04       -11.91403
203.50        6.181239
203.96        13.00134
204.42        8.102212
204.88       -27.46475
205.34        1372.148
205.80        173.0985
206.26        189.5826
206.72        33537.13
207.18       -71.56523
207.64       -31.67058
208.10       -36.24657
208.55       -85.49841
209.01       -567.1508
209.47       -586.2076
209.93        -21.8362
210.39        25.13698
210.85        36.69582
211.31         42.0546
211.77        46.87739
212.23         55.6936
212.69        71.62046
213.14        60.64286
213.60        19.11263
214.06        3.475619
214.52      -0.3814844
214.98       -1.101241
215.44      -0.5652643
215.90        2.749177
216.36       -70.84507
216.81       -30.69191
217.27       -48.94616
217.73       -111.7011
218.19       -451.9333
218.65       -8429.754
219.11       -459.9827
219.57       -49.73219
220.02        19.74553
220.48        30.58859
220.94        70.27172
221.40        61.56472
221.86        62.60598
222.32        65.08848
222.77        69.19846
223.23        77.17743
223.69         88.4802
224.15        91.87166
224.61        81.94841
225.06        68.14132
225.52        59.99267
225.98        60.73644
226.44        69.38092
226.90        85.38652
227.36        106.3491
227.81        119.9273
228.27        118.0867
228.73        107.2989
229.19        94.22488
229.65        83.93186
230.10        76.84938
230.56        71.88771
231.02        68.83145
231.48        67.95468
231.93         68.6805
232.39        70.79973
232.85        73.24636
233.31        74.58447
233.77        74.51284
234.22        73.30242
234.68         71.6597
235.14        70.85049
235.60        71.25909
236.05        72.68919
236.51        74.20522
236.97        74.28166
237.43        72.47739
237.88        69.49931
238.34        66.54783
238.80        64.78712
239.26        64.37937
239.71        66.85351
240.17        69.77481
240.63        71.28597
241.08        66.72737
241.54        56.64719
242.00        47.95092
242.46         45.8637
242.91        51.03542
243.37        65.50572
243.83        91.95071
244.28        115.1261
244.74        103.7344
245.20        62.11334
245.66         18.2231
246.11       -6.860191
246.57       -14.97781
247.03       -13.30618
247.48       -7.842363
247.94       -4.657666
248.40       -4.356437
248.85       -5.534595
249.31       -5.850494
249.77       -2.235368
250.22        4.406265
250.68        11.14944
251.14        16.56639
251.59         20.5799
252.05        24.36436
252.51        29.37711
252.96        37.01978
253.42        47.46173
253.88        57.07063
254.33        62.38127
254.79        63.76913
255.25        62.61968
255.70        60.45593
256.16        58.76705
256.62        57.26593
257.07        55.71291
257.53        54.47067
257.99        53.18031
258.44        52.10818
258.90        52.09054
259.35        52.53724
259.81        53.39635
260.27        53.80431
260.72        52.93734
261.18        51.36072
261.63          49.368
262.09        47.69852
262.55        46.74237
263.00        46.37283
263.46        46.39126
263.91        46.47137
264.37        46.43487
264.83        46.16906
265.28        45.77571
265.74        45.30378
266.19        44.57418
266.65        43.71107
267.11        42.67638
267.56        41.69949
268.02        41.20583
268.47        41.18457
268.93        41.55171
269.38        41.92685
269.84        41.65792
270.30        40.66373
270.75        39.18814
271.21        37.77155
271.66        37.08875
272.12        37.24863
272.57        37.94192
273.03        38.76971
273.48        39.10472
273.94        38.78354
274.39        38.05253
274.85        37.07439
275.31        35.97334
275.76        34.85841
276.22        33.75873
276.67        32.87302
277.13        32.60297
277.58        32.87104
278.04        33.56851
278.49        34.25103
278.95        34.25861
279.40        33.44979
279.86        32.18055
280.31        30.79515
280.77        29.85711
281.22        29.37678
281.68        29.20897
282.13          29.151
282.59        28.99132
283.04        28.64116
283.50        28.20895
283.95        27.73099
284.41        27.28232
284.86        26.86446
285.32        26.47383
285.77         26.0727
286.22        25.67796
286.68        25.30866
287.13        24.95251
287.59        24.65059
288.04        24.40022
288.50        24.21558
288.95        24.06142
289.41        23.92913
289.86        23.76368
290.32        23.57468
290.77        23.35793
291.22        23.13882
291.68        22.94217
292.13        22.76586
292.59         22.6262
293.04        22.51565
293.50        22.44538
293.95        22.41561
294.40        22.43304
294.86        22.52379
295.31        22.71848
295.77        23.01627
296.22        23.39693
296.68         23.8075
297.13        24.15825
297.58        24.42017
298.04        24.63635
298.49        24.82896
298.95        25.06727
299.40          25.363
299.85        25.70122
300.31        26.12217
300.76         26.6614
301.21        27.31646
301.67        28.06786
302.12        28.80304
302.58        29.36431
303.03        29.70597
303.48        29.87966
303.94        30.01797
304.39        30.27427
304.84         30.6996
305.30        31.23799
305.75        31.78266
306.20        32.19448
306.66        32.45057
307.11        32.58879
307.57        32.68438
308.02        32.78375
308.47        32.92838
308.93        33.09785
309.38        33.28276
309.83        33.51176
310.29        33.77471
310.74        34.04738
311.19        34.28243
311.65        34.39862
312.10        34.36679
312.55        34.21102
313.00        33.96677
313.46        33.69499
313.91        33.41565
314.36        33.14275
314.82        32.88921
315.27        32.65912
315.72         32.4643
316.18        32.30565
316.63        32.20395
317.08        32.18924
317.53        32.25513
317.99        32.38299
318.44        32.50431
318.89        32.49413
319.35        32.32501
319.80         32.0271
320.25        31.69438
320.70         31.4866
321.16         31.4312
321.61        31.48342
322.06        31.54403
322.51        31.45026
322.97        31.16108
323.42        30.74663
323.87        30.28225
324.32        29.89052
324.78        29.61076
325.23        29.41329
325.68        29.27908
326.13         29.1815
326.59         29.0918
327.04        29.03839
327.49        28.98402
327.94         28.8734
328.39        28.69208
328.85        28.43549
329.30        28.15595
329.75        27.92244
330.20        27.75808
330.66        27.63896
331.11        27.54302
331.56        27.39197
332.01         27.1702
332.46        26.90545
332.92        26.63249
333.37        26.44116
333.82        26.34462
334.27        26.32117
334.72        26.34117
335.17        26.35481
335.63        26.33202
336.08        26.29628
336.53        26.24807
336.98        26.20176
337.43        26.16071
337.88        26.11727
338.34        26.05792
338.79        25.96805
339.24        25.84917
339.69        25.71612
340.14        25.59417
340.59        25.52191
341.05        25.50711
341.50        25.53644
341.95        25.59224
342.40        25.64914
342.85        25.69378
343.30        25.73163
343.75        25.74436
344.20        25.70542
344.66        25.62291
345.11        25.50047
345.56        25.38046
346.01        25.32714
346.46        25.35301
346.91        25.43536
347.36        25.54024
347.81        25.61294
348.26        25.63479
348.72        25.62257
349.17        25.57619
349.62         25.5046
350.07        25.41487
350.52        25.30243
350.97        25.18221
351.42        25.08076
351.87        25.00163
352.32        24.93793
352.77        24.87114
353.22        24.76972
353.67        24.62793
354.13        24.46528
354.58        24.28515
355.03        24.11207
355.48        23.95791
355.93        23.82364
356.38        23.71053
356.83        23.62086
357.28        23.55088
357.73        23.49105
358.18        23.44643
358.63        23.42449
359.08        23.41905
359.53         23.4258
359.98        23.39921
360.43        23.27211
360.88         23.0365
361.33        22.71082
361.78        22.37183
362.23        22.13828
362.68        22.03299
363.13        22.02484
363.58        22.02491
364.03        21.88905
364.48        21.59102
364.93        21.18339
365.38         20.7672
365.83        20.49528
366.28        20.40131
366.73        20.43347
367.18        20.50789
367.63        20.49054
368.08        20.34235
368.53        20.10584
368.98        19.83807
369.43        19.62216
369.88        19.48103
370.33        19.38824
370.78        19.30763
371.23        19.18547
371.68        19.00963
372.13        18.80122
372.58        18.60234
373.03        18.47107
373.48        18.41409
373.93        18.40786
374.38        18.39802
374.83        18.29951
375.28        18.09484
375.72        17.80867
376.17         17.5132
376.62        17.28005
377.07        17.12529
377.52        17.02495
377.97        16.94815
378.42        16.84702
378.87        16.71219
379.32        16.56633
379.77        16.42856
380.22        16.32091
380.67        16.24564
381.11        16.19181
381.56        16.14571
382.01        16.10122
382.46        16.05366
382.91        16.00574
383.36        15.95139
383.81        15.87899
384.26        15.78929
384.71        15.68974
385.15        15.58731
385.60        15.51088
386.05        15.46149
386.50        15.42873
386.95        15.41592
387.40        15.42594
387.85        15.45407
388.29        15.49262
388.74        15.52632
389.19        15.49765
389.64        15.40114
390.09        15.24866
390.54        15.09936
390.98        15.03496
391.43        15.07481
391.88        15.21624
392.33        15.37774
392.78        15.36468
393.23        15.20177
393.67        15.08172
394.12         15.0434
394.57        14.98609
395.02        14.91729
395.47        14.89531
395.91        14.90706
396.36        14.88324
396.81         14.8251
397.26        14.76541
397.71        14.69576
398.15        14.61866
398.60        14.56108
399.05        14.43472
399.50         14.3007
399.95          14.413
400.39        14.70836
400.84        14.75836
401.29        14.56799
401.74         14.5013
402.18        14.57171
402.63        14.57042
403.08        14.52309
403.53        14.45493
403.97         14.5806
404.42         14.6916
404.87        14.81234
405.32        14.88028
405.76        14.87846
406.21        14.82775
406.66        14.75596
407.11        14.71153
407.55        14.71082
408.00        14.73872
408.45         14.7678
408.90        14.74632
409.34        14.66495
409.79        14.54507
410.24         14.4358
410.68        14.40329
411.13        14.46063
411.58        14.58706
412.03        14.73134
412.47        14.80333
412.92        14.77266
413.37        14.67133
413.81        14.55133
414.26        14.50264
414.71        14.53715
415.15        14.63621
415.60        14.75029
416.05         14.8073
416.49        14.78508
416.94        14.71171
417.39        14.63109
417.83        14.60497
418.28        14.64865
418.73         14.7381
419.17        14.84513
419.62        14.91564
420.07         14.9334
420.51        14.91098
420.96        14.87019
421.41        14.83127
421.85        14.79506
422.30        14.76363
422.74        14.72637
423.19        14.71282
423.64        14.71241
424.08        14.70451
424.53        14.68107
424.98        14.69083
425.42         14.7465
425.87        14.78856
426.31        14.82175
426.76        14.94558
427.21        15.11345
427.65        15.11639
428.10        14.99931
428.54        14.98938
428.99        15.10824
429.44        15.31988
429.88         15.5152
430.33        15.44084
430.77        15.16248
431.22        15.03434
431.66        15.10353
432.11        15.24918
432.56        15.41618
433.00        15.60108
433.45        15.64354
433.89        15.47824
434.34        14.69649
434.78        14.64751
435.23        15.20154
435.67         15.4117
436.12        15.26955
436.57        15.31659
437.01        15.54215
437.46         15.6217
437.90        15.53323
438.35          15.373
438.79        15.20109
439.24        15.09678
439.68        15.09075
440.13        15.19813
440.57        15.34397
441.02        15.38497
441.46        15.29446
441.91        15.12017
442.35        14.93677
442.80          14.952
443.24        15.13388
443.69        15.27303
444.13        15.33117
444.58        15.41043
445.02        15.49358
445.47        15.50092
445.91         15.4512
446.36        15.43076
446.80        15.44762
447.24        15.48044
447.69        15.51444
448.13        15.52801
448.58        15.51762
449.02        15.48903
449.47        15.46269
449.91        15.45702
450.36        15.47945
450.80        15.52128
451.25        15.55984
451.69        15.55334
452.13        15.49746
452.58        15.40679
453.02         15.3161
453.47        15.28782
453.91        15.33229
454.36        15.42749
454.80        15.52814
455.24        15.58572
455.69        15.59204
456.13        15.51004
456.58        15.37409
457.02        15.41692
457.46        15.40216
457.91        15.36731
458.35        15.25431
458.79        15.24555
459.24        15.32002
459.68        15.29836
460.13        15.21061
460.57        15.17758
461.01        15.21344
461.46        15.24822
461.90        15.26141
462.34        15.24132
462.79        15.17958
463.23        15.07897
463.68        14.98255
464.12        14.94626
464.56        14.97843
465.01        15.10347
465.45        15.24066
465.89        15.22792
466.34        15.09776
466.78        15.02669
467.22         15.0511
467.67        15.09727
468.11        15.16261
468.55        15.23738
468.99        15.30557
469.44        15.36393
469.88         15.4054
470.32        15.40766
470.77        15.37767
471.21        15.35231
471.65        15.33859
472.10        15.32603
472.54        15.31843
472.98        15.33101
473.42        15.36352
473.87        15.41749
474.31        15.46656
474.75         15.4834
475.20        15.46715
475.64         15.4193
476.08        15.36485
476.52        15.33462
476.97        15.33449
477.41        15.36906
477.85        15.42005
478.29        15.44898
478.74        15.41329
479.18        15.46497
479.62        15.57764
480.06        15.63713
480.50        15.63656
480.95        15.64188
481.39        15.65785
481.83        15.68557
482.27        15.73453
482.72        15.81547
483.16        15.90994
483.60        15.98994
484.04        16.06172
484.48        16.08117
484.93        16.10146
485.37        16.28888
485.81        16.64491
486.25         16.6521
486.69        16.75432
487.14        16.68015
487.58        17.01718
488.02        16.89919
488.46        16.88565
488.90        16.85147
489.34        16.75392
489.79        16.76748
490.23         16.8427
490.67        17.20334
491.11        17.70219
491.55        17.75947
491.99        17.44518
492.43        17.41232
492.88        17.69664
493.32         17.9075
493.76        18.00785
494.20        18.14001
494.64         18.3015
495.08        18.45446
495.52        18.59353
495.96        18.72254
496.41        18.83886
496.85        18.91224
497.29        18.96696
497.73         19.1061
498.17        19.30016
498.61        19.40513
499.05        19.41202
499.49        19.38064
499.93        19.35971
500.37         19.4485
500.82        19.62734
501.26        19.74628
501.70        19.79207
502.14        19.86431
502.58        19.96911
503.02        20.06233
503.46        20.14331
503.90        20.22674
504.34        20.30587
504.78        20.36926
505.22        20.41703
505.66        20.44592
506.10        20.46387
506.54        20.53073
506.98        20.66089
507.42        20.75823
507.86        20.77616
508.30        21.09285
508.74        20.96284
509.18        20.99105
509.62        20.99209
510.06        21.04285
510.50        21.14887
510.94         21.2966
511.38        21.44943
511.82        21.52607
512.26         21.5111
512.70        21.43294
513.14        21.33023
513.58        21.26335
514.02        21.25078
514.46          21.273
514.90        21.31893
515.34        21.36958
515.78         21.4153
516.22        21.46567
516.66        21.50808
517.10        21.52022
517.54        21.50123
517.98        21.45522
518.42        21.40985
518.86        21.41208
519.30        21.46988
519.74        21.56763
520.18        21.67315
520.62        21.73287
521.06        21.73164
521.50        21.68537
521.93        21.61436
522.37        21.55536
522.81        21.51792
523.25        21.48966
523.69        21.46456
524.13        21.43288
524.57        21.39289
525.01        21.35533
525.45        21.31587
525.89        21.26533
526.32        21.20324
526.76         21.1313
527.20        21.07128
527.64        21.06039
528.08        21.10054
528.52         21.1777
528.96        21.24828
529.40         21.2434
529.83        21.14758
530.27        20.98943
530.71        20.81446
531.15        20.69578
531.59        20.65232
532.03        20.66407
532.46        20.69973
532.90        20.70872
533.34        20.67882
533.78        20.63075
534.22        20.58275
534.66        20.55969
535.09        20.56249
535.53        20.57855
535.97        20.60074
536.41        20.60525
536.85        20.58505
537.28        20.60528
537.72        20.64631
538.16        20.54568
538.60        20.36964
539.04        20.40687
539.47        20.62805
539.91        20.75164
540.35        20.76048
540.79        20.82233
541.22        20.92514
541.66        20.98521
542.10        21.00261
542.54        20.97411
542.97        20.93759
543.41        21.03468
543.85        21.23962
544.29        21.37518
544.72        21.43233
545.16        21.54882
545.60        21.71838
546.04         21.8628
546.47        21.97539
546.91        22.08548
547.35        22.19421
547.79         22.3024
548.22        22.42179
548.66        22.56927
549.10        22.75458
549.53        23.02532
549.97        23.33956
550.41        23.57316
550.84        23.69827
551.28        23.77589
551.72        23.83107
552.15        23.86981
552.59        23.91654
553.03        24.02589
553.46        24.07704
553.90        24.19281
554.34         24.3261
554.77         24.4505
555.21         24.5705
555.65        24.71294
556.08        24.87196
556.52        25.03289
556.96        25.17019
557.39        25.27003
557.83        25.33702
558.27         25.3394
558.70        25.31757
559.14        25.39694
559.57        25.56064
560.01        25.69034
560.45        25.75732
560.88        25.80682
561.32        25.84838
561.75        25.83857
562.19        25.83355
562.63        25.87028
563.06         25.9624
563.50        26.22412
563.93        26.56239
564.37        26.60047
564.80        26.39704
565.24        26.45618
565.68        26.74723
566.11        26.87354
566.55        26.83687
566.98        26.84439
567.42        26.91297
567.85        27.04969
568.29        27.07844
568.72        27.16512
569.16        27.28283
569.60        27.43362
570.03        27.60954
570.47        27.81145
570.90        28.00859
571.34        28.13112
571.77        28.51462
572.21        28.34248
572.64        28.53333
573.08        28.43968
573.51        28.88975
573.95        29.02385
574.38        29.04132
574.82        28.95772
575.25        29.34341
575.69        29.39114
576.12         29.3665
576.56        29.22728
576.99        29.55742
577.42        29.89726
577.86        29.56136
578.29        29.57012
578.73        29.36174
579.16         29.3888
579.60         29.4487
580.03        29.41832
580.47        29.27014
580.90        29.13419
581.33        28.69102
581.77        28.96603
582.20        29.26088
582.64        28.63041
583.07        28.76167
583.51        28.49297
583.94        28.47805
584.37         28.4166
584.81        28.33586
585.24        28.15248
585.68        28.38763
586.11        27.83318
586.54        28.03227
586.98        27.69069
587.41        27.61945
587.85        27.94629
588.28        27.89895
588.71        27.71623
589.15        27.85878
589.58         27.7785
590.01         27.7797
590.45        27.61641
590.88        27.40994
591.31        27.50271
591.75        27.85572
592.18          27.903
592.61        27.59094
593.05          27.815
593.48        28.22607
593.91        27.71764
594.35        27.96279
594.78         28.0052
595.21        28.33585
595.65        28.37802
596.08        28.14019
596.51        28.67927
596.94        28.80155
597.38        29.08119
597.81        29.14198
598.24        29.26871
598.68        29.54127
599.11        29.39107
599.54        30.45587
599.97        30.03109
600.41        30.82121
600.84        31.01965
601.27        31.29281
601.70        31.48882
602.14        31.65396
602.57        32.07857
603.00        32.68273
603.43        33.04547
603.87        33.17475
604.30        33.58511
604.73        33.98641
605.16        34.40606
605.60        34.48373
606.03        34.85065
606.46         35.3887
606.89         35.5574
607.32        36.17056
607.76        36.23151
608.19        36.71461
608.62        37.01995
609.05        37.32942
609.48        37.58946
609.92        37.98179
610.35        37.81753
610.78        39.15197
611.21        39.66297
611.64         39.6733
612.07        39.74645
612.50        39.91417
612.94        40.01339
613.37         40.0537
613.80        40.59871
614.23        40.68624
614.66        41.04521
615.09        41.38285
615.52         41.6294
615.96        41.76249
616.39        42.19516
616.82        42.24268
617.25        42.49041
617.68        42.84371
618.11         42.7444
618.54        42.39406
618.97        42.48575
619.40        43.03255
619.84        43.43617
620.27        43.62925
620.70        43.95215
621.13        44.36902
621.56        44.35509
621.99        44.03793
622.42        44.18211
622.85        44.78286
623.28        44.30637
623.71         44.3966
624.14        44.31771
624.57        44.01558
625.00        44.13213
625.43        44.03994
625.86        44.09655
626.29        44.09917
626.72        44.15607
627.15        44.00538
627.58        43.88487
628.01        43.70185
628.44         43.3848
628.87        43.03393
629.30        42.55585
629.73        42.66757
630.16        42.48472
630.59        42.20123
631.02        41.94777
631.45        41.73839
631.88        41.52192
632.31        41.28445
632.74        41.02569
633.17        40.72901
633.60        40.38489
634.03        39.99428
634.46        39.56242
634.89        39.10643
635.32        38.65371
635.75        38.21635
636.18        37.79464
636.61        37.38989
637.04        37.00176
637.47        36.63306
637.89        36.27951
638.32        35.93086
638.75          35.629
639.18         35.3836
639.61        35.04244
640.04         34.8629
640.47        34.62163
640.90        34.39346
641.33        34.17525
641.76        33.97707
642.18        33.81701
642.61        33.68682
643.04        33.58765
643.47        33.51566
643.90        33.46385
644.33        33.42813
644.76        33.41671
645.18        33.43153
645.61        33.43125
646.04        33.41197
646.47        33.45985
646.90        33.61802
647.33        33.55249
647.75        33.90528
648.18        34.15206
648.61        34.46404
649.04        34.79324
649.47        35.13589
649.89        35.50619
650.32        35.87726
650.75        36.24234
651.18        36.58504
651.61        36.91633
652.03        37.29202
652.46        37.73605
652.89        38.10096
653.32        38.83919
653.74         38.7931
654.17        39.04757
654.60        39.05201
655.03        40.68419
655.46        40.41945
655.88         40.8467
656.31        43.37759
656.74        46.26434
657.16        43.80476
657.59        41.90381
658.02        43.23362
658.45         43.7942
658.87        44.46908
659.30        44.39351
659.73         44.4226
660.15        44.64867
660.58        44.63955
661.01         44.9712
661.44        45.38473
661.86        45.62559
662.29        45.70911
662.72        46.00954
663.14        46.51528
663.57        46.73763
664.00          46.734
664.42        46.99451
664.85        47.50621
665.27        47.83122
665.70        47.94392
666.13        48.12162
666.55        48.36847
666.98        48.52287
667.41        48.60994
667.83         48.7304
668.26        48.89373
668.69        49.09547
669.11        49.28793
669.54        49.38744
669.96        49.38577
670.39        49.31465
670.82        49.29263
671.24        49.46509
671.67        49.85135
672.09        50.46912
672.52        51.17429
672.94        51.35344
673.37        51.55127
673.80        51.35769
674.22        51.11949
674.65        51.09083
675.07        51.34844
675.50        51.79025
675.92        52.28731
676.35        52.60245
676.77        52.67947
677.20        52.61687
677.62        52.50975
678.05        52.47165
678.47        52.53489
678.90        52.79197
679.32        52.96294
679.75        53.26262
680.17        53.59594
680.60        53.93262
681.02        54.18291
681.45        54.47664
681.87        54.26633
682.30         54.1878
682.72        54.14996
683.15        54.15732
683.57        54.23916
684.00        54.43901
684.42        54.70614
684.85         54.8927
685.27        54.96128
685.70        54.97014
686.12        54.92714
686.54        54.89284
686.97        54.88319
687.39        54.87831
687.82        54.87685
688.24        54.98833
688.66        55.17627
689.09        55.20569
689.51        55.14103
689.94        55.34466
690.36         55.8222
690.78        56.17958
691.21        56.27726
691.63        56.83207
692.06        56.40802
692.48          56.569
692.90        56.85485
693.33        56.96485
693.75         56.8976
694.17        56.80835
694.60        56.76822
695.02        57.15353
695.44        57.19014
695.87        57.76423
696.29        58.44621
696.71        58.56364
697.14        58.13824
697.56        57.78401
697.98        57.66128
698.41        57.59844
698.83        57.62097
699.25        57.91103
699.68        58.33841
700.10        58.64739
700.52         58.7543
700.94        58.72519
701.37        58.61582
701.79        58.64014
702.21        58.66259
702.64         58.7636
703.06        58.86973
703.48        58.95624
703.90        59.01715
704.33        59.08067
704.75        59.14555
705.17        59.18421
705.59        59.19489
706.01        59.17167
706.44        59.17195
706.86        59.28796
707.28        59.50336
707.70        59.87936
708.12        60.29597
708.55         60.3283
708.97        60.02966
709.39        60.05654
709.81        60.21161
710.23        60.27652
710.66        60.18897
711.08        60.21852
711.50        60.36884
711.92        60.53915
712.34        60.72234
712.76        60.94109
713.19        61.13466
713.61        61.25167
714.03         61.2511
714.45        61.14517
714.87        60.99051
715.29        60.87999
715.71        60.83562
716.13        60.83735
716.56          60.832
716.98        60.79058
717.40        60.68752
717.82        60.55801
718.24        60.45053
718.66        60.43801
719.08         60.5335
719.50        60.69834
719.92        60.90889
720.34        61.12852
720.76        61.34003
721.19        61.54796
721.61         61.7179
722.03        61.79299
722.45         61.7957
722.87        61.59313
723.29         61.2876
723.71        61.46354
724.13        62.16087
724.55        61.87089
724.97        62.42448
725.39        62.42624
725.81        62.42407
726.23        62.23229
726.65        61.97932
727.07        61.91812
727.49        62.07718
727.91        62.40122
728.33         62.7828
728.75        63.04084
729.17        63.11938
729.59        63.07204
730.01        62.98198
730.43        62.99301
730.85        63.14089
731.27        63.34551
731.69         63.5258
732.10        63.71301
732.52        63.67678
732.94        63.57444
733.36        63.37683
733.78        63.31737
734.20        63.46711
734.62        63.12367
735.04        63.44434
735.46        63.41843
735.88        63.38241
736.30        63.28699
736.72        63.21229
737.13         63.3088
737.55        63.49286
737.97        63.73923
738.39        63.96081
738.81        63.77543
739.23        63.39786
739.65         63.6698
740.06        64.41929
740.48        64.78183
740.90        64.42979
741.32        64.16196
741.74        64.02704
742.16        63.97415
742.57        64.05592
742.99        64.26569
743.41        64.55812
743.83        64.83295
744.25        65.05011
744.67        65.22383
745.08        65.34811
745.50        65.37137
745.92        65.31134
746.34        65.17524
746.75        65.00343
747.17        64.88321
747.59        64.83291
748.01        64.81988
748.42        64.83971
748.84           64.89
749.26        64.92307
749.68        64.94025
750.09         64.9557
750.51         64.8243
750.93        64.69978
751.35        65.17607
751.76        66.07901
752.18        66.44488
752.60        66.18551
753.01        65.80574
753.43        65.47988
753.85        65.31172
754.27        65.36192
754.68        65.56515
755.10        65.84084
755.52        66.06362
755.93        66.21562
756.35        66.37944
756.77        66.47067
757.18        66.48861
757.60        66.49584
758.02        66.03075
758.43        65.39252
758.85        66.16777
759.26        68.06839
759.68        68.06339
760.10        67.19299
760.51        66.67959
760.93        66.98891
761.34        66.92686
761.76        67.21062
762.18        66.73462
762.59         65.9734
763.01        66.12052
763.42        67.10111
763.84        67.40321
764.26        66.95771
764.67         66.4874
765.09        66.22951
765.50        66.38499
765.92        66.84767
766.33        66.81672
766.75        66.31039
767.16        66.31631
767.58        66.83234
768.00        67.22865
768.41        67.44106
768.83        67.73818
769.24        67.99053
769.66        67.80145
770.07        67.26659
770.49        66.75924
770.90        66.44647
771.32        66.65243
771.73        67.26143
772.15        67.62311
772.56        67.68774
772.97        67.80775
773.39        67.98192
773.80        68.10848
774.22        68.15221
774.63        68.17513
775.05        68.15302
775.46        68.11035
775.88        68.04137
776.29        67.96458
776.70        67.90546
777.12        67.91564
777.53        68.01834
777.95        68.17161
778.36        68.33371
778.77         68.4004
779.19        68.36855
779.60        68.29067
780.02        68.19556
780.43          68.208
780.84        68.38769
781.26        68.41627
781.67        68.37526
782.09        68.99963
782.50        70.09882
782.91         69.7969
783.33        69.58793
783.74        69.24285
784.15        69.22073
784.57         69.0364
784.98        68.79532
785.39        68.37379
785.81        68.56432
786.22        68.87433
786.63        69.35345
787.04        69.54747
787.46        69.41356
787.87        69.10828
788.28        68.80772
788.70        68.70318
789.11        68.82488
789.52        69.20083
789.93        69.68224
790.35        69.82816
790.76        69.67816
791.17        69.71574
791.58        69.96821
792.00        70.05985
792.41        70.01247
792.82        70.10696
793.23        70.31401
793.65         70.3229
794.06        70.22784
794.47        70.38058
794.88         70.6332
795.29        70.88003
795.71        70.35923
796.12        69.98428
796.53        69.67607
796.94        69.41741
797.35        69.34296
797.76        69.83183
798.18        70.63596
798.59        71.01102
799.00        70.81915
799.41        70.36034
799.82        69.84313
800.23        69.75355
800.64        69.75925
801.06        70.08327
801.47        70.52494
801.88        70.84631
802.29         70.9491
802.70        70.89484
803.11        70.75166
803.52         70.6116
803.93        70.52309
804.34        70.47168
804.75        70.41897
805.17        70.33187
805.58        70.23959
805.99        70.05595
806.40        69.90657
806.81        70.17852
807.22        70.77627
807.63        71.20815
808.04        71.36653
808.45        71.41428
808.86        71.31137
809.27        70.88483
809.68        70.29179
810.09        69.93533
810.50        69.91369
810.91        70.12303
811.32        70.44269
811.73        70.66215
812.14        70.70944
812.55        70.65325
812.96        70.55601
813.37        70.51645
813.78        70.57015
814.19        70.67474
814.60        70.78829
815.01        70.86293
815.42        70.88525
815.83        70.86827
816.24        70.85079
816.65        70.89539
817.05        71.01979
817.46        71.17355
817.87        71.31187
818.28        71.31739
818.69        71.17382
819.10        70.91138
819.51        70.64375
819.92        70.57986
820.33        70.76186
820.74        71.10313
821.14        71.46136
821.55        71.63792
821.96        71.57719
822.37        71.37437
822.78        71.07806
823.19        70.77756
823.60        70.53991
824.00        70.34804
824.41        70.29238
824.82        70.60287
825.23        71.28429
825.64        72.25992
826.04        73.27344
826.45        73.77864
826.86        73.66768
827.27        73.08446
827.68        72.26734
828.08        71.65833
828.49        71.37253
828.90        71.31675
829.31        71.46179
829.72         71.7467
830.12        72.14732
830.53        72.64323
830.94        73.11928
831.35        73.30704
831.75        73.15563
832.16        72.65789
832.57        72.03374
832.97         71.6314
833.38        71.54758
833.79        71.70182
834.20        71.93111
834.60        71.95829
835.01        71.74661
835.42        71.40507
835.82        71.09882
836.23        71.03974
836.64        71.29982
837.04         71.8083
837.45        72.40479
837.86        72.94585
838.26        73.35217
838.67          73.605
839.08        73.67875
839.48        73.51892
839.89        73.14295
840.29        72.55997
840.70        71.92259
841.11        71.39797
841.51        71.07108
841.92        70.94662
842.33        70.95832
842.73        70.98108
843.14        70.93562
843.54        70.84934
843.95        70.89899
844.35        71.40884
844.76        72.36168
845.17        73.66382
845.57        74.90857
845.98        75.25804
846.38        74.58708
846.79        73.15904
847.19        71.53987
847.60        70.62563
848.00        70.62057
848.41        71.24459
848.81        72.19734
849.22        72.85112
849.62        73.04584
850.03        72.91425
850.43        72.59029
850.84        72.17337
851.24         71.7938
851.65        71.36548
852.05        70.99489
852.46        70.86263
852.86         70.9577
853.27        71.27176
853.67        71.62896
854.07        71.96492
854.48        72.19106
854.88        72.39191
855.29        72.41691
855.69        72.25211
856.10        71.81515
856.50        71.21133
856.90        70.59731
857.31        70.23141
857.71        70.20094
858.12        70.39693
858.52        70.77881
858.92        71.06005
859.33        71.12827
859.73        71.09472
860.13        70.97785
860.54        70.84068
860.94        70.74709
861.34        70.64259
861.75        70.52628
862.15        70.51047
862.55        70.55968
862.96        70.65788
863.36        70.73901
863.76        70.69666
864.17        70.50529
864.57        70.24878
864.97          69.936
865.38        69.56174
865.78        69.19685
866.18        68.81612
866.58        68.57263
866.99        68.72763
867.39        69.31319
867.79        70.18449
868.19        71.04546
868.60        71.42211
869.00        71.21684
869.40        70.58889
869.80        69.72102
870.21        68.96024
870.61         68.5054
871.01        68.25784
871.41        68.25246
871.81        68.53222
872.22         69.0416
872.62        69.81784
873.02        70.70901
873.42        71.38132
873.82        71.70316
874.22        71.73801
874.63        71.60205
875.03        71.47336
875.43        71.42266
875.83        71.35954
876.23        71.33171
876.63        71.41193
877.03        71.61091
877.44        71.98425
877.84        72.28644
878.24        72.13501
878.64        71.48413
879.04        70.41365
879.44         69.4049
879.84        69.15894
880.24        69.75982
880.64        71.03468
881.04        72.29939
881.44        72.33502
881.84        70.92059
882.24        68.55225
882.65        66.19993
883.05        65.13393
883.45        65.64761
883.85        67.33623
884.25        69.55818
884.65        71.12861
885.05        71.59261
885.45        71.27635
885.85        70.56064
886.25        70.03383
886.65        69.88342
887.05        69.89705
887.45        69.93285
887.85        69.80624
888.25        69.47462
888.65         69.0728
889.04         68.7216
889.44        68.59004
889.84        68.70708
890.24         69.0307
890.64         69.4516
891.04        69.80206
891.44        70.02443
891.84        70.13557
892.24        70.25965
892.64        70.59706
893.04        71.18137
893.44        71.95677
893.83        72.72051
894.23        73.04976
894.63        72.87925
895.03        72.29189
895.43        71.61977
895.83        71.38618
896.23        71.70248
896.63        72.43941
897.02        73.17919
897.42        73.24139
897.82        72.51038
898.22        71.22052
898.62        69.91113
899.01        69.32684
899.41        69.63164
899.81         70.6404
900.21        71.83939
900.61        72.26537
901.00        71.65894
901.40        70.40923
901.80        69.19469
902.20        68.95637
902.59        69.87999
902.99        71.62442
903.39        73.63516
903.79        74.72763
904.18        74.47749
904.58        73.33562
904.98        71.87685
905.38        70.87539
905.77        70.51857
906.17        70.56489
906.57        70.88375
906.96         71.3147
907.36        71.71375
907.76        72.19061
908.15        72.63479
908.55        72.74456
908.95        72.50008
909.34        71.92941
909.74        71.28629
910.14        70.94655
910.53        70.99995
910.93        71.38882
911.33         71.9015
911.72        72.19476
912.12        72.17609
912.52        71.93154
912.91        71.70606
913.31        71.85777
913.70         72.4726
914.10        73.37198
914.49        74.24754
914.89        74.50426
915.29        74.03762
915.68        73.06381
916.08        71.96008
916.47        71.26318
916.87        71.15559
917.26        71.40975
917.66         71.8952
918.05        72.40646
918.45        72.81249
918.84         73.2357
919.24        73.45833
919.64        73.22316
920.03        72.52332
920.42        71.44447
920.82        70.38915
921.21        69.79375
921.61        69.74778
922.00        70.17973
922.40        70.81859
922.79        71.27444
923.19        71.36346
923.58        71.20986
923.98        71.02537
924.37        71.09534
924.77        71.48767
925.16        72.11057
925.55         72.7587
925.95        73.07648
926.34        72.99409
926.74        72.59161
927.13         72.0594
927.52        71.67696
927.92         71.5238
928.31        71.52691
928.70        71.57181
929.10        71.44685
929.49         71.1377
929.89        70.74755
930.28        70.44056
930.67         70.4255
931.07        70.73717
931.46        71.28995
931.85         72.0034
932.24        72.78175
932.64        73.51585
933.03        74.26741
933.42        74.84645
933.82         74.9849
934.21        74.68085
934.60        74.00282
934.99        73.24127
935.39        72.81533
935.78        72.81478
936.17        73.11548
936.56        73.53408
936.96        73.74984
937.35        73.70354
937.74        73.48927
938.13        73.10233
938.53         72.5284
938.92        71.81392
939.31        71.03725
939.70        70.43127
940.09          70.366
940.49         70.8382
940.88        71.72393
941.27        72.81056
941.66        73.71656
942.05        74.23211
942.44        74.45355
942.84        74.16922
943.23        73.06467
943.62        71.29774
944.01        69.15293
944.40        67.28014
944.79        66.48351
945.18        66.85522
945.57        68.18723
945.97        70.00813
946.36        71.59118
946.75        72.42546
947.14        72.70507
947.53        72.61182
947.92        72.51583
948.31        72.55052
948.70        72.49075
949.09        72.44365
949.48        72.64327
949.87        73.09608
950.26        73.81984
950.65        74.39841
951.04        74.11314
951.43        72.89245
951.82         71.0014
952.21        69.11119
952.60        68.23565
952.99        68.57173
953.38        69.80883
953.77        71.34265
954.16        72.12022
954.55        71.81533
954.94        70.74041
955.33        69.34708
955.72        68.38257
956.11        68.08955
956.50        68.23131
956.89        68.58855
957.28         68.8157
957.66        68.80695
958.05         68.7049
958.44        68.60873
958.83        68.63031
959.22        68.80157
959.61        69.02869
960.00        69.28735
960.39        69.56654
960.78        69.82891
961.16        70.07275
961.55        70.20708
961.94         70.0747
962.33        69.66996
962.72        69.05001
963.11        68.39922
963.49        68.04074
963.88         68.0199
964.27        68.29106
964.66        68.69325
965.04        68.96396
965.43        68.96706
965.82        68.80236
966.21        68.61184
966.60        68.62745
966.98        68.92768
967.37        69.42177
967.76        69.95108
968.15        70.25398
968.53        70.27457
968.92        70.01721
969.31        69.72438
969.69        69.78902
970.08         70.2495
970.47        70.99708
970.86         71.6785
971.24        71.72385
971.63        71.03875
972.02        69.89416
972.40        68.72311
972.79        68.21613
973.17        68.65363
973.56        69.70673
973.95        71.21913
974.33        72.99816
974.72        74.80829
975.11        76.70654
975.49        78.39125
975.88        79.07915
976.26        78.56654
976.65        77.00346
977.04        74.83589
977.42        72.65703
977.81        70.73473
978.19        68.97169
978.58        67.53846
978.96        66.46608
979.35        65.77885
979.74        65.46021
980.12        65.45059
980.51        65.49089
980.89        65.57374
981.28        65.73255
981.66         65.9405
982.05         66.1048
982.43        66.23934
982.82        66.28002
983.20        66.50662
983.59        67.39672
983.97        69.07849
984.35         71.4136
984.74        73.64119
985.12        74.66142
985.51        73.99073
985.89        72.08456
986.28        69.80789
986.66         68.0675
987.04        67.20374
987.43        66.87228
987.81        66.98601
988.20        67.22781
988.58        67.54506
988.96        68.11984
989.35        68.66878
989.73        68.83492
990.12        68.52056
990.50        67.68275
990.88         66.9248
991.27        67.20503
991.65        68.70902
992.03        71.36688
992.42        74.00027
992.80        74.53631
993.18        72.23252
993.56        68.09641
993.95        64.14471
994.33        62.37675
994.71        63.20201
995.10        65.97553
995.48        69.81586
995.86        72.17686
996.24        71.95953
996.63        70.08173
997.01        67.65614
997.39        66.17363
997.77        66.01166
998.15        66.51585
998.54        67.62261
998.92        69.30769
999.30        71.36864
999.68         74.0154
1000.06        76.20073
1000.45        75.95595
1000.83        73.17744
1001.21         68.4678
1001.59        63.82552
1001.97        61.98302
1002.35         63.3789
1002.73        67.32046
1003.12        72.25447
1003.50        75.24462
1003.88        75.20967
1004.26        73.07099
1004.64        70.14742
1005.02        68.60306
1005.40        69.00854
1005.78        70.43803
1006.16         72.3116
1006.54        73.74708
1006.92        74.32076
1007.30        74.52127
1007.69         73.7257
1008.07        70.97343
1008.45        66.67048
1008.83        61.60602
1009.21        57.48663
1009.59         56.0578
1009.97        57.37674
1010.35        61.18355
1010.73        66.29572
1011.11        69.61847
1011.49        69.64197
1011.86        66.81734
1012.24        63.31941
1012.62        62.62598
1013.00        65.81602
1013.38         72.5077
1013.76        80.48772
1014.14        83.68063
1014.52        80.24428
1014.90         73.4067
1015.28        67.16974
1015.66        65.06609
1016.04        67.33457
1016.41        73.27171
1016.79        81.64427
1017.17        89.20864
1017.55        93.25451
1017.93        94.21421
1018.31        91.79859
1018.69        86.72821
1019.06        80.58382
1019.44        74.41201
1019.82        69.63828
1020.20        67.27884
1020.58        66.96941
1020.95        68.55384
1021.33        71.28487
1021.71        73.12923
1022.09          73.062
1022.46        71.28935
1022.84        69.29856
1023.22        68.94566
1023.60        70.73311
1023.97         74.8329
1024.35        79.52229
1024.73        79.82861
