SpectraSmart Spectrum 2.9.0.0
--------- Device Information -----------
Spectrum Name :  反射率_0
Saving Time :  2024/05/03 20:51:34
Spectro-Module Model Name : SE2030-DUVN
Spectro-Module Serial Number : OS361AC55029948
Wavelength Start : 200
Wavelength End : 1025
Wavelength Unit : Wavelength(nm)
Spectrum Unit : Reflectance(%)
-----------Spectrum Setting ------------
Integration Time : 20ms
Average : 10
Boxcar : 0
Background removal :  enabled
linearity correction :  enabled
SC :  disabled
Intensity correction :  disabled
DWT denoise :  enabled
savitzky-golay :  disabled
FFT :  disabled
Running average :  disabled
Kalman :  disabled
High pass :  disabled
---------------BEGIN--------------------
Wavelength(nm)             Reflectance(%)
200.29               0
200.75        32.55973
201.21        64.04326
201.67       -1918.258
202.13       -49.18409
202.58       -9.328323
203.04        12.17528
203.50        26.09321
203.96        32.33283
204.42        31.25457
204.88         13.9272
205.34        660.7011
205.80        88.41518
206.26        54.14479
206.72       -9445.212
207.18        110.4269
207.64        90.68111
208.10        74.84852
208.55        36.23037
209.01       -397.3785
209.47       -872.5346
209.93       -103.9119
210.39       -15.78471
210.85        10.04269
211.31        18.25365
211.77        19.17267
212.23        15.20134
212.69       0.2058483
213.14       -16.58061
213.60       -4.019248
214.06        8.134197
214.52        14.32946
214.98        18.71092
215.44        25.23229
215.90         47.4104
216.36       -269.5639
216.81       -54.30682
217.27       -64.23463
217.73       -129.3083
218.19       -517.3494
218.65       -10760.18
219.11       -776.8394
219.57       -200.0715
220.02       -110.8819
220.48       -195.5536
220.94        253.8233
221.40        89.59953
221.86        66.35075
222.32        61.77611
222.77        64.47857
223.23        74.11903
223.69        90.77705
224.15        101.1953
224.61        94.97805
225.06        82.01852
225.52          73.771
225.98        74.81224
226.44        84.55173
226.90        102.1413
227.36         125.026
227.81        140.2681
228.27        138.9796
228.73        127.6891
229.19        113.9331
229.65        103.4832
230.10        96.57578
230.56        92.07819
231.02         88.8922
231.48        86.36058
231.93        84.20658
232.39        82.85809
232.85        82.27783
233.31        82.60793
233.77        83.72268
234.22         85.2406
234.68        86.95153
235.14        88.55473
235.60        89.83462
236.05        91.02893
236.51        91.21433
236.97        89.21498
237.43        85.16362
237.88        79.90401
238.34        75.21066
238.80        72.89542
239.26        73.33866
239.71        78.35014
240.17         87.4617
240.63        98.78736
241.08        104.9121
241.54         101.909
242.00         95.4239
242.46        94.09103
242.91        100.3858
243.37        114.7708
243.83        139.5795
244.28        160.5444
244.74        147.5812
245.20        108.0819
245.66         67.0592
246.11         40.9198
246.57        28.63449
247.03        24.58261
247.48        24.93307
247.94        25.71104
248.40        25.96224
248.85        26.13833
249.31        27.03855
249.77        29.01258
250.22        31.59347
250.68        34.24326
251.14        36.60719
251.59        39.19561
252.05        42.87015
252.51        48.34863
252.96        57.78593
253.42        72.13081
253.88        86.58385
254.33          96.385
254.79         98.1098
255.25        91.49948
255.70        81.98172
256.16        73.85587
256.62         68.7081
257.07        67.45231
257.53        69.30618
257.99        72.40345
258.44        75.12854
258.90        76.33503
259.35        75.57512
259.81        74.22731
260.27        72.56895
260.72        70.89494
261.18        69.75606
261.63        68.68988
262.09        67.99393
262.55        67.50779
263.00        67.05984
263.46        66.73036
263.91        66.38593
264.37        66.20499
264.83        66.08135
265.28        65.95039
265.74        65.68124
266.19        64.76672
266.65        63.37691
267.11        61.61225
267.56        59.91018
268.02        59.01673
268.47        58.94868
268.93        59.50188
269.38        60.16843
269.84        60.08574
270.30        59.09071
270.75        57.49482
271.21        55.84528
271.66        54.78423
272.12        54.45202
272.57        54.53041
273.03        54.74574
273.48        54.68979
273.94        54.24671
274.39        53.57162
274.85        52.69766
275.31         51.5177
275.76        50.09018
276.22        48.56399
276.67        47.17859
277.13        46.43565
277.58        46.25601
278.04        46.50229
278.49        46.76061
278.95        46.46574
279.40        45.47628
279.86        44.13979
280.31        42.68632
280.77        41.56939
281.22        40.76254
281.68        40.18726
282.13        39.69992
282.59        39.21413
283.04         38.6658
283.50        38.13827
283.95        37.62527
284.41        37.16364
284.86        36.72969
285.32        36.34421
285.77        35.96478
286.22        35.61522
286.68        35.31095
287.13        35.00564
287.59        34.74262
288.04        34.50706
288.50        34.31409
288.95        34.12433
289.41        33.91208
289.86        33.58375
290.32        33.16735
290.77        32.68375
291.22         32.2183
291.68        31.87089
292.13        31.65028
292.59        31.55594
293.04        31.55353
293.50        31.60872
293.95        31.69602
294.40        31.82522
294.86        32.02087
295.31        32.30642
295.77        32.68087
296.22        33.11402
296.68        33.54461
297.13        33.87996
297.58        34.08684
298.04        34.21263
298.49        34.28527
298.95         34.3944
299.40        34.54873
299.85        34.73676
300.31        34.98686
300.76        35.30781
301.21        35.70159
301.67        36.16576
302.12        36.61404
302.58        36.93849
303.03        37.10037
303.48        37.13909
303.94        37.16823
304.39         37.2981
304.84        37.56976
305.30        37.93404
305.75        38.28526
306.20        38.49762
306.66        38.55466
307.11        38.48352
307.57        38.36484
308.02        38.24044
308.47        38.15853
308.93        38.11366
309.38        38.09027
309.83        38.10958
310.29        38.16723
310.74        38.24164
311.19        38.32286
311.65        38.38815
312.10        38.41036
312.55        38.38689
313.00         38.2888
313.46        38.08017
313.91        37.75602
314.36        37.35777
314.82        36.94629
315.27        36.60349
315.72        36.36626
316.18        36.21549
316.63        36.14321
317.08        36.13551
317.53        36.17246
317.99        36.24633
318.44         36.3173
318.89        36.30184
319.35         36.1789
319.80        35.96397
320.25        35.70244
320.70        35.48055
321.16        35.31351
321.61         35.1819
322.06        35.05047
322.51        34.86358
322.97         34.6056
323.42        34.31248
323.87        33.99811
324.32         33.6847
324.78        33.38227
325.23         33.0954
325.68         32.8381
326.13        32.63966
326.59        32.49281
327.04        32.40887
327.49        32.35128
327.94        32.26795
328.39        32.14202
328.85        31.97537
329.30        31.79971
329.75        31.63901
330.20        31.50365
330.66        31.36978
331.11        31.25296
331.56        31.13869
332.01        31.02365
332.46        30.91736
332.92        30.79383
333.37         30.6461
333.82        30.46178
334.27         30.2465
334.72        30.04437
335.17        29.93222
335.63        29.91522
336.08         29.9851
336.53        30.07034
336.98        30.06445
337.43        29.94009
337.88        29.73285
338.34        29.48896
338.79        29.28976
339.24        29.16394
339.69        29.09078
340.14        29.06326
340.59        29.07072
341.05        29.09948
341.50        29.15151
341.95        29.20639
342.40        29.23354
342.85        29.22226
343.30        29.17576
343.75        29.09281
344.20        28.97877
344.66        28.85133
345.11        28.71008
345.56        28.58371
346.01        28.51035
346.46         28.4988
346.91        28.53917
347.36        28.61193
347.81        28.68331
348.26        28.74098
348.72        28.79338
349.17        28.83283
349.62        28.85907
350.07        28.86956
350.52        28.85307
350.97        28.82013
351.42        28.79199
351.87         28.7693
352.32        28.74852
352.77         28.6977
353.22        28.56579
353.67        28.35177
354.13        28.08718
354.58        27.81625
355.03        27.62769
355.48        27.54168
355.93        27.53583
356.38        27.56338
356.83        27.54975
357.28        27.47167
357.73        27.34375
358.18        27.19911
358.63        27.09326
359.08        27.03748
359.53        27.01103
359.98        26.96702
360.43        26.83702
360.88         26.6081
361.33        26.30296
361.78        25.98312
362.23        25.73879
362.68        25.59233
363.13        25.52632
363.58        25.47361
364.03        25.32711
364.48        25.06911
364.93         24.7344
365.38        24.41988
365.83        24.27193
366.28        24.31477
366.73        24.49865
367.18        24.70325
367.63        24.73554
368.08        24.54817
368.53        24.19873
368.98        23.80684
369.43        23.55569
369.88        23.48827
370.33         23.5506
370.78        23.64159
371.23        23.59258
371.68        23.36217
372.13        23.01317
372.58        22.64886
373.03         22.4193
373.48        22.35959
373.93        22.41978
374.38        22.51836
374.83        22.52452
375.28        22.39861
375.72         22.1717
376.17        21.92738
376.62        21.74914
377.07        21.65401
377.52        21.60996
377.97         21.5632
378.42        21.43354
378.87        21.21165
379.32        20.93833
379.77         20.6739
380.22        20.49599
380.67        20.41657
381.11        20.41045
381.56        20.42872
382.01         20.4062
382.46        20.32239
382.91         20.2005
383.36        20.06261
383.81        19.93836
384.26        19.83741
384.71        19.75025
385.15         19.6686
385.60        19.59959
386.05        19.53583
386.50        19.47495
386.95        19.42213
387.40         19.3821
387.85        19.35356
388.29        19.32716
388.74        19.29699
389.19        19.21082
389.64        19.06366
390.09         18.8658
390.54        18.67437
390.98        18.56388
391.43        18.55561
391.88        18.65683
392.33         18.7859
392.78        18.73128
393.23        18.52737
393.67        18.39957
394.12        18.38054
394.57        18.32658
395.02        18.24202
395.47         18.2057
395.91         18.2102
396.36        18.18611
396.81        18.13712
397.26        18.09379
397.71        18.03977
398.15        17.97104
398.60        17.91598
399.05        17.76764
399.50        17.59579
399.95        17.70436
400.39        18.01313
400.84        17.99827
401.29        17.67998
401.74        17.52239
402.18        17.54728
402.63        17.49938
403.08        17.40137
403.53        17.26734
403.97        17.34946
404.42        17.40484
404.87        17.47441
405.32        17.50035
405.76        17.46745
406.21        17.39861
406.66        17.31063
407.11        17.23648
407.55         17.1903
408.00         17.1563
408.45        17.13099
408.90        17.10465
409.34        17.07252
409.79        17.03918
410.24        17.00911
410.68        16.98337
411.13        16.96453
411.58         16.9526
412.03        16.93717
412.47        16.90552
412.92        16.85266
413.37        16.78548
413.81        16.72605
414.26        16.72491
414.71        16.77894
415.15        16.88193
415.60        16.98097
416.05        17.00159
416.49         16.9249
416.94         16.7789
417.39         16.6178
417.83        16.51938
418.28         16.5017
418.73         16.5375
419.17        16.59805
419.62        16.62514
420.07        16.60357
420.51        16.55115
420.96        16.48549
421.41        16.41719
421.85        16.34732
422.30        16.28152
422.74        16.22132
423.19        16.22016
423.64        16.26635
424.08        16.32425
424.53        16.36743
424.98        16.41819
425.42        16.47869
425.87        16.49296
426.31        16.46794
426.76        16.51616
427.21         16.5923
427.65        16.46801
428.10        16.22659
428.54         16.1653
428.99        16.31173
429.44        16.60794
429.88        16.89363
430.33        16.82797
430.77        16.47201
431.22        16.23593
431.66        16.19108
432.11        16.24371
432.56        16.34769
433.00        16.48271
433.45         16.4869
433.89        16.30477
434.34        15.50247
434.78        15.50317
435.23        16.13661
435.67        16.33899
436.12        16.09281
436.57        15.98476
437.01        16.05831
437.46        16.07812
437.90        16.04657
438.35        16.03307
438.79        16.02012
439.24        15.96814
439.68        15.88628
440.13         15.8287
440.57        15.79745
441.02        15.77763
441.46         15.7673
441.91        15.75856
442.35        15.74844
442.80        15.84926
443.24        16.00689
443.69        16.03834
444.13        15.94806
444.58        15.91272
445.02        15.93864
445.47        15.92204
445.91        15.86988
446.36        15.85283
446.80        15.87059
447.24        15.90986
447.69        15.95306
448.13        15.96965
448.58        15.95524
449.02        15.91679
449.47        15.87612
449.91        15.85697
450.36        15.86771
450.80        15.89377
451.25        15.91978
451.69        15.91573
452.13        15.87561
452.58        15.81038
453.02        15.73068
453.47        15.66025
453.91        15.60702
454.36        15.56732
454.80        15.53234
455.24        15.51059
455.69        15.50901
456.13        15.47325
456.58        15.41451
457.02        15.53076
457.46        15.56991
457.91        15.57504
458.35        15.48737
458.79        15.49338
459.24        15.57314
459.68        15.54224
460.13        15.43108
460.57        15.36453
461.01         15.3599
461.46        15.34953
461.90        15.32309
462.34          15.283
462.79        15.22478
463.23        15.14925
463.68        15.08817
464.12        15.07778
464.56        15.11994
465.01        15.24189
465.45        15.37316
465.89        15.36747
466.34        15.25908
466.78        15.21994
467.22        15.27143
467.67        15.31189
468.11        15.33355
468.55        15.33796
468.99        15.33059
469.44        15.34054
469.88        15.36934
470.32        15.38544
470.77        15.38265
471.21        15.37573
471.65        15.36287
472.10        15.33862
472.54         15.3107
472.98         15.3003
473.42        15.31031
473.87        15.34201
474.31        15.36723
474.75        15.35653
475.20        15.31299
475.64        15.24025
476.08        15.16662
476.52        15.15731
476.97        15.22406
477.41        15.30356
477.85        15.35153
478.29        15.58991
478.74         15.4857
479.18        15.58209
479.62        15.70236
480.06        15.73535
480.50        15.67357
480.95         15.5913
481.39        15.52374
481.83        15.50325
482.27        15.55142
482.72          15.681
483.16        15.84071
483.60        15.94673
484.04        15.97567
484.48        15.91244
484.93        15.89174
485.37        16.07224
485.81        16.39152
486.25        16.88062
486.69        16.82114
487.14        16.65586
487.58        16.69969
488.02         16.7709
488.46        16.79815
488.90        16.66572
489.34        16.52553
489.79        16.55907
490.23        16.80255
490.67        17.17109
491.11        17.53015
491.55        17.48801
491.99        17.13401
492.43        17.04554
492.88        17.26552
493.32         17.4516
493.76        17.55513
494.20        17.67373
494.64        17.79931
495.08        17.90991
495.52        18.00989
495.96        18.11694
496.41        18.23368
496.85        18.32404
497.29        18.40925
497.73        18.58863
498.17        18.83002
498.61         18.9893
499.05        19.05056
499.49        19.06216
499.93        19.06732
500.37        19.16515
500.82        19.33511
501.26        19.42801
501.70        19.43618
502.14        19.46449
502.58        19.52901
503.02        19.60191
503.46        19.68599
503.90         19.7879
504.34        19.90232
504.78        20.01821
505.22        20.12936
505.66          20.231
506.10        20.30236
506.54        20.35975
506.98        20.41171
507.42         20.3745
507.86        20.25011
508.30        20.48317
508.74        20.36706
509.18        20.47072
509.62         20.5652
510.06        20.64413
510.50          20.695
510.94        20.73179
511.38        20.76635
511.82        20.79707
512.26        20.82806
512.70        20.85746
513.14         20.8833
513.58        20.90529
514.02        20.92241
514.46        20.93255
514.90         20.9419
515.34        20.95893
515.78        20.98522
516.22        21.02273
516.66        21.05206
517.10        21.04249
517.54        20.99174
517.98        20.90845
518.42        20.83384
518.86         20.8329
519.30         20.9161
519.74        21.06312
520.18        21.21672
520.62         21.2834
521.06        21.24031
521.50        21.11385
521.93        20.96025
522.37        20.87311
522.81        20.87267
523.25        20.92851
523.69        20.99314
524.13        20.99129
524.57        20.90742
525.01         20.7744
525.45        20.62806
525.89        20.52258
526.32        20.47348
526.76        20.46148
527.20        20.47709
527.64        20.50866
528.08         20.5452
528.52        20.58972
528.96         20.6186
529.40        20.59413
529.83        20.50847
530.27        20.37567
530.71           20.23
531.15        20.12891
531.59        20.08651
532.03        20.09135
532.46         20.1112
532.90         20.0928
533.34        20.02742
533.78        19.93677
534.22        19.85409
534.66        19.82712
535.09        19.85869
535.53        19.92834
535.97        20.00742
536.41        20.03672
536.85        20.00011
537.28        19.97132
537.72        19.94966
538.16        19.80878
538.60        19.62256
539.04        19.66068
539.47        19.88444
539.91        20.00636
540.35        20.00572
540.79        20.05022
541.22        20.13606
541.66        20.19447
542.10        20.22675
542.54        20.22303
542.97        20.21058
543.41        20.31276
543.85        20.50271
544.29        20.61683
544.72        20.65181
545.16        20.74828
545.60        20.90381
546.04        21.03944
546.47        21.15533
546.91        21.29031
547.35        21.44268
547.79        21.60635
548.22        21.77345
548.66         21.9317
549.10        22.08562
549.53        22.29099
549.97         22.5229
550.41        22.69017
550.84        22.77896
551.28        22.83739
551.72        22.88477
552.15        22.93427
552.59        23.00913
553.03        23.09846
553.46        23.19658
553.90        23.32551
554.34         23.4712
554.77        23.60336
555.21        23.72831
555.65        23.87489
556.08        24.03655
556.52        24.19913
556.96        24.33437
557.39        24.42337
557.83        24.47164
558.27         24.4534
558.70        24.41462
559.14        24.48652
559.57        24.65633
560.01        24.80544
560.45        24.90286
560.88        24.99196
561.32        25.07728
561.75        25.10171
562.19        25.11482
562.63        25.16832
563.06        25.26324
563.50        25.46609
563.93        25.69768
564.37        25.65726
564.80        25.41501
565.24        25.42812
565.68        25.67949
566.11        25.82309
566.55        25.86032
566.98        25.96838
567.42        26.13934
567.85        26.35962
568.29        26.43689
568.72        26.50292
569.16        26.55246
569.60        26.65962
570.03         26.8287
570.47        27.02292
570.90        27.20642
571.34        27.35174
571.77        27.67626
572.21        27.51921
572.64        27.76705
573.08        27.60443
573.51        28.19574
573.95        28.39512
574.38         28.4774
574.82        28.39058
575.25        28.85736
575.69        28.85881
576.12        28.67769
576.56        28.67491
576.99        28.84671
577.42        29.25148
577.86        28.76533
578.29        29.17816
578.73        29.04987
579.16        29.07954
579.60         28.8834
580.03        28.79788
580.47        28.85142
580.90        28.53401
581.33        28.40331
581.77        28.47668
582.20        28.86185
582.64        28.52151
583.07        28.30418
583.51        27.97311
583.94        27.90064
584.37        27.77592
584.81        27.64394
585.24        27.53571
585.68         27.9092
586.11        27.45728
586.54        27.44468
586.98        27.13024
587.41        27.20244
587.85        27.24286
588.28        27.19756
588.71        27.07617
589.15        26.98811
589.58        26.77858
590.01        26.65302
590.45        26.54688
590.88        26.59266
591.31        26.74774
591.75        26.96035
592.18        27.01592
592.61        26.93162
593.05        26.90852
593.48        27.42427
593.91        27.16414
594.35         27.1553
594.78        27.12059
595.21        27.32968
595.65        27.42036
596.08        27.32575
596.51         27.8033
596.94        27.73493
597.38         27.9285
597.81        28.01883
598.24         28.3133
598.68        28.63767
599.11        28.41968
599.54        29.41421
599.97        29.34154
600.41        29.82557
600.84        30.04088
601.27        30.32701
601.70        30.48049
602.14        30.57691
602.57         31.0709
603.00        31.86325
603.43        32.31456
603.87        32.41369
604.30        32.69136
604.73        33.22404
605.16        33.38986
605.60        33.58902
606.03        33.97273
606.46        34.64492
606.89        34.58552
607.32        35.21995
607.76        35.49463
608.19         35.8441
608.62        36.20771
609.05        36.55527
609.48        36.84434
609.92        37.22601
610.35        37.10902
610.78        38.33659
611.21        38.84015
611.64        38.86357
612.07        38.97386
612.50        39.16502
612.94        39.30532
613.37        39.41552
613.80        39.73461
614.23        39.92738
614.66        40.22348
615.09        40.50951
615.52        40.78767
615.96        41.05625
616.39        41.32364
616.82        41.54034
617.25        41.85617
617.68        42.20642
618.11        42.21585
618.54        41.98951
618.97        42.12553
619.40        42.66744
619.84        42.85352
620.27        43.20522
620.70        43.47402
621.13         43.8003
621.56        43.61008
621.99        43.16278
622.42        43.39627
622.85        44.06588
623.28        43.87624
623.71        43.93493
624.14        43.88335
624.57        43.35456
625.00        43.43779
625.43         43.4518
625.86        43.55557
626.29        43.55099
626.72        43.55278
627.15        43.55167
627.58        43.45533
628.01        43.25628
628.44         43.0521
628.87        42.88363
629.30        42.36708
629.73        42.22364
630.16        41.92104
630.59        41.60434
631.02        41.33609
631.45        41.09565
631.88         40.8562
632.31        40.59964
632.74         40.3332
633.17         40.0447
633.60        39.71637
634.03        39.34598
634.46         38.9401
634.89        38.50294
635.32        38.04124
635.75         37.5649
636.18        37.08131
636.61        36.60907
637.04        36.17648
637.47        35.79248
637.89        35.44265
638.32        35.10531
638.75        34.80116
639.18        34.53332
639.61        34.16322
640.04        33.94054
640.47        33.64409
640.90        33.35115
641.33        33.06052
641.76        32.80312
642.18        32.63195
642.61         32.5449
643.04        32.53128
643.47        32.55949
643.90        32.57545
644.33        32.56136
644.76        32.53862
645.18        32.52534
645.61        32.50815
646.04        32.49429
646.47        32.56041
646.90        32.74559
647.33        32.72025
647.75        33.10213
648.18        33.37652
648.61        33.71144
649.04        34.04476
649.47        34.36953
649.89         34.7527
650.32        35.14188
650.75        35.39139
651.18        35.56137
651.61        35.85465
652.03        36.30361
652.46        36.90636
652.89        37.55801
653.32        37.88541
653.74         38.0787
654.17         38.2989
654.60        38.85604
655.03        39.62297
655.46        39.86515
655.88        40.11921
656.31        42.93925
656.74        47.26221
657.16        44.71146
657.59         42.1301
658.02        43.04874
658.45        43.71653
658.87        44.34546
659.30        43.97681
659.73        44.00687
660.15         44.4233
660.58        44.32864
661.01        44.72638
661.44        45.12249
661.86        45.28003
662.29        45.22991
662.72        45.42084
663.14        45.87919
663.57        46.14995
664.00        46.25687
664.42        46.55243
664.85        47.00196
665.27        47.28164
665.70        47.42018
666.13        47.44926
666.55        47.87592
666.98         48.1284
667.41         48.3293
667.83        48.48993
668.26        48.60675
668.69        48.69518
669.11        48.75719
669.54        48.80078
669.96        48.83661
670.39        48.87387
670.82        48.98283
671.24        49.21243
671.67        49.57024
672.09        50.14463
672.52        50.80552
672.94        50.92206
673.37        51.04494
673.80        50.78951
674.22        50.50256
674.65        50.42895
675.07        50.64718
675.50        51.06266
675.92        51.55031
676.35        51.87912
676.77        51.99241
677.20        51.96697
677.62        51.88552
678.05        51.88131
678.47        51.99182
678.90        52.16638
679.32        52.37461
679.75        52.61963
680.17        52.88838
680.60        53.11824
681.02        53.26297
681.45         53.5787
681.87        53.50051
682.30        53.48756
682.72        53.42683
683.15        53.41532
683.57        53.48435
684.00        53.61816
684.42        53.78332
684.85        53.93034
685.27        54.02756
685.70        54.03955
686.12        54.00096
686.54         54.1616
686.97        54.45426
687.39        54.53314
687.82        54.38248
688.24        54.31651
688.66        54.35339
689.09        54.27481
689.51        54.14028
689.94        54.24895
690.36        54.60855
690.78        54.89899
691.21        55.00463
691.63        55.61443
692.06        55.31718
692.48        55.64259
692.90        56.08899
693.33        56.28073
693.75        56.19659
694.17        55.99348
694.60        55.80459
695.02        56.12488
695.44         56.2021
695.87        56.84929
696.29        57.59719
696.71         57.6755
697.14        57.14086
697.56        56.80167
697.98        56.78671
698.41        56.79013
698.83        56.69774
699.25        56.91775
699.68        57.31492
700.10        57.62741
700.52        57.77652
700.94        57.84981
701.37        57.86774
701.79        57.87977
702.21        57.89658
702.64         57.8939
703.06        57.88659
703.48        57.91398
703.90        57.98833
704.33        58.11052
704.75        58.25968
705.17        58.38185
705.59        58.46428
706.01        58.51291
706.44         58.5678
706.86        58.71098
707.28        58.93235
707.70        59.23235
708.12        59.53614
708.55        59.64726
708.97        59.57597
709.39        59.54593
709.81        59.58685
710.23        59.59048
710.66        59.57448
711.08        59.64072
711.50        59.76885
711.92        59.89576
712.34        60.01155
712.76        60.12877
713.19        60.23787
713.61        60.37281
714.03        60.50558
714.45        60.62187
714.87        60.69786
715.29        60.70404
715.71        60.63782
716.13         60.5127
716.56        60.35053
716.98        60.25177
717.40        60.22708
717.82        60.27146
718.24        60.36033
718.66        60.45546
719.08        60.54787
719.50        60.60993
719.92        60.66763
720.34        60.84817
720.76        61.17652
721.19        61.27659
721.61        61.67096
722.03        61.74849
722.45        61.69294
722.87        61.38668
723.29         60.9683
723.71        61.06092
724.13        61.71317
724.55        61.41746
724.97        61.98742
725.39        62.02319
725.81        62.05854
726.23        61.92979
726.65        61.74891
727.07        61.65168
727.49        61.80615
727.91        62.04788
728.33        62.34054
728.75        62.55024
729.17        62.63662
729.59         62.6408
730.01        62.62145
730.43        62.67147
730.85        62.81194
731.27        63.00334
731.69        63.19407
732.10        63.31954
732.52        63.36776
732.94        63.33996
733.36        63.24797
733.78        63.22793
734.20        63.32729
734.62        63.14614
735.04        63.21159
735.46        63.42773
735.88        63.32969
736.30        63.39927
736.72        63.47495
737.13         63.5355
737.55        63.51924
737.97        63.67132
738.39         63.9316
738.81        63.67508
739.23         63.1476
739.65         63.5169
740.06        64.51783
740.48        64.94257
740.90        64.74142
741.32        63.85176
741.74        63.86813
742.16        63.62195
742.57        63.62334
742.99        63.82683
743.41        64.16882
743.83        64.49928
744.25        64.75008
744.67        64.95345
745.08        65.13178
745.50          65.284
745.92        65.42236
746.34        65.51913
746.75        65.53732
747.17         65.4519
747.59        65.26831
748.01        65.00091
748.42        64.72314
748.84        64.58144
749.26        64.57679
749.68         64.6048
750.09        64.66667
750.51        64.75227
750.93        64.90998
751.35        65.38994
751.76        66.06566
752.18        66.36555
752.60        66.22797
753.01        65.93204
753.43        65.64957
753.85        65.48077
754.27        65.46592
754.68        65.73295
755.10        66.24716
755.52        65.96609
755.93        66.44534
756.35        66.48438
756.77        66.47079
757.18        66.51166
757.60         66.7085
758.02        66.34205
758.43        65.51539
758.85        66.96275
759.26        67.84982
759.68        67.83618
760.10        67.23372
760.51        66.89644
760.93        67.30827
761.34        67.00246
761.76        67.63692
762.18        67.27075
762.59        66.61227
763.01        66.55659
763.42        67.13796
763.84         67.4895
764.26        67.46774
764.67        67.07302
765.09        66.55779
765.50        66.63121
765.92        67.20963
766.33        67.28059
766.75        66.75489
767.16        66.87791
767.58        66.72936
768.00        67.14866
768.41        67.75949
768.83         68.2173
769.24         68.3632
769.66        68.23779
770.07         67.9006
770.49        67.43517
770.90        66.99957
771.32        67.00395
771.73        67.40598
772.15        67.67737
772.56        67.80036
772.97        68.03623
773.39        68.33461
773.80        68.63676
774.22        68.82091
774.63         68.6999
775.05        68.32444
775.46        68.09299
775.88        68.04683
776.29        68.01157
776.70        67.99486
777.12        68.09746
777.53        68.32823
777.95        68.63619
778.36        68.94877
778.77        69.09929
779.19        69.06329
779.60        68.92418
780.02        68.75638
780.43        68.66585
780.84        68.73746
781.26        68.91048
781.67        69.18621
782.09        69.67107
782.50        70.16711
782.91        70.09058
783.33        69.52768
783.74        69.24795
784.15        69.28955
784.57        69.31516
784.98        69.26896
785.39        69.05686
785.81        68.77026
786.22        68.83233
786.63        69.18293
787.04        69.33642
787.46         69.2752
787.87        69.22398
788.28        69.27092
788.70        69.39265
789.11        69.57494
789.52        69.92929
789.93        70.33492
790.35        70.34235
790.76        70.03402
791.17         70.0257
791.58        70.34867
792.00        70.44015
792.41        70.25469
792.82        70.63263
793.23        70.49842
793.65        70.63258
794.06        70.76096
794.47          71.095
794.88        71.45501
795.29        71.43813
795.71        70.98067
796.12        70.41524
796.53        69.90824
796.94        69.37973
797.35        69.07819
797.76        69.71915
798.18        70.95404
798.59        71.54836
799.00        71.30532
799.41        70.63499
799.82        70.19485
800.23        69.94985
800.64        70.11866
801.06        70.55461
801.47        71.14032
801.88        71.54867
802.29        71.65553
802.70        71.55482
803.11        71.31503
803.52        71.04314
803.93        70.80373
804.34        70.57153
804.75        70.37289
805.17        70.29717
805.58        70.38989
805.99        70.49352
806.40        70.61749
806.81        71.04406
807.22         71.5939
807.63        71.63352
808.04        71.21642
808.45        71.00651
808.86        71.06846
809.27        71.00642
809.68        70.83856
810.09        70.79176
810.50        70.88249
810.91         71.0565
811.32        71.25741
811.73        71.38322
812.14        71.40025
812.55        71.33626
812.96        71.23138
813.37        71.15459
813.78        71.13653
814.19        71.16677
814.60         71.2155
815.01        71.23847
815.42        71.22595
815.83         71.1841
816.24        71.16566
816.65        71.26068
817.05         71.4847
817.46        71.77068
817.87        72.03087
818.28        72.08722
818.69        71.91006
819.10        71.54347
819.51        71.13679
819.92        70.96696
820.33        71.10679
820.74        71.46224
821.14        71.86536
821.55        72.07576
821.96        72.02451
822.37        71.80991
822.78        71.51646
823.19        71.29311
823.60        71.21189
824.00        71.23473
824.41        71.36134
824.82        71.67822
825.23        72.16434
825.64        72.78779
826.04        73.42152
826.45        73.74095
826.86        73.70377
827.27        73.39497
827.68        72.93533
828.08        72.56749
828.49        72.33656
828.90        72.19307
829.31        72.18127
829.72        72.36243
830.12        72.75048
830.53        73.29339
830.94        73.80049
831.35        73.87983
831.75        73.46263
832.16        72.59619
832.57        71.63844
832.97        71.14674
833.38        71.25238
833.79        71.79335
834.20        72.45209
834.60        72.71329
835.01        72.47924
835.42        71.93226
835.82        71.33159
836.23        71.04389
836.64         71.1968
837.04        71.67574
837.45        72.29768
837.86          72.879
838.26        73.32319
838.67        73.63728
839.08        73.79118
839.48         73.7128
839.89        73.41154
840.29        72.88161
840.70        72.28096
841.11         71.7979
841.51        71.51305
841.92        71.41702
842.33        71.41849
842.73        71.34892
843.14        71.13152
843.54        70.83519
843.95        70.66142
844.35        70.96579
844.76        71.75142
845.17        72.91304
845.57        74.11219
845.98        74.62078
846.38        74.31329
846.79        73.40843
847.19        72.30281
847.60        71.64263
848.00        71.58792
848.41         71.9218
848.81        72.51545
849.22        73.04159
849.62         73.4175
850.03        73.68272
850.43        73.81557
850.84        73.63949
851.24        73.20803
851.65        72.54485
852.05         71.8441
852.46        71.43603
852.86        71.37033
853.27        71.56536
853.67        71.89092
854.07        72.35567
854.48        72.86211
854.88        73.50999
855.29        73.95735
855.69        73.80435
856.10        72.87453
856.50        71.39148
856.90        69.87704
857.31        69.13953
857.71        69.38334
858.12        70.36559
858.52        71.72353
858.92        72.55695
859.33        72.54804
859.73        71.98712
860.13         71.1849
860.54        70.68021
860.94        70.67323
861.34        70.94908
861.75        71.32594
862.15        71.62372
862.55         71.7093
862.96         71.6804
863.36        71.55819
863.76        71.35918
864.17        71.10725
864.57        70.83079
864.97        70.52805
865.38        70.19668
865.78         69.8868
866.18        69.56549
866.58        69.35937
866.99        69.46838
867.39        69.92545
867.79        70.64496
868.19        71.31776
868.60        71.44781
869.00        70.95834
869.40        69.99542
869.80        68.93109
870.21        68.42947
870.61        68.69231
871.01        69.47286
871.41        70.42847
871.81        71.05159
872.22         71.1917
872.62        71.06284
873.02        70.81841
873.42        70.73665
873.82        70.92396
874.22        71.25065
874.63        71.69932
875.03        72.24119
875.43        72.84196
875.83        73.48969
876.23        74.05394
876.63        74.29124
877.03        74.16398
877.44        73.78967
877.84        73.24623
878.24        72.70509
878.64        72.23827
879.04        71.75854
879.44        71.42968
879.84        71.48142
880.24        71.89701
880.64        72.65273
881.04        73.28033
881.44        72.94943
881.84        71.56863
882.24        69.50164
882.65        67.54733
883.05        66.73871
883.45        67.31583
883.85        68.96248
884.25        71.13252
884.65        72.79343
885.05         73.5246
885.45        73.56445
885.85        73.21291
886.25        72.96176
886.65        72.95993
887.05         73.0187
887.45        72.99413
887.85        72.69711
888.25        72.10786
888.65        71.38608
889.04        70.68913
889.44        70.24105
889.84        70.08907
890.24        70.17728
890.64        70.43361
891.04        70.73875
891.44         71.0341
891.84        71.33409
892.24        71.64431
892.64        71.97643
893.04        72.33903
893.44        72.72564
893.83        73.11757
894.23        73.41154
894.63        73.60386
895.03        73.65297
895.43        73.67046
895.83        73.83664
896.23        74.16833
896.63        74.64599
897.02        74.96398
897.42        74.62994
897.82        73.61583
898.22        72.11389
898.62         70.6678
899.01        70.03028
899.41         70.3484
899.81        71.43261
900.21        72.75122
900.61        73.28403
901.00         72.7449
901.40         71.5473
901.80        70.32539
902.20         69.9599
902.59        70.64967
902.99        72.06942
903.39         73.8203
903.79        75.01823
904.18        75.28767
904.58        74.93303
904.98        74.29322
905.38         73.8369
905.77        73.69381
906.17        73.72087
906.57        73.84887
906.96        74.03654
907.36        74.18964
907.76        74.35632
908.15        74.51053
908.55        74.49322
908.95        74.30664
909.34        73.98421
909.74        73.56264
910.14        73.06046
910.53        72.52679
910.93        72.01295
911.33        71.64964
911.72        71.65679
912.12         72.0543
912.52        72.74122
912.91        73.57419
913.31        74.29432
913.70        74.82571
914.10        75.16271
914.49         75.2963
914.89        75.14984
915.29        74.77676
915.68        74.21882
916.08        73.63903
916.47        73.24371
916.87        73.12527
917.26        73.18819
917.66        73.42107
918.05        73.77704
918.45        74.17527
918.84          74.675
919.24         75.0237
919.64        74.91455
920.03        74.31016
920.42        73.31717
920.82        72.33138
921.21        71.77149
921.61        71.72936
922.00        72.13014
922.40        72.72182
922.79        73.16306
923.19        73.27903
923.58        73.17989
923.98         73.0508
924.37        73.13189
924.77        73.48669
925.16        74.05103
925.55        74.63932
925.95        74.92655
926.34        74.86735
926.74        74.53471
927.13        74.13103
927.52        73.96504
927.92        74.09371
928.31        74.39018
928.70          74.698
929.10        74.73705
929.49        74.46444
929.89        74.02396
930.28        73.50609
930.67         73.0059
931.07          72.581
931.46        72.19906
931.85        72.05441
932.24        72.48602
932.64        73.48505
933.03        75.02132
933.42        76.56464
933.82        77.23624
934.21        76.85837
934.60        75.65143
934.99        74.25482
935.39        73.63773
935.78        74.01297
936.17        75.08439
936.56        76.34547
936.96        76.93271
937.35        76.64508
937.74        75.76689
938.13        74.62231
938.53        73.70514
938.92        73.19113
939.31        72.98871
939.70        73.07756
940.09        73.45596
940.49        74.01562
940.88         74.7398
941.27        75.58633
941.66         76.4641
942.05        77.25797
942.44        77.98013
942.84        78.21169
943.23        77.31235
943.62        75.37366
944.01         72.7953
944.40        70.49635
944.79        69.63162
945.18        70.34026
945.57        72.32387
945.97        74.82922
946.36        76.57637
946.75        76.87781
947.14        76.12599
947.53        74.88864
947.92        74.12257
948.31        74.10956
948.70        74.43902
949.09        75.00599
949.48        75.67619
949.87        76.30868
950.26        77.04454
950.65        77.47602
951.04        76.88975
951.43         75.2748
951.82        72.90721
952.21        70.60645
952.60        69.62639
952.99        70.21085
953.38        71.98737
953.77        74.23167
954.16        75.66412
954.55        75.84142
954.94        75.08286
955.33        73.84525
955.72         72.9024
956.11        72.52668
956.50        72.50662
956.89         72.5901
957.28        72.39191
957.66        71.84427
958.05        71.11763
958.44        70.55579
958.83        70.64815
959.22        71.46654
959.61        72.79298
960.00        74.18299
960.39        74.88259
960.78        74.66407
961.16        73.76918
961.55        72.51699
961.94        71.41405
962.33        70.65768
962.72         70.1033
963.11        69.81474
963.49        69.90677
963.88        70.31585
964.27        71.08884
964.66        71.93472
965.04        72.35098
965.43        72.16678
965.82        71.50768
966.21        70.76171
966.60        70.61191
966.98        71.22549
967.37        72.36136
967.76        73.60323
968.15        74.24393
968.53        74.11388
968.92        73.39941
969.31        72.46292
969.69        71.90063
970.08        71.86197
970.47        72.15611
970.86        72.60053
971.24        72.90091
971.63        72.96835
972.02        73.01614
972.40        73.05099
972.79        72.99757
973.17        72.95615
973.56        72.80655
973.95        72.93205
974.33        73.98091
974.72        75.94728
975.11         78.7274
975.49          81.634
975.88        83.03051
976.26        82.41521
976.65        80.22768
977.04        77.38318
977.42        75.13238
977.81         73.8413
978.19        73.10326
978.58        72.76022
978.96        72.36907
979.35        71.80385
979.74        71.21097
980.12        70.63866
980.51        69.98686
980.89        69.36018
981.28        68.77523
981.66        68.29266
982.05        67.96697
982.43        67.87958
982.82        67.97518
983.20        68.49719
983.59        69.84495
983.97        72.08846
984.35        75.05265
984.74        77.89614
985.12        79.35549
985.51        78.86797
985.89        76.96457
986.28        74.47618
986.66        72.26582
987.04        70.70949
987.43        69.41908
987.81        68.69385
988.20        68.94695
988.58        70.26642
988.96        72.59874
989.35        74.86969
989.73        75.45388
990.12         74.0447
990.50        71.07672
990.88        67.94386
991.27        66.72309
991.65        67.89336
992.03        71.08295
992.42        74.89079
992.80        76.64532
993.18        75.20637
993.56        71.71656
993.95        68.17187
994.33        66.57199
994.71        67.38607
995.10        69.87333
995.48        73.26361
995.86        75.34003
996.24        75.12167
996.63        73.46861
997.01        71.31696
997.39        69.85368
997.77        69.43125
998.15         69.5677
998.54        70.28937
998.92         71.7538
999.30        73.83276
999.68        76.57826
1000.06        79.16937
1000.45        80.00615
1000.83        78.90727
1001.21        76.30131
1001.59        73.35401
1001.97        71.69788
1002.35          71.667
1002.73        72.81262
1003.12        74.63196
1003.50        76.26785
1003.88        77.24121
1004.26        77.85886
1004.64        78.09373
1005.02        77.92111
1005.40        77.35184
1005.78        76.14864
1006.16        74.71581
1006.54        73.81126
1006.92        73.59096
1007.30        74.03291
1007.69        74.24992
1008.07         72.7078
1008.45        69.39078
1008.83        65.25172
1009.21        61.77129
1009.59         60.4103
1009.97        61.27053
1010.35        64.08484
1010.73        67.96477
1011.11        70.65949
1011.49        71.01248
1011.86        69.23871
1012.24        67.07998
1012.62        67.33909
1013.00        70.86543
1013.38        77.44324
1013.76        84.70689
1014.14        86.51337
1014.52        81.40308
1014.90        72.87649
1015.28        65.35443
1015.66        62.62461
1016.04         64.8485
1016.41        71.35478
1016.79        80.67738
1017.17        88.81737
1017.55        92.63315
1017.93        92.51022
1018.31        88.90921
1018.69         84.0521
1019.06        79.55094
1019.44        75.56437
1019.82        72.38839
1020.20        70.05419
1020.58        68.26093
1020.95        67.17978
1021.33        66.63998
1021.71        66.37849
1022.09        66.32344
1022.46         66.1398
1022.84        66.48039
1023.22         68.1833
1023.60        71.55916
1023.97        77.24633
1024.35        83.24057
1024.73        83.57088
