SpectraSmart Spectrum 2.9.0.0
--------- Device Information -----------
Spectrum Name :  反射率_0
Saving Time :  2024/05/03 21:03:08
Spectro-Module Model Name : SE2030-DUVN
Spectro-Module Serial Number : OS361AC55029948
Wavelength Start : 200
Wavelength End : 1025
Wavelength Unit : Wavelength(nm)
Spectrum Unit : Reflectance(%)
-----------Spectrum Setting ------------
Integration Time : 20ms
Average : 10
Boxcar : 0
Background removal :  enabled
linearity correction :  enabled
SC :  disabled
Intensity correction :  disabled
DWT denoise :  enabled
savitzky-golay :  disabled
FFT :  disabled
Running average :  disabled
Kalman :  disabled
High pass :  disabled
---------------BEGIN--------------------
Wavelength(nm)             Reflectance(%)
200.29               0
200.75        60.05837
201.21        95.90195
201.67       -2119.232
202.13       -45.30754
202.58       -12.40032
203.04      0.01204328
203.50         7.01955
203.96        12.38604
204.42        19.29913
204.88        38.73458
205.34       -597.2715
205.80       -46.09535
206.26       -42.73404
206.72       -8081.206
207.18        26.33156
207.64        22.09386
208.10        35.38031
208.55        92.24644
209.01        651.1818
209.47        925.7817
209.93        127.6675
210.39        46.40571
210.85        24.49685
211.31        18.57626
211.77        19.52887
212.23        27.29943
212.69        51.63312
213.14        77.04937
213.60        50.25417
214.06        30.38248
214.52        21.91752
214.98        18.31236
215.44         16.5647
215.90        14.33662
216.36        4.698821
216.81       -4.785903
217.27        -30.4705
217.73       -105.6018
218.19       -535.6038
218.65       -12449.24
219.11        -956.084
219.57       -256.9446
220.02       -144.4344
220.48       -241.5847
220.94        289.3419
221.40        95.94119
221.86        68.30422
222.32        61.97195
222.77        63.45964
223.23        72.02959
223.69        88.23718
224.15           100.7
224.61         98.4901
225.06        88.95909
225.52        83.07155
225.98        86.08745
226.44        97.92278
226.90        117.8182
227.36        142.5343
227.81        157.1368
228.27        152.4301
228.73        136.8304
229.19        119.4605
229.65        107.0227
230.10        99.44342
230.56        94.93536
231.02        92.19447
231.48        90.41528
231.93        89.13412
232.39        88.79984
232.85         88.9278
233.31        88.99349
233.77        88.84182
234.22        88.31575
234.68        87.86987
235.14         88.3663
235.60        89.97626
236.05        92.74787
236.51        95.27704
236.97        95.16711
237.43        91.95757
237.88         86.7143
238.34        81.72321
238.80        79.60159
239.26        81.05336
239.71        87.79198
240.17        99.78688
240.63        112.7524
241.08        116.6694
241.54        107.9323
242.00         95.3592
242.46        89.23763
242.91        91.19223
243.37        100.6763
243.83        118.9425
244.28        132.9523
244.74        118.2994
245.20        82.34784
245.66        47.70756
246.11        28.50573
246.57        22.55714
247.03        24.23916
247.48        27.53077
247.94        26.23785
248.40        19.92792
248.85        9.795045
249.31       0.1194755
249.77      -0.1105411
250.22        9.277366
250.68        22.03821
251.14        33.45861
251.59        41.39639
252.05         47.3107
252.51        53.32943
252.96        61.34661
253.42         72.3928
253.88        83.21404
254.33        89.64323
254.79         90.9183
255.25        87.83737
255.70        83.20417
256.16        79.65608
256.62        77.42971
257.07        76.67188
257.53        77.35314
257.99         78.3326
258.44        79.10389
258.90        79.78832
259.35        79.75182
259.81        79.70858
260.27         79.0265
260.72        77.10223
261.18        74.77146
261.63        72.13784
262.09        70.15704
262.55        69.28326
263.00        69.27391
263.46        69.86338
263.91        70.48736
264.37        70.75496
264.83        70.46925
265.28        69.80704
265.74        68.91587
266.19        67.62077
266.65        66.15205
267.11        64.46884
267.56        62.87695
268.02        61.95365
268.47        61.68364
268.93         61.9521
269.38        62.32646
269.84        62.06151
270.30        61.03605
270.75        59.50412
271.21        57.99511
271.66        57.13429
272.12        57.03421
272.57        57.36562
273.03         57.7808
273.48        57.74925
273.94         57.1397
274.39        56.15552
274.85        54.91612
275.31        53.43813
275.76        51.81583
276.22        50.16986
276.67        48.72059
277.13        47.94249
277.58         47.7432
278.04        48.00599
278.49        48.29314
278.95        48.00024
279.40        46.98014
279.86        45.58474
280.31        44.09303
280.77        43.03373
281.22         42.3751
281.68        42.01081
282.13        41.71563
282.59        41.28504
283.04        40.63638
283.50        39.89931
283.95        39.15356
284.41        38.56573
284.86        38.13164
285.32         37.8267
285.77        37.53678
286.22         37.1796
286.68        36.75373
287.13         36.2616
287.59         35.7991
288.04        35.41792
288.50        35.15527
288.95        34.94979
289.41        34.76744
289.86        34.50246
290.32         34.1702
290.77        33.78648
291.22        33.42504
291.68        33.16971
292.13        33.02201
292.59        32.98199
293.04        33.00595
293.50        33.04827
293.95        33.08767
294.40        33.14376
294.86        33.26623
295.31        33.51474
295.77        33.89359
296.22        34.35744
296.68        34.83265
297.13        35.20163
297.58        35.42326
298.04        35.56305
298.49        35.63069
298.95        35.69054
299.40        35.75451
299.85        35.81449
300.31        35.96445
300.76        36.31516
301.21        36.87726
301.67        37.61274
302.12        38.32738
302.58        38.74657
303.03        38.80359
303.48        38.59992
303.94        38.36446
304.39        38.37235
304.84        38.69894
305.30        39.24076
305.75        39.81158
306.20        40.16017
306.66         40.2405
307.11        40.12545
307.57        39.94928
308.02        39.82853
308.47         39.8265
308.93        39.89961
309.38         40.0035
309.83        40.12244
310.29        40.23896
310.74        40.35028
311.19        40.44008
311.65        40.47163
312.10        40.42591
312.55        40.30879
313.00        40.13306
313.46         39.9286
313.91        39.69764
314.36        39.45642
314.82        39.22054
315.27        38.99791
315.72        38.80254
316.18        38.63593
316.63        38.50637
317.08          38.428
317.53        38.39643
317.99        38.39884
318.44        38.40685
318.89        38.35614
319.35        38.22944
319.80        38.03812
320.25         37.8208
320.70        37.64882
321.16        37.52898
321.61        37.44563
322.06        37.34748
322.51        37.15377
322.97        36.84925
323.42        36.48096
323.87        36.09669
324.32         35.7753
324.78        35.53878
325.23        35.37291
325.68        35.26413
326.13         35.1945
326.59        35.13586
327.04        35.11074
327.49        35.07819
327.94        34.98271
328.39        34.81124
328.85        34.56349
329.30        34.29502
329.75        34.06888
330.20        33.90911
330.66        33.78897
331.11        33.70599
331.56        33.60743
332.01         33.4792
332.46        33.33923
332.92        33.18093
333.37        33.03358
333.82         32.8909
334.27        32.74507
334.72        32.61113
335.17        32.51852
335.63        32.46069
336.08        32.44781
336.53        32.43795
336.98        32.37516
337.43        32.24674
337.88        32.07127
338.34        31.88121
338.79        31.73381
339.24        31.64949
339.69        31.62252
340.14        31.63462
340.59        31.65627
341.05        31.67348
341.50        31.68538
341.95        31.71481
342.40        31.80362
342.85         31.9488
343.30        32.13122
343.75        32.26929
344.20        32.23753
344.66        32.03021
345.11        31.69168
345.56        31.34334
346.01         31.1685
346.46        31.20867
346.91        31.40364
347.36        31.66692
347.81        31.85869
348.26        31.93438
348.72        31.93917
349.17        31.89123
349.62        31.82956
350.07        31.77106
350.52        31.69287
350.97        31.61286
351.42        31.56759
351.87        31.55831
352.32        31.57899
352.77        31.58896
353.22        31.51755
353.67        31.35696
354.13        31.14599
354.58        30.91957
355.03        30.75542
355.48        30.67682
355.93        30.66386
356.38        30.69822
356.83        30.75229
357.28        30.80592
357.73        30.85215
358.18        30.88296
358.63        30.88621
359.08        30.85426
359.53        30.78905
359.98        30.66376
360.43        30.44339
360.88        30.13291
361.33        29.74819
361.78        29.36757
362.23        29.10715
362.68        28.98876
363.13        28.98675
363.58         29.0046
364.03        28.88358
364.48        28.59495
364.93        28.19249
365.38        27.79018
365.83        27.56372
366.28        27.54777
366.73        27.67792
367.18         27.8486
367.63        27.89171
368.08         27.7569
368.53        27.49549
368.98        27.17682
369.43        26.90357
369.88        26.70697
370.33        26.55809
370.78        26.42191
371.23        26.24623
371.68        26.02316
372.13        25.78068
372.58        25.56482
373.03        25.43554
373.48        25.39914
373.93        25.42859
374.38        25.46681
374.83        25.42467
375.28        25.27707
375.72        25.04002
376.17        24.78272
376.62        24.56575
377.07        24.40544
377.52        24.28407
377.97        24.17296
378.42        24.03029
378.87        23.85108
379.32         23.6548
379.77        23.47723
380.22        23.36221
380.67        23.31337
381.11        23.32098
381.56        23.33069
382.01         23.2716
382.46         23.1306
382.91        22.93292
383.36          22.738
383.81        22.63206
384.26        22.62815
384.71        22.69543
385.15        22.76962
385.60        22.76706
386.05        22.65767
386.50        22.46749
386.95        22.24779
387.40        22.07508
387.85        21.97004
388.29        21.90444
388.74        21.85415
389.19        21.73235
389.64        21.52945
390.09        21.27467
390.54        21.04324
390.98         20.9331
391.43        20.96847
391.88        21.14068
392.33        21.35609
392.78        21.37609
393.23        21.23098
393.67        21.17535
394.12        21.21959
394.57        21.15656
395.02        20.98765
395.47        20.81808
395.91        20.68298
396.36        20.57907
396.81        20.53063
397.26        20.55087
397.71        20.57863
398.15        20.54367
398.60        20.46412
399.05        20.24107
399.50        19.98419
399.95        20.07853
400.39        20.44308
400.84        20.47294
401.29        20.16924
401.74        20.02758
402.18        20.06516
402.63        19.99899
403.08        19.87961
403.53        19.76145
403.97        19.93758
404.42        20.11265
404.87        20.29794
405.32        20.37455
405.76         20.3126
406.21        20.15467
406.66        19.95078
407.11        19.78576
407.55        19.68921
408.00        19.63287
408.45        19.59315
408.90         19.5241
409.34        19.41649
409.79         19.2962
410.24        19.19364
410.68        19.14294
411.13        19.15162
411.58        19.20247
412.03        19.26808
412.47        19.30647
412.92        19.29372
413.37        19.24035
413.81        19.16306
414.26        19.10839
414.71          19.075
415.15        19.06097
415.60        19.02662
416.05        18.93159
416.49        18.77507
416.94        18.58286
417.39        18.40747
417.83        18.31824
418.28        18.32681
418.73        18.40697
419.17        18.51687
419.62        18.57333
420.07        18.55466
420.51        18.48179
420.96        18.38531
421.41        18.29787
421.85        18.22273
422.30        18.15537
422.74        18.09195
423.19        18.08219
423.64        18.11116
424.08        18.14858
424.53        18.15596
424.98        18.14212
425.42        18.11202
425.87        18.00821
426.31        17.88025
426.76        17.91306
427.21        18.06717
427.65        18.07608
428.10        17.96203
428.54        17.94439
428.99        18.03379
429.44        18.20118
429.88        18.33855
430.33        18.17802
430.77        17.80808
431.22        17.63848
431.66        17.69907
432.11        17.82418
432.56        17.94391
433.00        18.01663
433.45        17.90891
433.89        17.74301
434.34        17.01013
434.78        17.01976
435.23        17.60094
435.67        17.78885
436.12        17.57052
436.57        17.47151
437.01        17.52924
437.46        17.52014
437.90        17.45113
438.35        17.39692
438.79        17.34959
439.24          17.282
439.68        17.19882
440.13        17.14673
440.57        17.13675
441.02        17.12259
441.46        17.08889
441.91        17.15461
442.35        17.25264
442.80        17.15013
443.24        16.91689
443.69        16.98462
444.13        17.29427
444.58        17.39718
445.02        17.26858
445.47        17.15731
445.91        17.10943
446.36        17.10039
446.80         17.1372
447.24        17.22688
447.69        17.32823
448.13        17.37409
448.58        17.35166
449.02        17.27559
449.47        17.18397
449.91         17.1278
450.36        17.12452
450.80        17.15175
451.25        17.18891
451.69        17.19785
452.13        17.17017
452.58        17.11995
453.02        17.06223
453.47        17.02726
453.91        17.02185
454.36        17.03646
454.80        17.05103
455.24        17.06095
455.69        17.06953
456.13        17.01989
456.58        16.93203
457.02        17.03522
457.46        17.05795
457.91        17.04868
458.35        16.93941
458.79        16.92785
459.24        16.99188
459.68        16.93248
460.13        16.79501
460.57        16.73279
461.01        16.76524
461.46        16.81269
461.90        16.84079
462.34        16.81644
462.79        16.72639
463.23        16.58048
463.68         16.4405
464.12        16.39159
464.56        16.44597
465.01        16.61894
465.45        16.80603
465.89        16.80784
466.34         16.6552
466.78        16.54981
467.22        16.53806
467.67        16.54986
468.11        16.59066
468.55         16.6512
468.99        16.71362
469.44        16.77304
469.88        16.82114
470.32        16.83129
470.77        16.81951
471.21        16.83916
471.65        16.89388
472.10        16.96297
472.54        17.02077
472.98        17.03942
473.42        17.01437
473.87        16.96708
474.31        16.90435
474.75        16.85098
475.20        16.82233
475.64        16.80394
476.08        16.80195
476.52        16.83817
476.97        16.91327
477.41        16.99591
477.85        17.05542
478.29        17.25573
478.74        17.19039
479.18        17.30863
479.62        17.47106
480.06        17.55572
480.50        17.55063
480.95           17.54
481.39        17.53958
481.83        17.53974
482.27        17.55586
482.72        17.66185
483.16        17.74383
483.60        17.82369
484.04        17.87135
484.48        17.84506
484.93        17.83757
485.37        18.03179
485.81        18.44312
486.25        18.65807
486.69        18.85704
487.14        18.74457
487.58        18.60214
488.02        18.37511
488.46        18.72383
488.90        18.72694
489.34        18.42001
489.79        18.48229
490.23         18.8431
490.67        19.14066
491.11        19.29979
491.55         19.3148
491.99        19.24336
492.43        19.29385
492.88        19.48761
493.32        19.68859
493.76        19.85166
494.20        19.98933
494.64        20.09444
495.08        20.16271
495.52        20.22119
495.96        20.32367
496.41        20.47758
496.85         20.6423
497.29        20.79861
497.73        20.96257
498.17        21.09926
498.61        21.13522
499.05        21.09226
499.49        21.02772
499.93        21.00567
500.37        21.15302
500.82        21.42006
501.26        21.57957
501.70        21.60539
502.14        21.62909
502.58        21.68003
503.02        21.74575
503.46        21.83365
503.90        21.94145
504.34        22.05101
504.78         22.1338
505.22        22.18206
505.66        22.20124
506.10        22.18776
506.54        22.18619
506.98         22.2138
507.42        22.17399
507.86        22.05709
508.30        22.32701
508.74        22.20687
509.18          22.321
509.62        22.42662
510.06        22.52852
510.50        22.61348
510.94         22.6885
511.38         22.7562
511.82        22.79964
512.26        22.82033
512.70        22.82423
513.14         22.8151
513.58        22.80145
514.02        22.78662
514.46         22.7649
514.90        22.75191
515.34        22.77073
515.78        22.82319
516.22         22.9079
516.66        22.98144
517.10        22.97429
517.54        22.87817
517.98        22.71396
518.42        22.55424
518.86        22.51472
519.30        22.61751
519.74        22.82661
520.18        23.05734
520.62        23.17064
521.06        23.13077
521.50        22.97917
521.93        22.78985
522.37        22.68478
522.81        22.69233
523.25        22.77125
523.69        22.86678
524.13        22.89346
524.57        22.83192
525.01        22.72041
525.45        22.59393
525.89        22.50405
526.32        22.46651
526.76        22.46144
527.20         22.4854
527.64        22.53733
528.08        22.60776
528.52        22.69688
528.96        22.77069
529.40        22.77456
529.83        22.69658
530.27        22.55536
530.71        22.39676
531.15        22.29733
531.59        22.27424
532.03        22.30908
532.46        22.35666
532.90        22.34262
533.34        22.25538
533.78        22.12817
534.22        22.00516
534.66        21.94918
535.09        21.96759
535.53        22.03391
535.97        22.12267
536.41        22.17836
536.85        22.18145
537.28        22.20934
537.72        22.24221
538.16        22.10821
538.60        21.88451
539.04        21.88303
539.47        22.07962
539.91          22.186
540.35        22.18815
540.79        22.26267
541.22        22.39548
541.66        22.49355
542.10        22.55158
542.54        22.56303
542.97        22.55926
543.41        22.67892
543.85        22.89259
544.29        23.01517
544.72        23.04315
545.16        23.13521
545.60        23.28882
546.04        23.41578
546.47        23.51762
546.91        23.63897
547.35        23.77967
547.79        23.93568
548.22        24.09514
548.66         24.2388
549.10        24.36986
549.53        24.54959
549.97        24.76446
550.41        24.92174
550.84        25.00519
551.28         25.0936
551.72        25.19143
552.15        25.13195
552.59        25.18435
553.03        25.15486
553.46        25.14313
553.90        25.21539
554.34        25.36886
554.77        25.55391
555.21         25.7499
555.65        25.94975
556.08        26.13266
556.52        26.29258
556.96          26.415
557.39        26.50443
557.83        26.57161
558.27        26.57855
558.70        26.55648
559.14         26.6211
559.57        26.75378
560.01        26.83682
560.45        26.86138
560.88        26.90811
561.32        26.98934
561.75        27.03624
562.19        27.07884
562.63         27.1362
563.06        27.20228
563.50        27.35868
563.93        27.54871
564.37        27.49599
564.80        27.28063
565.24         27.3737
565.68        27.72158
566.11        27.89212
566.55        27.87497
566.98         27.8926
567.42        27.96874
567.85        28.11826
568.29        28.15987
568.72        28.26414
569.16        28.40645
569.60        28.56338
570.03        28.71752
570.47        28.93031
570.90        29.18739
571.34        29.14238
571.77        29.65845
572.21        29.47015
572.64        29.64396
573.08        29.59693
573.51        29.88533
573.95        29.93499
574.38         29.9258
574.82        29.86776
575.25        30.48394
575.69        30.59878
576.12        30.52602
576.56        30.20479
576.99        30.17172
577.42         30.7365
577.86        30.65903
578.29        30.55538
578.73        30.59245
579.16        30.52881
579.60         30.4532
580.03         30.3741
580.47        30.28691
580.90        30.10202
581.33         29.9476
581.77        29.93044
582.20        30.36514
582.64        30.12958
583.07        30.09451
583.51        29.77721
583.94        29.53703
584.37        29.34422
584.81        29.29372
585.24         29.1547
585.68        29.44661
586.11        29.13622
586.54         29.3325
586.98        29.03975
587.41        28.78669
587.85         28.7458
588.28        28.95085
588.71        28.96042
589.15        28.73803
589.58        28.73852
590.01        28.65937
590.45        28.64882
590.88        28.62591
591.31        28.70246
591.75        28.84094
592.18        28.83081
592.61        28.71253
593.05        28.93103
593.48        29.31434
593.91        29.34519
594.35        29.15439
594.78        29.06754
595.21        29.16887
595.65         29.2586
596.08        29.26627
596.51         29.6746
596.94        29.60911
597.38        29.77649
597.81        29.90286
598.24        30.16487
598.68         30.2461
599.11        30.28611
599.54        31.12607
599.97        30.94482
600.41        31.25408
600.84        31.39162
601.27        31.73199
601.70        31.88875
602.14        32.14884
602.57        32.52197
603.00        33.01742
603.43        33.39307
603.87         33.6449
604.30        33.87052
604.73        34.09897
605.16        34.47786
605.60        34.49571
606.03        34.81676
606.46        35.24937
606.89         35.4259
607.32        36.01241
607.76         36.0409
608.19        36.48277
608.62        36.69467
609.05        36.90251
609.48        37.14484
609.92        37.54948
610.35        37.45793
610.78        38.47126
611.21        38.87513
611.64        38.95612
612.07         39.0523
612.50         39.1814
612.94        39.27363
613.37        39.35182
613.80        39.60662
614.23        39.80234
614.66        40.00336
615.09        40.19046
615.52        40.54135
615.96         40.9716
616.39        41.30338
616.82         41.5691
617.25        41.25395
617.68        41.80471
618.11        41.68456
618.54        41.43217
618.97        41.47604
619.40        41.86551
619.84        42.11139
620.27        42.43731
620.70        42.77943
621.13        43.13778
621.56        42.95731
621.99         42.5159
622.42        42.58031
622.85        43.09605
623.28        43.17015
623.71        42.75577
624.14        42.88652
624.57        42.59378
625.00        42.66573
625.43        42.71015
625.86        42.80245
626.29        42.84052
626.72        43.00709
627.15        42.87492
627.58        42.74487
628.01         42.4958
628.44        42.31635
628.87         42.2581
629.30        41.74777
629.73        41.60686
630.16         41.5695
630.59         41.1834
631.02        41.00277
631.45        40.83703
631.88        40.67168
632.31         40.4783
632.74        40.42319
633.17        40.19833
633.60        39.96439
634.03        39.63005
634.46        39.22194
634.89        38.77696
635.32        38.36006
635.75        37.99513
636.18         37.6676
636.61        37.36098
637.04        37.04647
637.47        36.71853
637.89        36.38235
638.32         36.0393
638.75        35.74924
639.18        35.52842
639.61        35.21949
640.04        35.07324
640.47        34.85426
640.90        34.63469
641.33        34.41323
641.76        34.21189
642.18        34.06716
642.61        33.97371
643.04        33.92883
643.47        33.90509
643.90        33.85728
644.33        33.77594
644.76        33.68216
645.18        33.61483
645.61        33.59153
646.04         33.6203
646.47        33.76651
646.90        34.03418
647.33        34.02447
647.75        34.36809
648.18        34.53451
648.61        34.72282
649.04        34.95891
649.47        35.23198
649.89         35.4727
650.32        35.66349
650.75        35.86021
651.18        36.08546
651.61        36.35691
652.03        36.69821
652.46        37.07154
652.89        37.38762
653.32        37.66494
653.74        38.08492
654.17        37.79204
654.60         37.9327
655.03        38.84616
655.46        38.96364
655.88        38.87794
656.31        41.27104
656.74        45.21982
657.16        43.00883
657.59        40.40927
658.02         41.0311
658.45        41.75989
658.87        41.94646
659.30        41.64354
659.73        41.79728
660.15        42.22293
660.58        42.02598
661.01         42.1735
661.44        42.30487
661.86        42.41029
662.29        42.49039
662.72         42.7988
663.14        43.26502
663.57        43.29766
664.00         43.0205
664.42        43.16334
664.85        43.72897
665.27        44.13885
665.70        44.32336
666.13        44.55412
666.55        44.81602
666.98        44.94671
667.41        44.98321
667.83        45.04916
668.26        45.16348
668.69        45.31497
669.11        45.45964
669.54        45.52034
669.96        45.49063
670.39        45.40516
670.82        45.37378
671.24        45.52835
671.67        45.88361
672.09        46.45144
672.52        47.09742
672.94        47.25499
673.37        47.42405
673.80        47.23022
674.22         46.9841
674.65         46.9056
675.07        47.06787
675.50        47.38425
675.92        47.76223
676.35        48.02869
676.77        48.13838
677.20        48.15632
677.62        48.14273
678.05        48.16442
678.47        48.23093
678.90        48.42711
679.32        48.60818
679.75        48.76619
680.17        48.82299
680.60        49.26758
681.02         49.1319
681.45         49.4436
681.87        49.40411
682.30         49.5004
682.72         49.5601
683.15        49.48261
683.57        49.33266
684.00        49.32794
684.42        49.48914
684.85        49.63293
685.27        49.74221
685.70        49.93089
686.12         50.1382
686.54        50.25874
686.97        50.26674
687.39        50.20543
687.82        50.09884
688.24        50.01942
688.66        49.99115
689.09        49.97798
689.51        50.00164
689.94        50.14868
690.36        50.43485
690.78        50.73373
691.21        50.92532
691.63        51.51065
692.06        51.17854
692.48        51.41168
692.90        51.77397
693.33         51.9397
693.75        51.90141
694.17        51.79253
694.60        51.69134
695.02        52.01923
695.44        52.05493
695.87         52.4597
696.29        52.90594
696.71        52.92793
697.14        52.81912
697.56        52.58004
697.98        52.72718
698.41        52.73713
698.83        52.71537
699.25        52.85802
699.68        53.12012
700.10        53.28765
700.52        53.28888
700.94        53.60441
701.37        53.48517
701.79        53.59499
702.21        53.71042
702.64        53.75661
703.06        53.85654
703.48        53.90686
703.90        53.96227
704.33        54.02533
704.75        54.10091
705.17        54.17728
705.59        54.25081
706.01        54.31437
706.44        54.40625
706.86        54.58664
707.28        54.83471
707.70        55.20216
708.12        55.58359
708.55        55.62973
708.97        55.39891
709.39        55.36835
709.81        55.55967
710.23        55.62831
710.66         55.5788
711.08        55.65145
711.50        55.83855
711.92        56.02792
712.34        56.20665
712.76        56.39746
713.19        56.56587
713.61        56.70176
714.03        56.77191
714.45        56.77607
714.87        56.72497
715.29        56.64163
715.71        56.53827
716.13        56.41793
716.56        56.28492
716.98        56.20342
717.40        56.17387
717.82        56.19968
718.24        56.27474
718.66         56.3845
719.08        56.51553
719.50        56.65391
719.92        56.80397
720.34        56.97563
720.76         57.1665
721.19        57.36428
721.61        57.52515
722.03        57.57872
722.45        57.54351
722.87        57.31097
723.29        56.98427
723.71        57.11512
724.13        57.74418
724.55         57.4638
724.97        57.98489
725.39         58.0274
725.81        58.09905
726.23        58.02293
726.65        57.88409
727.07        57.86612
727.49        57.98685
727.91         58.2058
728.33        58.47155
728.75        58.69981
729.17        58.85677
729.59        58.96828
730.01        59.05244
730.43        59.13324
730.85        59.22077
731.27        59.30371
731.69        59.37239
732.10        59.42208
732.52        59.44757
732.94        59.45076
733.36        59.43745
733.78        59.43746
734.20        59.47129
734.62        59.52738
735.04        59.54263
735.46        59.75971
735.88        59.43689
736.30        59.55306
736.72        59.97984
737.13        60.22086
737.55        60.21152
737.97        60.49269
738.39        60.95195
738.81        60.56137
739.23        59.61868
739.65         59.8515
740.06        61.00558
740.48        61.30334
740.90        60.65304
741.32        60.05046
741.74        59.71968
742.16        59.57511
742.57        59.70129
742.99        60.09119
743.41        60.61818
743.83        61.06335
744.25        61.34905
744.67        61.50886
745.08        61.58081
745.50        61.60231
745.92        61.60808
746.34        61.56474
746.75        61.47578
747.17        61.37621
747.59        61.28222
748.01        61.19799
748.42        61.13443
748.84        61.14367
749.26        61.20074
749.68        61.18027
750.09         61.1431
750.51         61.2776
750.93        61.59893
751.35        62.10044
751.76        62.64415
752.18        62.84959
752.60        62.66758
753.01        62.25679
753.43        61.80529
753.85        61.58397
754.27        61.66263
754.68        61.97182
755.10        62.40307
755.52        62.61243
755.93        62.84494
756.35        62.94534
756.77        62.92212
757.18        62.95556
757.60        63.14281
758.02        62.62737
758.43        61.87309
758.85        63.19672
759.26        64.05898
759.68        64.29222
760.10        63.42229
760.51        63.60934
760.93        63.35799
761.34        63.13541
761.76        63.51077
762.18        63.27226
762.59        62.86545
763.01        62.77698
763.42        63.08689
763.84        63.45169
764.26        63.73016
764.67        63.48027
765.09        62.93155
765.50        63.03763
765.92        63.70015
766.33         63.7503
766.75        63.07614
767.16        63.22599
767.58        62.74443
768.00        63.30542
768.41        64.27058
768.83        65.03085
769.24        65.28939
769.66        64.84422
770.07        63.96115
770.49        63.45983
770.90        63.44242
771.32        63.52992
771.73        63.64619
772.15        63.81474
772.56        64.02588
772.97        64.19355
773.39        64.31255
773.80        64.63995
774.22        65.03857
774.63        65.05501
775.05        64.70365
775.46        64.50122
775.88        64.47749
776.29        64.36865
776.70        64.21232
777.12        64.21436
777.53        64.39911
777.95        64.68153
778.36        64.96986
778.77        65.07556
779.19        64.98133
779.60        64.77977
780.02        64.53893
780.43        64.45671
780.84        64.60225
781.26        64.61851
781.67        64.61781
782.09        65.40475
782.50        66.65914
782.91        66.85478
783.33        65.99943
783.74        65.91126
784.15        65.86731
784.57        65.68649
784.98        65.22943
785.39        65.04691
785.81        65.18259
786.22        65.53136
786.63        65.95097
787.04        66.12781
787.46        66.04336
787.87        65.86568
788.28        65.73306
788.70        65.73541
789.11        65.89494
789.52        66.22979
789.93        66.60104
790.35        66.74997
790.76        66.65093
791.17         66.3567
791.58        66.02924
792.00        65.97379
792.41         66.2325
792.82         66.5566
793.23        66.85437
793.65        67.09869
794.06        67.28891
794.47        67.42203
794.88        67.40816
795.29        67.40479
795.71        66.92066
796.12        66.38554
796.53        65.85212
796.94        65.77792
797.35        66.20145
797.76        66.78561
798.18        67.30779
798.59        67.67347
799.00        67.76299
799.41        67.51875
799.82        67.10265
800.23        66.86143
800.64         66.8765
801.06        67.00999
801.47        67.22906
801.88        67.36707
802.29        67.36364
802.70        67.27377
803.11        67.14645
803.52         67.0419
803.93        66.99296
804.34        66.99096
804.75        67.00048
805.17        66.99471
805.58        66.99532
805.99         66.8943
806.40        66.78683
806.81        67.04697
807.22        67.56434
807.63        67.79835
808.04        67.70279
808.45        67.62254
808.86        67.56049
809.27         67.2743
809.68        66.86032
810.09        66.63437
810.50         66.6582
810.91         66.8457
811.32        67.12576
811.73        67.36376
812.14          67.507
812.55        67.62517
812.96        67.71481
813.37        67.70078
813.78        67.62261
814.19        67.61639
814.60        67.69112
815.01        67.74834
815.42        67.79015
815.83        67.89223
816.24        68.03609
816.65        68.13107
817.05         68.1602
817.46        68.12145
817.87        68.06088
818.28        67.99825
818.69        67.94812
819.10        67.90288
819.51        67.88911
819.92        67.96021
820.33         68.1134
820.74         68.3028
821.14        68.47483
821.55        68.59711
821.96        68.62911
822.37        68.54247
822.78        68.34602
823.19        68.11768
823.60        67.89881
824.00        67.68169
824.41         67.5178
824.82        67.58125
825.23         67.8906
825.64        68.38689
826.04        68.98574
826.45        69.44133
826.86        69.70065
827.27        69.81313
827.68         69.7783
828.08        69.63271
828.49        69.37373
828.90        69.01691
829.31        68.69293
829.72        68.61776
830.12        68.86385
830.53         69.3323
830.94        69.86771
831.35        70.13262
831.75         70.0423
832.16        69.63786
832.57        69.11486
832.97        68.76405
833.38        68.67524
833.79        68.76894
834.20        68.93065
834.60        68.97413
835.01         68.8736
835.42        68.70148
835.82        68.56847
836.23        68.59868
836.64        68.83714
837.04        69.24232
837.45        69.67607
837.86         70.0313
838.26        70.25725
838.67        70.33598
839.08        70.27601
839.48        70.07442
839.89        69.75311
840.29        69.30495
840.70         68.8326
841.11        68.42643
841.51         68.1433
841.92        67.99667
842.33         67.9388
842.73        67.88105
843.14        67.76547
843.54        67.62209
843.95        67.60683
844.35        68.00896
844.76        68.81001
845.17        69.91897
845.57        71.00883
845.98        71.38207
846.38        70.92716
846.79        69.85865
847.19        68.57879
847.60         67.7353
848.00        67.49341
848.41        67.65326
848.81        68.08476
849.22        68.45723
849.62        68.69194
850.03        68.83608
850.43        68.89893
850.84        68.76353
851.24        68.48565
851.65        68.06911
852.05         67.6426
852.46        67.42754
852.86        67.44707
853.27        67.64975
853.67        67.95988
854.07        68.45844
854.48        69.06947
854.88        69.85804
855.29        70.48494
855.69        70.52502
856.10        69.78123
856.50         68.4879
856.90         67.1041
857.31        66.34431
857.71        66.40639
858.12        67.06203
858.52        68.08309
858.92        68.82925
859.33         69.0486
859.73        68.95813
860.13          68.664
860.54        68.37184
860.94        68.19565
861.34        68.00806
861.75        67.81759
862.15        67.76598
862.55        67.82164
862.96         67.9989
863.36        68.15542
863.76        68.04547
864.17        67.62694
864.57        67.01332
864.97        66.37227
865.38        65.95869
865.78         65.8833
866.18         66.0394
866.58        66.36079
866.99        66.72472
867.39        67.07273
867.79        67.40398
868.19        67.64384
868.60        67.66142
869.00        67.45788
869.40        67.07682
869.80        66.62849
870.21        66.32868
870.61        66.28378
871.01        66.41666
871.41         66.6881
871.81        67.02969
872.22        67.38581
872.62         67.8232
873.02        68.28198
873.42        68.63315
873.82        68.82903
874.22        68.87804
874.63        68.88568
875.03        69.00183
875.43        69.26143
875.83        69.59121
876.23        69.90549
876.63        70.04704
877.03         69.9897
877.44        69.85282
877.84        69.61159
878.24        69.24876
878.64        68.79835
879.04        68.22431
879.44        67.79386
879.84        67.90277
880.24        68.56002
880.64        69.66598
881.04        70.67242
881.44        70.60313
881.84        69.29991
882.24        67.17432
882.65         65.0304
883.05        63.90329
883.45        64.05697
883.85        65.18616
884.25        66.83946
884.65        68.16512
885.05        68.80653
885.45        68.96643
885.85        68.86075
886.25        68.83755
886.65        68.99806
887.05        69.18502
887.45        69.26163
887.85        69.05784
888.25        68.55362
888.65        67.87456
889.04        67.19296
889.44        66.76554
889.84        66.64777
890.24        66.79487
890.64        67.08372
891.04        67.30647
891.44        67.39966
891.84        67.40625
892.24        67.45259
892.64        67.73627
893.04        68.29488
893.44        69.06793
893.83        69.87669
894.23        70.34394
894.63        70.40261
895.03        70.10908
895.43        69.73998
895.83        69.73885
896.23        70.18983
896.63         70.9735
897.02         71.6991
897.42        71.73537
897.82        70.98457
898.22        69.67392
898.62        68.32155
899.01        67.63927
899.41        67.78461
899.81        68.57984
900.21        69.56171
900.61        69.86053
901.00        69.24547
901.40        68.08501
901.80        66.96826
902.20        66.70531
902.59        67.46328
902.99        68.93846
903.39        70.68317
903.79         71.7298
904.18         71.7044
904.58         70.9519
904.98        69.91219
905.38        69.18549
905.77        68.92104
906.17        68.94032
906.57        69.12436
906.96        69.33706
907.36        69.46069
907.76         69.5815
908.15        69.69287
908.55        69.66903
908.95        69.52935
909.34        69.28965
909.74        69.00439
910.14        68.73465
910.53        68.51527
910.93        68.35779
911.33        68.33472
911.72         68.5688
912.12         69.0513
912.52        69.72062
912.91        70.42896
913.31        70.91644
913.70        71.12861
914.10        71.06067
914.49        70.82941
914.89        70.56934
915.29        70.37794
915.68        70.25777
916.08        70.16177
916.47        69.95687
916.87        69.66176
917.26        69.26563
917.66         69.0069
918.05        69.22408
918.45        69.92054
918.84        71.06073
919.24        72.10365
919.64        72.20917
920.03        71.20717
920.42        69.38681
920.82        67.54518
921.21        66.65237
921.61        66.89455
922.00         68.0465
922.40        69.50175
922.79        70.24834
923.19        69.93755
923.58        68.92513
923.98        67.82452
924.37        67.49361
924.77        68.12774
925.16         69.4575
925.55        71.01284
925.95        71.94197
926.34        71.99323
926.74        71.41022
927.13         70.5552
927.52        69.96915
927.92        69.80624
928.31        69.87134
928.70        70.02092
929.10        70.01417
929.49         69.8063
929.89        69.54624
930.28        69.30051
930.67        69.10002
931.07        68.97251
931.46        68.88913
931.85        68.98652
932.24        69.52934
932.64        70.49205
933.03        71.83103
933.42         73.1319
933.82        73.72373
934.21        73.47085
934.60        72.55341
934.99        71.41627
935.39        70.71779
935.78         70.6291
936.17        70.96383
936.56        71.47573
936.96        71.74852
937.35        71.68789
937.74        71.41418
938.13        71.00682
938.53        70.56758
938.92        70.14874
939.31        69.78407
939.70        69.53164
940.09         69.5036
940.49        69.65507
940.88        69.92728
941.27        70.35229
941.66        70.99229
942.05        71.76727
942.44        72.65446
942.84        73.14822
943.23        72.42946
943.62        70.52943
944.01        67.90904
944.40        65.47546
944.79        64.35921
945.18        64.71915
945.57        66.25497
945.97         68.3574
946.36          70.028
946.75         70.6681
947.14        70.56842
947.53        70.09782
947.92        69.89926
948.31        70.16599
948.70        70.58389
949.09        71.07322
949.48        71.55917
949.87        71.96049
950.26        72.38773
950.65        72.59203
951.04        72.12899
951.43        70.99394
951.82        69.34933
952.21        67.74256
952.60        67.00233
952.99          67.283
953.38        68.35861
953.77        69.67687
954.16        70.26842
954.55        69.84774
954.94        68.68425
955.33        67.28423
955.72        66.48399
956.11        66.52863
956.50        67.17606
956.89        68.03703
957.28        68.48116
957.66        68.34809
958.05         67.8433
958.44         67.3191
958.83        67.31316
959.22         67.9445
959.61        68.98922
960.00        70.11964
960.39        70.78698
960.78        70.80996
961.16        70.38076
961.55        69.68594
961.94        69.00094
962.33        68.45956
962.72        67.98654
963.11         67.6874
963.49        67.75536
963.88        68.16171
964.27        68.90398
964.66        69.74191
965.04        70.27125
965.43        70.31553
965.82        69.96632
966.21        69.46881
966.60        69.25806
966.98        69.46622
967.37        69.96754
967.76        70.49445
968.15        70.58615
968.53        70.16736
968.92        69.35052
969.31        68.53409
969.69         68.3604
970.08         68.9322
970.47         70.0277
970.86        71.21706
971.24        71.81213
971.63         71.6423
972.02        71.00871
972.40        70.19125
972.79        69.62618
973.17        69.57151
973.56        69.77423
973.95        70.39153
974.33        71.71016
974.72        73.61846
975.11        76.10525
975.49        78.60219
975.88        79.73468
976.26        79.08522
976.65        76.97497
977.04        74.19145
977.42        71.81556
977.81        70.18784
978.19        69.01868
978.58        68.20287
978.96        67.36359
979.35        66.43017
979.74        65.53477
980.12        64.83243
980.51        64.41073
980.89        64.38406
981.28        64.69901
981.66        65.20145
982.05        65.57784
982.43        65.76377
982.82        65.76208
983.20        65.95594
983.59        66.97447
983.97        68.98887
984.35        71.82743
984.74        74.59294
985.12        75.91264
985.51          75.215
985.89        73.03742
986.28        70.47565
986.66        68.76493
987.04        68.30257
987.43         68.6413
987.81        69.47989
988.20        70.07135
988.58        70.20181
988.96        70.17726
989.35        69.90637
989.73        69.33434
990.12        68.49242
990.50        67.30507
990.88        66.30573
991.27        66.32597
991.65        67.51788
992.03        69.83884
992.42        72.27679
992.80        73.06445
993.18        71.46723
993.56        68.27167
993.95        65.15237
994.33        63.74429
994.71         64.4361
995.10        66.70539
995.48        69.80627
995.86        71.56631
996.24          71.096
996.63        69.17652
997.01        66.98423
997.39         66.0869
997.77        66.84394
998.15        68.68144
998.54        71.10712
998.92        73.28212
999.30        74.76523
999.68        75.84737
1000.06        76.30196
1000.45        75.73479
1000.83        74.36964
1001.21        72.23095
1001.59        70.08649
1001.97        68.99265
1002.35        69.10733
1002.73        70.24828
1003.12        71.74787
1003.50         72.4342
1003.88        71.88506
1004.26        70.47208
1004.64        68.87324
1005.02        68.19643
1005.40        68.66771
1005.78        69.80706
1006.16        71.10794
1006.54        71.74332
1006.92        71.42517
1007.30        70.51788
1007.69        68.96306
1008.07        66.87433
1008.45        64.64178
1008.83         62.4053
1009.21        60.90685
1009.59         60.9365
1009.97        62.50482
1010.35        65.61679
1010.73        69.37823
1011.11        71.45676
1011.49        70.77319
1011.86        67.63242
1012.24        63.97358
1012.62        62.82455
1013.00        65.06194
1013.38        70.38805
1013.76        76.89371
1014.14        79.29486
1014.52        76.05859
1014.90        70.05019
1015.28        64.54974
1015.66        62.38926
1016.04        63.72209
1016.41        67.87756
1016.79        74.06161
1017.17        80.39209
1017.55        85.01179
1017.93        88.21082
1018.31        88.75127
1018.69        85.30249
1019.06        78.88354
1019.44        71.36761
1019.82        65.20667
1020.20        62.30956
1020.58        62.36748
1020.95        64.96852
1021.33        69.05928
1021.71        71.75722
1022.09        71.62669
1022.46        69.15276
1022.84        66.41657
1023.22        66.08449
1023.60        68.89821
1023.97        74.97154
1024.35        82.16046
1024.73        83.63055
