SpectraSmart Spectrum 2.9.0.0
--------- Device Information -----------
Spectrum Name :  反射率_0
Saving Time :  2024/05/03 20:46:08
Spectro-Module Model Name : SE2030-DUVN
Spectro-Module Serial Number : OS361AC55029948
Wavelength Start : 200
Wavelength End : 1025
Wavelength Unit : Wavelength(nm)
Spectrum Unit : Reflectance(%)
-----------Spectrum Setting ------------
Integration Time : 20ms
Average : 10
Boxcar : 0
Background removal :  enabled
linearity correction :  enabled
SC :  disabled
Intensity correction :  disabled
DWT denoise :  enabled
savitzky-golay :  disabled
FFT :  disabled
Running average :  disabled
Kalman :  disabled
High pass :  disabled
---------------BEGIN--------------------
Wavelength(nm)             Reflectance(%)
200.29               0
200.75        75.14032
201.21        132.4387
201.67        -3807.25
202.13       -118.6518
202.58       -57.74625
203.04       -34.50708
203.50       -24.57676
203.96       -26.79101
204.42       -45.76559
204.88       -128.0617
205.34        2869.122
205.80        285.1471
206.26        289.3597
206.72        51417.31
207.18       -121.8787
207.64       -63.99689
208.10       -77.79011
208.55       -180.4958
209.01       -1233.378
209.47       -1628.767
209.93       -191.0103
210.39       -50.46318
210.85        -12.6676
211.31       0.6404868
211.77        5.905821
212.23        7.512114
212.69        3.898725
213.14       -4.474306
213.60       -5.615471
214.06       -2.728402
214.52       -2.380212
214.98       -6.384262
215.44       -18.09456
215.90       -63.74694
216.36        530.3074
216.81        92.01107
217.27        53.80023
217.73        13.37352
218.19       -165.1199
218.65       -4906.403
219.11       -306.1415
219.57       -29.72326
220.02        27.64291
220.48        72.15353
220.94       -34.03773
221.40        11.71669
221.86        20.21286
222.32         23.2569
222.77        24.61486
223.23        26.13892
223.69        28.03406
224.15        28.68402
224.61        27.58606
225.06        26.00042
225.52        25.61997
225.98        27.44631
226.44        31.69214
226.90         38.4002
227.36        47.73722
227.81        56.78454
228.27        61.64104
228.73        62.87314
229.19        60.85413
229.65        56.19927
230.10         50.2145
230.56        44.13482
231.02        39.31253
231.48        37.33126
231.93        37.88113
232.39        40.13437
232.85        43.00364
233.31         45.0562
233.77        45.93329
234.22        45.95789
234.68        45.70574
235.14        46.12824
235.60        47.49317
236.05        49.62433
236.51        51.56843
236.97        51.67202
237.43        49.59139
237.88        46.26741
238.34        43.19086
238.80        41.88545
239.26        42.77379
239.71        48.23438
240.17         56.3382
240.63        67.13845
241.08        73.18101
241.54        70.98354
242.00            64.8
242.46        61.41351
242.91        62.33677
243.37        66.61104
243.83        74.18757
244.28        77.38067
244.74          64.436
245.20        40.96333
245.66        20.84456
246.11        11.07981
246.57        9.482675
247.03        13.00478
247.48        15.62756
247.94        10.63518
248.40       -1.909804
248.85        -20.9403
249.31        -39.5599
249.77       -41.90467
250.22        -27.2904
250.68       -6.523613
251.14        11.89969
251.59        23.22888
252.05        29.06023
252.51        32.11536
252.96        33.84314
253.42         37.5477
253.88        44.16438
254.33        50.28004
254.79        54.53082
255.25        56.43233
255.70         56.7112
256.16        56.80024
256.62        57.14318
257.07        58.07558
257.53        59.72313
257.99        61.37262
258.44        62.23976
258.90        62.00981
259.35        60.47549
259.81        58.62539
260.27        56.65575
260.72        54.79195
261.18        53.46657
261.63        52.36287
262.09        51.65089
262.55        51.14769
263.00        50.70745
263.46        50.37261
263.91        50.08865
264.37        50.06402
264.83        50.18966
265.28        50.35424
265.74        50.35183
266.19        49.66022
266.65         48.4095
267.11        46.74807
267.56        45.09283
268.02        44.12437
268.47        43.88568
268.93        44.18127
269.38        44.62573
269.84          44.561
270.30        43.84948
270.75        42.72953
271.21        41.56464
271.66        40.76007
272.12        40.41361
272.57        40.31047
273.03        40.30239
273.48        40.19231
273.94        39.91888
274.39        39.56491
274.85        39.10733
275.31        38.39235
275.76        37.44068
276.22        36.37911
276.67        35.41133
277.13        34.94859
277.58        34.93546
278.04        35.25409
278.49        35.55862
278.95        35.37346
279.40        34.58714
279.86        33.49719
280.31        32.31784
280.77        31.44271
281.22        30.86104
281.68        30.49764
282.13        30.23339
282.59        29.98419
283.04        29.69308
283.50        29.42548
283.95        29.16886
284.41        28.93442
284.86        28.70335
285.32        28.49086
285.77        28.27593
286.22        28.10353
286.68        27.98479
287.13        27.87114
287.59        27.78089
288.04        27.67762
288.50        27.57952
288.95        27.48314
289.41         27.3774
289.86        27.19593
290.32        26.96875
290.77        26.69746
291.22        26.49478
291.68        26.51092
292.13        26.75091
292.59        27.19292
293.04         27.6918
293.50        28.02624
293.95        28.13826
294.40        28.10126
294.86        28.08874
295.31         28.3544
295.77         28.9514
296.22        29.79027
296.68        30.70058
297.13        31.39481
297.58        31.78403
298.04        31.98083
298.49        32.10001
298.95        32.35793
299.40        32.79383
299.85        33.33964
300.31        33.97054
300.76        34.62149
301.21        35.26926
301.67        35.93993
302.12        36.56007
302.58        37.03587
303.03        37.33932
303.48        37.50616
303.94        37.66575
304.39        37.95409
304.84         38.4212
305.30        39.01833
305.75        39.62548
306.20        40.08931
306.66        40.38097
307.11        40.52338
307.57        40.60849
308.02        40.69666
308.47        40.83381
308.93        41.00024
309.38        41.15056
309.83        41.26562
310.29        41.33849
310.74        41.37066
311.19        41.38313
311.65        41.39943
312.10        41.41264
312.55        41.41363
313.00        41.37596
313.46        41.26525
313.91        41.06765
314.36        40.81844
314.82         40.5592
315.27           40.34
315.72         40.1854
316.18         40.0788
316.63        40.01163
317.08        39.97519
317.53        39.95537
317.99        39.94504
318.44        39.92174
318.89         39.8276
319.35        39.65256
319.80         39.4151
320.25        39.14965
320.70        38.91973
321.16        38.73573
321.61        38.58496
322.06        38.44711
322.51        38.29284
322.97        38.10541
323.42        37.90166
323.87        37.67026
324.32        37.39636
324.78        37.07868
325.23        36.73897
325.68        36.39367
326.13        36.07718
326.59        35.79498
327.04        35.56437
327.49        35.38687
327.94        35.27428
328.39        35.21938
328.85        35.20065
329.30        35.20073
329.75         35.1506
330.20        35.02881
330.66        34.83498
331.11        34.60172
331.56        34.34527
332.01        34.08279
332.46        33.81466
332.92        33.55002
333.37        33.34443
333.82        33.19663
334.27        33.10496
334.72        33.05567
335.17        33.01819
335.63        32.96794
336.08        32.92401
336.53        32.87119
336.98        32.80496
337.43         32.7215
337.88        32.61471
338.34        32.48569
338.79        32.34529
339.24        32.19973
339.69        32.06071
340.14        31.92758
340.59        31.79593
341.05        31.67063
341.50        31.55798
341.95        31.48616
342.40         31.5035
342.85        31.60899
343.30        31.77642
343.75        31.94213
344.20        32.00674
344.66        31.95362
345.11        31.80763
345.56        31.61948
346.01        31.46634
346.46        31.37755
346.91        31.33373
347.36         31.3313
347.81        31.36491
348.26         31.4235
348.72        31.50667
349.17        31.58928
349.62        31.63625
350.07        31.63734
350.52        31.60081
350.97        31.52637
351.42        31.42082
351.87        31.28974
352.32        31.12547
352.77        30.96003
353.22        30.84594
353.67        30.78875
354.13        30.78448
354.58         30.7597
355.03         30.6194
355.48        30.35784
355.93        30.02418
356.38        29.69632
356.83        29.49664
357.28        29.45127
357.73        29.50537
358.18        29.62349
358.63        29.74777
359.08        29.84088
359.53        29.91604
359.98        29.91166
360.43        29.73526
360.88        29.38487
361.33        28.89004
361.78        28.37434
362.23        28.03092
362.68        27.90415
363.13        27.95041
363.58        28.05023
364.03        28.00557
364.48        27.76942
364.93        27.40002
365.38        27.01942
365.83        26.81405
366.28        26.82202
366.73        26.98106
367.18        27.15833
367.63        27.14493
368.08        26.89207
368.53        26.46687
368.98        26.01248
369.43        25.74336
369.88        25.70724
370.33        25.84172
370.78        26.01031
371.23        25.98483
371.68        25.70918
372.13        25.26085
372.58         24.7879
373.03         24.5117
373.48        24.48036
373.93        24.62033
374.38        24.80345
374.83        24.81974
375.28        24.61472
375.72         24.2564
376.17        23.87245
376.62        23.60488
377.07         23.4871
377.52        23.46383
377.97        23.47931
378.42        23.44883
378.87        23.34849
379.32        23.21603
379.77        23.07435
380.22        22.94873
380.67        22.84499
381.11        22.74921
381.56        22.65655
382.01        22.58377
382.46        22.53223
382.91        22.50302
383.36        22.46885
383.81        22.38474
384.26        22.24477
384.71        22.06224
385.15        21.87351
385.60        21.75689
386.05        21.72032
386.50        21.73607
386.95        21.76217
387.40        21.73385
387.85        21.63902
388.29        21.49644
388.74        21.34734
389.19        21.19944
389.64        21.06057
390.09        20.92114
390.54        20.80726
390.98        20.74266
391.43        20.73584
391.88        20.81312
392.33        20.91643
392.78         20.8578
393.23        20.68154
393.67        20.61979
394.12        20.67763
394.57        20.64766
395.02        20.52612
395.47        20.41948
395.91        20.35126
396.36        20.29599
396.81        20.27242
397.26        20.29814
397.71        20.32597
398.15        20.30951
398.60        20.26967
399.05        20.09656
399.50        19.89065
399.95        20.02594
400.39        20.41845
400.84        20.46677
401.29        20.16406
401.74        19.99407
402.18        19.97311
402.63        19.82363
403.08        19.61244
403.53        19.42029
403.97         19.5442
404.42        19.69072
404.87        19.86365
405.32         19.9313
405.76        19.86073
406.21        19.69992
406.66        19.50114
407.11        19.35218
407.55        19.28283
408.00        19.25982
408.45        19.25879
408.90        19.23448
409.34        19.17097
409.79        19.08633
410.24        19.00236
410.68        18.94241
411.13        18.91287
411.58        18.90435
412.03        18.89177
412.47        18.83928
412.92        18.73866
413.37        18.61139
413.81        18.49438
414.26        18.45863
414.71        18.50462
415.15        18.61909
415.60        18.74821
416.05         18.8167
416.49         18.7995
416.94        18.72294
417.39        18.62397
417.83        18.55693
418.28        18.53736
418.73        18.54122
419.17        18.56216
419.62        18.58131
420.07        18.59209
420.51        18.59811
420.96        18.59005
421.41        18.53663
421.85        18.43105
422.30        18.29654
422.74        18.15736
423.19        18.10294
423.64        18.12952
424.08        18.19164
424.53        18.24921
424.98        18.30782
425.42        18.36541
425.87        18.36483
426.31        18.33324
426.76        18.42538
427.21         18.5936
427.65        18.56681
428.10        18.39965
428.54        18.37026
428.99        18.50133
429.44        18.75169
429.88        18.97286
430.33        18.83048
430.77        18.40854
431.22        18.15096
431.66        18.13267
432.11         18.2473
432.56        18.43957
433.00         18.6763
433.45        18.75886
433.89         18.6295
434.34         17.7609
434.78        17.70914
435.23        18.31526
435.67        18.49468
436.12        18.24634
436.57        18.17807
437.01        18.31043
437.46        18.34348
437.90        18.26987
438.35        18.18546
438.79         18.1039
439.24        18.02964
439.68        17.98182
440.13        18.00146
440.57        18.06601
441.02        18.11664
441.46        18.13496
441.91        18.12508
442.35        18.09057
442.80        18.16841
443.24          18.303
443.69        18.28519
444.13        18.13222
444.58        18.06513
445.02        18.09634
445.47        18.10385
445.91        18.08866
446.36        18.11909
446.80        18.18815
447.24        18.28043
447.69        18.36878
448.13        18.40883
448.58        18.39301
449.02         18.3301
449.47        18.25288
449.91        18.20098
450.36        18.19052
450.80        18.20761
451.25         18.2317
451.69        18.22139
452.13        18.17056
452.58        18.09405
453.02        18.01735
453.47        17.98841
453.91        18.01418
454.36        18.07645
454.80        18.13719
455.24        18.16491
455.69        18.15762
456.13        18.06584
456.58        17.92024
457.02         17.9782
457.46        17.95897
457.91        17.90879
458.35        17.76658
458.79        17.75441
459.24        17.84846
459.68        17.83707
460.13        17.74189
460.57        17.68562
461.01        17.68314
461.46        17.66086
461.90        17.61641
462.34        17.57057
462.79        17.52241
463.23        17.46682
463.68        17.43008
464.12        17.43822
464.56        17.48886
465.01        17.61858
465.45        17.75545
465.89         17.7443
466.34        17.62665
466.78        17.59664
467.22        17.66984
467.67        17.71249
468.11        17.71295
468.55        17.68056
468.99        17.63294
469.44        17.62063
469.88        17.64972
470.32        17.67759
470.77         17.6941
471.21        17.71032
471.65        17.72141
472.10        17.72626
472.54        17.72472
472.98        17.72662
473.42        17.73545
473.87        17.75503
474.31        17.77602
474.75        17.80187
475.20        17.83711
475.64        17.86835
476.08        17.89453
476.52         17.9395
476.97        18.00743
477.41        18.04552
477.85        18.02381
478.29        18.23974
478.74        18.08519
479.18        18.18276
479.62        18.33605
480.06        18.43091
480.50        18.45218
480.95        18.47993
481.39         18.5167
481.83        18.53995
482.27        18.56704
482.72        18.63055
483.16        18.71097
483.60        18.78981
484.04        18.87013
484.48        18.86178
484.93        18.88357
485.37        19.21903
485.81        19.80064
486.25        20.11167
486.69        20.05202
487.14        19.83806
487.58        20.11052
488.02        19.81308
488.46        20.15742
488.90        19.99237
489.34        19.97218
489.79         20.0132
490.23        20.21283
490.67        20.63792
491.11         21.1264
491.55         21.1351
491.99        20.75366
492.43        20.68552
492.88        20.97793
493.32         21.2226
493.76        21.36272
494.20        21.51525
494.64        21.67096
495.08        21.80172
495.52        21.91829
495.96         22.0478
496.41        22.19328
496.85        22.32052
497.29        22.44066
497.73         22.6246
498.17        22.84234
498.61        22.98772
499.05         23.0501
499.49        23.04665
499.93        23.03406
500.37        23.16332
500.82        23.40609
501.26        23.56066
501.70        23.61017
502.14        23.67946
502.58        23.78979
503.02        23.91101
503.46        24.04425
503.90        24.19707
504.34        24.33958
504.78        24.42214
505.22        24.43699
505.66        24.39463
506.10        24.32247
506.54        24.32033
506.98        24.41553
507.42        24.48596
507.86        24.48046
508.30         24.8488
508.74        24.71058
509.18        24.78056
509.62        24.82011
510.06        24.88593
510.50        24.97885
510.94        25.09033
511.38        25.20816
511.82         25.2892
512.26         25.3262
512.70        25.33554
513.14        25.32541
513.58        25.30922
514.02        25.29355
514.46        25.26998
514.90        25.25702
515.34        25.28416
515.78        25.35395
516.22        25.46349
516.66        25.56542
517.10        25.58277
517.54        25.50529
517.98        25.35624
518.42         25.2078
518.86        25.17636
519.30        25.28338
519.74        25.48863
520.18        25.71244
520.62        25.82454
521.06         25.7894
521.50        25.64778
521.93        25.45671
522.37        25.31168
522.81        25.23988
523.25        25.21202
523.69        25.20385
524.13        25.17726
524.57        25.12268
525.01        25.06298
525.45        25.00534
525.89        24.95612
526.32        24.91775
526.76        24.88406
527.20        24.86619
527.64        24.88725
528.08        24.94485
528.52        25.02887
528.96        25.10108
529.40        25.10168
529.83        25.01613
530.27        24.86883
530.71        24.70228
531.15        24.58559
531.59        24.53747
532.03         24.5433
532.46        24.56815
532.90         24.5558
533.34        24.49538
533.78        24.40822
534.22        24.32966
534.66        24.30966
535.09        24.35027
535.53         24.4324
535.97        24.51836
536.41        24.53164
536.85        24.45496
537.28        24.37903
537.72        24.32125
538.16        24.15775
538.60        23.97935
539.04        24.10325
539.47        24.45344
539.91        24.63003
540.35        24.59964
540.79        24.58835
541.22        24.61711
541.66        24.64374
542.10        24.68317
542.54        24.70712
542.97        24.74447
543.41        24.93986
543.85        25.25127
544.29        25.47591
544.72        25.58543
545.16        25.71734
545.60         25.8644
546.04        25.94054
546.47        25.97392
546.91           26.06
547.35         26.2122
547.79        26.41261
548.22         26.6382
548.66        26.85144
549.10        27.04955
549.53        27.30611
549.97        27.59381
550.41        27.80535
550.84        27.92333
551.28        28.00185
551.72        28.05569
552.15        28.09012
552.59        28.13349
553.03        28.17875
553.46        28.23453
553.90        28.34907
554.34        28.51158
554.77        28.68263
555.21        28.85689
555.65         29.0474
556.08         29.2405
556.52        29.42234
556.96         29.5757
557.39        29.70462
557.83        29.81713
558.27        29.86963
558.70        29.88747
559.14        29.98414
559.57        30.13551
560.01        30.21522
560.45        30.22016
560.88        30.25261
561.32        30.33102
561.75        30.37426
562.19        30.42196
562.63        30.50448
563.06        30.61393
563.50        30.83937
563.93        31.10044
564.37        31.05778
564.80        30.79716
565.24        30.85969
565.68        31.20309
566.11        31.37096
566.55        31.35983
566.98        31.41085
567.42        31.53608
567.85        31.73041
568.29        31.78284
568.72        31.89084
569.16         32.0295
569.60        32.20996
570.03         32.4229
570.47        32.68974
570.90         32.8988
571.34        33.06484
571.77        33.49773
572.21        33.27484
572.64        33.44633
573.08        33.38138
573.51        33.82571
573.95        33.89347
574.38        33.83343
574.82        33.63419
575.25        34.34382
575.69        34.43522
576.12        34.28123
576.56        34.09736
576.99        34.11741
577.42        34.61015
577.86        34.32845
578.29        34.64417
578.73        34.41196
579.16        34.39282
579.60        34.26037
580.03        34.23132
580.47        34.33331
580.90        33.94959
581.33        33.64375
581.77        34.14031
582.20        34.30637
582.64        33.90549
583.07        33.96846
583.51        33.59161
583.94        33.33732
584.37        33.08928
584.81        32.92715
585.24        32.91221
585.68        33.54767
586.11        32.80338
586.54         32.9428
586.98        32.51196
587.41        32.39804
587.85        32.65428
588.28        32.71469
588.71        32.79225
589.15        32.33245
589.58        32.70129
590.01        32.28996
590.45        32.15735
590.88        32.31496
591.31        32.48309
591.75        32.73355
592.18        32.62421
592.61         32.2094
593.05         32.6213
593.48        33.01474
593.91        32.87705
594.35        32.88703
594.78        32.88471
595.21        33.14473
595.65        33.15821
596.08        32.91182
596.51        33.49727
596.94        33.54754
597.38        33.77968
597.81        33.72748
598.24        34.09787
598.68        34.34911
599.11        34.05096
599.54         35.1367
599.97        35.01199
600.41        35.50764
600.84        35.71911
601.27        36.01546
601.70         36.2332
602.14        36.39774
602.57        36.74723
603.00        37.20959
603.43        37.55453
603.87        37.79973
604.30        38.02164
604.73        38.24747
605.16         38.8585
605.60        38.84159
606.03        39.25448
606.46        39.75143
606.89        39.75869
607.32        40.26899
607.76        40.29684
608.19        40.66954
608.62        40.94656
609.05         41.2447
609.48         41.4431
609.92        41.68825
610.35        41.63043
610.78         42.7145
611.21        43.19655
611.64         43.2252
612.07        43.33047
612.50        43.50657
612.94        43.59273
613.37        43.60497
613.80        43.93904
614.23        43.97923
614.66        44.21961
615.09        44.48297
615.52        44.72284
615.96        44.92026
616.39        45.11713
616.82        45.32834
617.25          45.275
617.68        45.73143
618.11         45.4353
618.54        44.87238
618.97        45.00191
619.40        45.78453
619.84        46.29082
620.27        46.38769
620.70        46.55626
621.13        46.78216
621.56        46.62359
621.99        46.24087
622.42         46.3952
622.85        46.97935
623.28        47.14208
623.71        46.84006
624.14        46.72234
624.57        46.57447
625.00        46.47496
625.43        46.45422
625.86         46.4598
626.29        46.49184
626.72        46.49247
627.15        46.44287
627.58        46.38426
628.01        46.30238
628.44        46.09577
628.87        45.81458
629.30        45.65922
629.73        45.60053
630.16        45.49894
630.59        45.19063
631.02        44.93016
631.45        44.70373
631.88        44.50504
632.31        44.33632
632.74        44.19434
633.17        44.04096
633.60        43.81118
634.03        43.49151
634.46        43.10394
634.89         42.6798
635.32        42.26976
635.75        41.89362
636.18        41.54103
636.61        41.21023
637.04        40.89851
637.47        40.60588
637.89        40.32927
638.32        40.04926
638.75        39.79786
639.18        39.58313
639.61        39.23852
640.04        39.06487
640.47        38.83306
640.90         38.6345
641.33        38.46397
641.76        38.32341
642.18        38.21619
642.61        38.12785
643.04        38.06214
643.47        38.02753
643.90        38.03744
644.33        38.08698
644.76        38.17316
645.18        38.27275
645.61        38.29866
646.04        38.24022
646.47        38.21414
646.90        38.28912
647.33        38.11841
647.75        38.44199
648.18         38.6512
648.61        38.94959
649.04        39.27838
649.47         39.6261
649.89        40.06181
650.32        40.50572
650.75        40.76049
651.18        40.88207
651.61        41.10027
652.03        41.44927
652.46          41.959
652.89        42.52105
653.32        42.68338
653.74        42.63618
654.17        42.88629
654.60        43.11787
655.03        43.98054
655.46        43.79328
655.88        44.20813
656.31        46.93224
656.74        51.93015
657.16        48.93333
657.59        45.73566
658.02        46.37859
658.45         47.2439
658.87        47.19464
659.30        46.58363
659.73        46.68483
660.15        47.50866
660.58        47.31233
661.01        47.43361
661.44        47.29512
661.86         47.3437
662.29        47.57077
662.72        47.95818
663.14        48.40707
663.57        48.37528
664.00        48.01118
664.42        48.10449
664.85        48.65082
665.27        49.00983
665.70        49.11398
666.13        49.23874
666.55        49.36323
666.98        49.54626
667.41        49.41969
667.83        49.47992
668.26        49.61737
668.69        49.81258
669.11        50.00491
669.54        50.07529
669.96        50.00485
670.39        49.90607
670.82        49.86537
671.24        49.80877
671.67        49.83633
672.09        50.35207
672.52        51.18954
672.94        51.37584
673.37        51.43464
673.80        51.15479
674.22        50.88973
674.65        50.81583
675.07        51.00896
675.50        51.38437
675.92        51.81956
676.35        52.07991
676.77        52.10975
677.20         52.0172
677.62        51.90953
678.05        51.77369
678.47        51.94427
678.90        52.12901
679.32        52.35433
679.75        52.56514
680.17        52.74006
680.60        52.83074
681.02        52.82972
681.45        53.04683
681.87        52.93576
682.30        52.97474
682.72        53.01234
683.15        52.98148
683.57        52.93946
684.00        53.10617
684.42        53.42273
684.85        53.59409
685.27          53.589
685.70        53.50314
686.12        53.38021
686.54        53.43134
686.97        53.59951
687.39        53.53381
687.82        53.24979
688.24        53.21511
688.66         53.2631
689.09        53.33866
689.51        53.37788
689.94        53.52531
690.36        53.79574
690.78        54.00394
691.21        54.06132
691.63        54.65707
692.06        54.36782
692.48        54.53913
692.90        54.73555
693.33        54.83337
693.75        54.82885
694.17        54.77033
694.60        54.71185
695.02        55.00028
695.44        54.90633
695.87        55.40952
696.29        56.08809
696.71        56.09227
697.14        55.49211
697.56        55.17908
697.98        55.25427
698.41        55.24492
698.83        55.15959
699.25        55.32738
699.68        55.66113
700.10        55.90607
700.52        55.99315
700.94        55.99871
701.37        55.95886
701.79        55.95461
702.21        55.99896
702.64        56.06155
703.06        56.11974
703.48        56.15027
703.90        56.15473
704.33        56.15361
704.75        56.17101
705.17        56.22733
705.59        56.32482
706.01        56.44403
706.44        56.58749
706.86        56.75653
707.28         56.9183
707.70        57.15151
708.12        57.39506
708.55        57.34599
708.97        57.08558
709.39        57.11616
709.81        57.41024
710.23        57.49948
710.66        57.36431
711.08        57.29568
711.50        57.33956
711.92        57.45418
712.34        57.64555
712.76        57.91576
713.19        58.18024
713.61        58.34644
714.03         58.3602
714.45         58.2494
714.87        58.07722
715.29        57.94483
715.71        57.88089
716.13        57.86105
716.56        57.84401
716.98        57.82284
717.40         57.7746
717.82         57.7162
718.24        57.67648
718.66        57.71756
719.08        57.83289
719.50        57.94473
719.92        58.04858
720.34        58.18396
720.76        58.34641
721.19         58.5051
721.61         58.6255
722.03        58.66335
722.45        58.63961
722.87        58.43061
723.29        58.12723
723.71        58.27176
724.13        58.89836
724.55         58.5771
724.97        59.05776
725.39        59.04413
725.81        59.06053
726.23        58.92895
726.65        58.73983
727.07        58.68489
727.49        58.78175
727.91        58.98516
728.33         59.2461
728.75        59.48035
729.17        59.65025
729.59        59.78939
730.01        59.89273
730.43        59.92947
730.85        59.91599
731.27        59.89564
731.69         59.8884
732.10        59.89866
732.52        59.93115
732.94        60.00018
733.36         60.0877
733.78        60.14241
734.20        60.16183
734.62        60.17897
735.04        60.19011
735.46         60.2025
735.88        60.21331
736.30        60.15777
736.72        60.10527
737.13        60.23737
737.55        60.45721
737.97        60.70416
738.39         60.8751
738.81        60.50961
739.23        59.84176
739.65        60.02023
740.06        60.85916
740.48        61.09397
740.90        60.65448
741.32        60.28237
741.74        60.11654
742.16        60.03508
742.57        60.09238
742.99         60.2989
743.41        60.60536
743.83        60.91349
744.25        61.18063
744.67        61.41416
745.08        61.60277
745.50        61.69161
745.92        61.69278
746.34        61.61154
746.75        61.48259
747.17        61.38617
747.59        61.33824
748.01        61.30678
748.42        61.29895
748.84        61.31925
749.26        61.32394
749.68        61.34946
750.09         61.3876
750.51        61.18261
750.93        60.91786
751.35        61.34784
751.76        62.29636
752.18        62.66248
752.60        62.33495
753.01        61.95096
753.43        61.69891
753.85        61.48636
754.27        61.33596
754.68        61.92075
755.10        61.91724
755.52        62.18293
755.93        62.33426
756.35        62.47236
756.77        62.51436
757.18        62.57798
757.60        62.73842
758.02        62.37512
758.43        61.66994
758.85        62.88366
759.26        64.01069
759.68        64.31432
760.10        63.23061
760.51        63.10945
760.93        62.69377
761.34        62.86597
761.76        63.21433
762.18        63.02264
762.59        62.44963
763.01        62.43599
763.42        62.99698
763.84        63.18613
764.26        62.96209
764.67        62.59615
765.09         62.2946
765.50        62.41233
765.92        62.84846
766.33         62.8774
766.75        62.50603
767.16        62.44471
767.58        62.76328
768.00        63.34452
768.41        64.03893
768.83        64.45756
769.24         64.4605
769.66        64.12148
770.07        63.57377
770.49        63.01851
770.90        62.61498
771.32        62.68886
771.73        63.16542
772.15        63.50274
772.56        63.65641
772.97        63.91468
773.39        64.21248
773.80        64.36626
774.22        64.31574
774.63        64.14191
775.05        63.88171
775.46        63.65915
775.88        63.50452
776.29        63.41629
776.70        63.39623
777.12        63.45307
777.53        63.59158
777.95        63.77997
778.36        63.99374
778.77        64.15528
779.19        64.25623
779.60        64.33234
780.02        64.36539
780.43        64.39137
780.84        64.44666
781.26        64.32632
781.67        64.17527
782.09        64.62357
782.50        65.45998
782.91        65.60242
783.33        65.06423
783.74        64.86434
784.15        65.02258
784.57        64.93874
784.98         64.6619
785.39        64.55795
785.81        64.65643
786.22        64.86445
786.63        65.08562
787.04        65.15916
787.46        65.07069
787.87        64.85259
788.28        64.64426
788.70        64.63403
789.11        64.83697
789.52         65.2049
789.93        65.60212
790.35         65.7905
790.76        65.73393
791.17        65.51138
791.58        65.24193
792.00        65.06616
792.41        65.05396
792.82        65.22933
793.23        65.55084
793.65        65.72112
794.06        65.81052
794.47        66.29221
794.88        66.93497
795.29        67.06755
795.71        66.62077
796.12        65.95911
796.53        65.31557
796.94        64.94231
797.35        64.99529
797.76        65.55914
798.18        66.34733
798.59        66.77335
799.00        66.67771
799.41        66.28477
799.82        65.82774
800.23        65.64021
800.64        65.81522
801.06         66.1969
801.47        66.68465
801.88        67.00359
802.29         67.0472
802.70        66.88681
803.11        66.59879
803.52        66.29746
803.93        66.05042
804.34        65.84995
804.75        65.67088
805.17        65.53693
805.58        65.49184
805.99        65.32238
806.40        65.16087
806.81        65.69198
807.22        66.66945
807.63        66.95684
808.04        66.55985
808.45        66.44048
808.86        66.64245
809.27        66.54845
809.68        66.19868
810.09        65.98959
810.50        65.97146
810.91        66.04751
811.32        66.16915
811.73        66.24685
812.14        66.24768
812.55        66.20785
812.96        66.16072
813.37        66.15038
813.78        66.19125
814.19        66.26823
814.60        66.34024
815.01        66.34938
815.42        66.28854
815.83        66.17639
816.24        66.07323
816.65        66.08955
817.05        66.25742
817.46        66.50558
817.87        66.78358
818.28         66.9731
818.69        67.04858
819.10         67.0379
819.51        66.98809
819.92         67.0124
820.33        67.13672
820.74        67.23781
821.14        67.27946
821.55        67.40714
821.96        67.51723
822.37        67.24311
822.78         66.6608
823.19         66.2833
823.60        66.19936
824.00        66.16901
824.41         66.1517
824.82        66.27165
825.23        66.51117
825.64        66.81929
826.04        67.18991
826.45        67.51869
826.86        67.79201
827.27        68.02246
827.68        68.13485
828.08        68.03838
828.49        67.69834
828.90        67.17474
829.31        66.66611
829.72         66.4936
830.12        66.76212
830.53        67.34541
830.94        68.03847
831.35        68.41944
831.75        68.37206
832.16         67.9574
832.57         67.4097
832.97         67.0843
833.38        67.07981
833.79        67.28499
834.20         67.5342
834.60         67.5667
835.01        67.34476
835.42        66.97604
835.82        66.61684
836.23        66.46201
836.64        66.58351
837.04        66.92335
837.45        67.34167
837.86        67.72001
838.26        67.99589
838.67        68.15502
839.08        68.18601
839.48        68.05163
839.89        67.76619
840.29        67.33177
840.70        66.86037
841.11        66.46285
841.51         66.2062
841.92        66.09799
842.33        66.10576
842.73        66.16607
843.14        66.21443
843.54        66.25835
843.95        66.41351
844.35        66.90859
844.76        67.70803
845.17         68.7376
845.57          69.679
845.98        69.85921
846.38        69.19797
846.79         67.9268
847.19         66.4904
847.60        65.59228
848.00        65.40466
848.41        65.70868
848.81        66.34877
849.22        66.94369
849.62        67.39066
850.03        67.75108
850.43        67.99138
850.84        67.93862
851.24        67.62846
851.65        67.04221
852.05        66.40781
852.46        66.12179
852.86         66.2332
853.27        66.65298
853.67        67.11742
854.07        67.42844
854.48        67.47952
854.88        67.40749
855.29        67.13622
855.69        66.77694
856.10        66.31448
856.50        65.80413
856.90        65.37034
857.31        65.22182
857.71        65.42052
858.12         65.8819
858.52        66.50952
858.92        66.92356
859.33        66.98692
859.73        66.81535
860.13        66.52898
860.54        66.36527
860.94        66.42309
861.34         66.6039
861.75        66.78528
862.15        66.86425
862.55         66.7578
862.96        66.52743
863.36        66.23225
863.76        65.96868
864.17        65.76842
864.57        65.64606
864.97        65.53623
865.38        65.31977
865.78        65.01934
866.18        64.64128
866.58        64.34708
866.99        64.40639
867.39        64.87168
867.79        65.61688
868.19        66.35725
868.60        66.63951
869.00        66.38082
869.40        65.72994
869.80        64.93383
870.21        64.44022
870.61         64.4205
871.01        64.69899
871.41        65.14915
871.81        65.58311
872.22        65.91266
872.62        66.26462
873.02        66.58086
873.42        66.73278
873.82        66.70306
874.22        66.49796
874.63        66.32014
875.03        66.46812
875.43        66.98608
875.83        67.75658
876.23        68.53467
876.63        68.88939
877.03        68.71829
877.44        68.21117
877.84        67.50393
878.24        66.84496
878.64        66.34813
879.04         65.9147
879.44        65.68127
879.84        65.85251
880.24         66.3998
880.64        67.27741
881.04        68.08392
881.44          68.091
881.84        67.17866
882.24         65.6471
882.65        64.07332
883.05        63.18674
883.45        63.19419
883.85        63.87705
884.25         64.9722
884.65        65.97228
885.05        66.63388
885.45        67.06257
885.85         67.3022
886.25        67.43847
886.65        67.50745
887.05        67.43627
887.45        67.21983
887.85        66.89605
888.25        66.50163
888.65          66.093
889.04        65.71024
889.44        65.41688
889.84        65.22707
890.24        65.15237
890.64        65.20747
891.04        65.40878
891.44        65.73262
891.84        66.13462
892.24        66.57459
892.64         66.9941
893.04        67.37923
893.44        67.76711
893.83        68.11237
894.23        68.26668
894.63         68.2401
895.03        68.00775
895.43        67.80622
895.83        68.01643
896.23        68.67509
896.63        69.68301
897.02        70.56696
897.42        70.55352
897.82        69.54688
898.22         67.8445
898.62        66.09826
899.01        65.21552
899.41        65.39784
899.81        66.40466
900.21        67.73545
900.61         68.4298
901.00        68.16979
901.40        67.31087
901.80         66.3757
902.20        66.09097
902.59        66.62777
902.99        67.71638
903.39        68.97108
903.79        69.58749
904.18        69.29337
904.58        68.40755
904.98        67.40989
905.38        66.94108
905.77        67.11823
906.17        67.73907
906.57        68.51648
906.96        69.02057
907.36        69.05851
907.76        68.78751
908.15        68.37074
908.55        67.99826
908.95        67.78384
909.34        67.64362
909.74        67.53767
910.14        67.37302
910.53        67.13775
910.93        66.92095
911.33        66.77839
911.72        66.79688
912.12        66.98328
912.52        67.26994
912.91        67.64506
913.31        68.06873
913.70        68.53011
914.10        68.99284
914.49        69.34995
914.89        69.35265
915.29        68.99482
915.68        68.35233
916.08        67.68789
916.47        67.36568
916.87        67.49212
917.26        67.90736
917.66        68.43768
918.05        68.80226
918.45        68.88636
918.84        68.82655
919.24        68.56461
919.64        68.14614
920.03        67.63526
920.42        67.00859
920.82          66.487
921.21        66.26105
921.61        66.36625
922.00        66.82068
922.40        67.37279
922.79        67.66766
923.19         67.5679
923.58        67.16982
923.98        66.81121
924.37        66.97782
924.77        67.75368
925.16         69.0066
925.55        70.30915
925.95        70.87557
926.34        70.52512
926.74        69.48418
927.13        68.21395
927.52        67.41103
927.92        67.25088
928.31        67.51186
928.70        67.95067
929.10        68.13625
929.49        67.97033
929.89        67.65762
930.28        67.31798
930.67        67.07966
931.07        66.99947
931.46        66.99399
931.85        67.20654
932.24          67.923
932.64         69.1031
933.03        70.70195
933.42         72.2104
933.82        72.78811
934.21        72.27953
934.60        70.93552
934.99        69.34854
935.39        68.40154
935.78        68.31938
936.17        68.84713
936.56        69.66185
936.96        70.20539
937.35        70.31905
937.74        70.16306
938.13        69.79803
938.53        69.29887
938.92        68.73067
939.31        68.12849
939.70        67.62643
940.09        67.46272
940.49        67.61704
940.88        68.00255
941.27         68.5806
941.66        69.27086
942.05        69.95763
942.44        70.67963
942.84        70.98997
943.23        70.16861
943.62        68.27986
944.01        65.73005
944.40        63.43695
944.79         62.5632
945.18        63.26053
945.57        65.23349
945.97        67.76267
946.36        69.60513
946.75        70.08616
947.14         69.5615
947.53        68.58269
947.92        68.08706
948.31        68.34133
948.70        68.94802
949.09        69.71583
949.48        70.36935
949.87        70.76017
950.26        71.07693
950.65        71.10164
951.04        70.43402
951.43         69.1072
951.82        67.26765
952.21        65.52338
952.60        64.80325
952.99        65.27014
953.38        66.66975
953.77        68.35695
954.16        69.19473
954.55         68.8371
954.94        67.58099
955.33         65.9983
955.72        65.04321
956.11        65.00304
956.50        65.61649
956.89        66.44518
957.28        66.77709
957.66        66.44501
958.05        65.69344
958.44        64.96963
958.83        64.95791
959.22        65.79636
959.61        67.19804
960.00        68.71049
960.39        69.56637
960.78        69.52074
961.16        68.84608
961.55        67.79667
961.94        66.76139
962.33        65.92393
962.72        65.16016
963.11        64.65182
963.49        64.71726
963.88        65.32751
964.27        66.45439
964.66        67.65266
965.04        68.16043
965.43        67.74113
965.82        66.60927
966.21        65.27003
966.60        64.59953
966.98         64.8427
967.37        65.71599
967.76        66.79966
968.15         67.3759
968.53        67.25579
968.92        66.64545
969.31        65.85686
969.69        65.38644
970.08        65.36482
970.47        65.61839
970.86        66.00548
971.24        66.31797
971.63        66.47943
972.02        66.64127
972.40         66.8051
972.79        66.89155
973.17        66.98262
973.56        66.99642
973.95        67.19286
974.33        68.01644
974.72        69.44265
975.11         71.3831
975.49        73.45796
975.88        74.69426
976.26        74.74303
976.65         73.8002
977.04        72.23106
977.42         70.5285
977.81        68.93221
978.19        67.30768
978.58        65.86465
978.96        64.73094
979.35         63.9626
979.74        63.55502
980.12        63.39458
980.51        63.12159
980.89        62.73322
981.28        62.31581
981.66        62.02192
982.05        62.06162
982.43        62.49702
982.82        63.14824
983.20         64.0439
983.59        65.28291
983.97        66.89048
984.35        68.82754
984.74        70.45815
985.12        70.95768
985.51        70.01426
985.89        68.03841
986.28        65.87852
986.66        64.43243
987.04        64.00153
987.43        64.21937
987.81        64.96611
988.20        65.82339
988.58        66.63482
988.96        67.58988
989.35        68.20851
989.73        67.86181
990.12        66.50097
990.50        64.24741
990.88        62.15517
991.27        61.81384
991.65        63.53944
992.03        67.12981
992.42        71.11391
992.80        72.63756
993.18        70.59212
993.56        66.19093
993.95        61.71005
994.33        59.48772
994.71        60.00748
995.10        62.49348
995.48         66.0436
995.86        68.16914
996.24        67.79336
996.63        65.85873
997.01        63.45134
997.39         61.9558
997.77        61.75147
998.15        62.28395
998.54        63.44225
998.92        65.11781
999.30        67.10402
999.68        69.52492
1000.06        71.71299
1000.45         72.3605
1000.83        71.36499
1001.21        69.03638
1001.59        66.42026
1001.97        64.99341
1002.35          65.044
1002.73        66.19112
1003.12        67.90266
1003.50        69.24051
1003.88        69.76722
1004.26        69.83761
1004.64        69.58816
1005.02        69.26109
1005.40        68.90578
1005.78        68.17737
1006.16        67.36399
1006.54        67.00458
1006.92        67.18366
1007.30        68.01452
1007.69        68.44118
1008.07        66.63377
1008.45        62.64486
1008.83        57.54966
1009.21        53.39019
1009.59        52.30805
1009.97        54.42435
1010.35        59.34253
1010.73        65.56205
1011.11        69.26305
1011.49        68.60181
1011.86        64.22522
1012.24        58.82028
1012.62        56.56914
1013.00        58.71543
1013.38          64.724
1013.76        72.24364
1014.14        74.90651
1014.52        70.86707
1014.90        63.58954
1015.28         57.0471
1015.66        54.66268
1016.04        56.59519
1016.41        61.99663
1016.79        69.75664
1017.17        76.94128
1017.55        81.07719
1017.93        82.72472
1018.31        81.17667
1018.69        76.29568
1019.06         69.6013
1019.44        62.42101
1019.82        57.04827
1020.20        55.37234
1020.58        57.03412
1020.95        61.74959
1021.33        67.99498
1021.71        71.42342
1022.09         70.0058
1022.46        64.71771
1022.84         58.7253
1023.22        55.96478
1023.60        57.38781
1023.97          62.814
1024.35        70.25465
1024.73        72.65313
