SpectraSmart Spectrum 2.9.0.0
--------- Device Information -----------
Spectrum Name :  反射率_0
Saving Time :  2024/05/03 20:39:57
Spectro-Module Model Name : SE2030-DUVN
Spectro-Module Serial Number : OS361AC55029948
Wavelength Start : 200
Wavelength End : 1025
Wavelength Unit : Wavelength(nm)
Spectrum Unit : Reflectance(%)
-----------Spectrum Setting ------------
Integration Time : 20ms
Average : 10
Boxcar : 0
Background removal :  enabled
linearity correction :  enabled
SC :  disabled
Intensity correction :  disabled
DWT denoise :  enabled
savitzky-golay :  disabled
FFT :  disabled
Running average :  disabled
Kalman :  disabled
High pass :  disabled
---------------BEGIN--------------------
Wavelength(nm)             Reflectance(%)
200.29               0
200.75        47.68465
201.21        74.29122
201.67       -1796.809
202.13       -55.15294
202.58       -33.53637
203.04       -28.82029
203.50       -29.21163
203.96       -33.52172
204.42       -44.37716
204.88       -88.03862
205.34        1410.511
205.80        96.89976
206.26        50.24113
206.72       -4879.702
207.18        63.69906
207.64        47.43088
208.10        27.90833
208.55        -30.9379
209.01       -647.4772
209.47       -1119.676
209.93       -142.4166
210.39       -36.04173
210.85       -4.887375
211.31        7.050791
211.77        13.06059
212.23        19.06891
212.69        28.54833
213.14        31.51983
213.60         15.3426
214.06        6.349391
214.52        2.361533
214.98      -0.7647065
215.44        -6.01437
215.90       -24.22881
216.36        202.1646
216.81        32.39035
217.27        13.58757
217.73       -15.02634
218.19       -153.3781
218.65       -3561.256
219.11        -199.002
219.57       -13.15443
220.02        22.77449
220.48        43.64912
220.94        3.150291
221.40        21.70188
221.86        25.56616
222.32        27.35235
222.77        28.68472
223.23        30.79013
223.69        33.19727
224.15        32.27116
224.61        27.52066
225.06        22.36119
225.52        19.58971
225.98        19.95536
226.44         23.0945
226.90          29.041
227.36        37.13984
227.81        43.14196
228.27        43.85714
228.73        41.07648
229.19        37.11912
229.65        33.90315
230.10        31.66178
230.56        30.15975
231.02        29.13128
231.48        28.48181
231.93        28.13787
232.39        28.12531
232.85        28.52042
233.31        29.45213
233.77        30.88727
234.22        32.72691
234.68        34.67041
235.14        36.17996
235.60        37.08436
236.05        37.51088
236.51        37.56954
236.97        37.71473
237.43        38.05344
237.88        38.53491
238.34        39.09865
238.80        39.57665
239.26        39.95545
239.71        42.47878
240.17        43.92662
240.63        45.88686
241.08        45.37403
241.54        41.87334
242.00        38.01358
242.46        36.29219
242.91        36.91329
243.37        39.74777
243.83        44.76476
244.28        46.03809
244.74        35.97658
245.20        19.14836
245.66         4.13412
246.11       -5.182091
246.57       -9.309389
247.03       -9.705033
247.48       -7.575638
247.94       -4.201589
248.40       0.1725766
248.85        5.083781
249.31        11.00334
249.77        16.44682
250.22        19.81763
250.68        21.63496
251.14        21.87462
251.59        20.49688
252.05        17.69868
252.51        13.05934
252.96        8.235502
253.42        10.44878
253.88        22.58887
254.33        38.43233
254.79         50.1694
255.25        53.27826
255.70        50.98119
256.16        47.57637
256.62          44.742
257.07        43.40318
257.53        43.48573
257.99        44.05434
258.44        44.54824
258.90        44.81514
259.35        44.54193
259.81        44.30709
260.27        43.97576
260.72        43.43842
261.18        42.98199
261.63        42.39656
262.09        41.99629
262.55        41.83634
263.00        41.80751
263.46         41.9222
263.91        41.88972
264.37         41.5405
264.83        40.83684
265.28         39.8818
265.74        38.93986
266.19        38.15265
266.65        37.61967
267.11        37.19997
267.56        36.79854
268.02        36.35911
268.47        35.81689
268.93        35.23904
269.38        34.59403
269.84        33.83757
270.30        33.03114
270.75        32.19855
271.21        31.53234
271.66        31.22317
272.12        31.27775
272.57         31.5756
273.03        31.89595
273.48        31.90403
273.94        31.52742
274.39         30.8829
274.85        30.10425
275.31        29.30395
275.76        28.53998
276.22        27.83033
276.67        27.24494
277.13          26.979
277.58        26.96617
278.04        27.16977
278.49        27.33923
278.95        27.13477
279.40        26.48572
279.86        25.60453
280.31         24.6855
280.77        24.07824
281.22        23.76673
281.68        23.67364
282.13        23.64451
282.59        23.51541
283.04        23.23201
283.50        22.88353
283.95        22.52682
284.41        22.26276
284.86        22.09654
285.32        22.00265
285.77        21.93541
286.22        21.88587
286.68        21.85099
287.13        21.82164
287.59        21.79642
288.04        21.72473
288.50        21.62399
288.95        21.48395
289.41        21.36613
289.86        21.32609
290.32        21.39179
290.77         21.5257
291.22        21.68633
291.68        21.80494
292.13        21.86431
292.59        21.91208
293.04        21.98279
293.50        22.15019
293.95        22.42117
294.40        22.76617
294.86        23.17603
295.31        23.63943
295.77        24.14646
296.22        24.69295
296.68        25.23046
297.13        25.67406
297.58        25.99751
298.04        26.23952
298.49        26.43446
298.95        26.67561
299.40        26.97418
299.85        27.30675
300.31        27.69477
300.76        28.14108
301.21        28.63993
301.67        29.19039
302.12        29.69203
302.58        30.00886
303.03        30.10891
303.48        30.04215
303.94        29.96132
304.39        30.04319
304.84        30.33721
305.30        30.78262
305.75        31.23326
306.20        31.49011
306.66        31.52182
307.11        31.38211
307.57        31.20095
308.02        31.10884
308.47        31.15652
308.93        31.29604
309.38        31.45094
309.83        31.54311
310.29        31.54759
310.74        31.48439
311.19        31.38299
311.65        31.28459
312.10        31.19181
312.55        31.08467
313.00        30.94478
313.46        30.75142
313.91        30.49282
314.36        30.19981
314.82         29.8926
315.27        29.58573
315.72        29.30283
316.18        29.05013
316.63        28.84597
317.08        28.72112
317.53        28.67348
317.99        28.67814
318.44        28.71653
318.89        28.74392
319.35        28.73474
319.80        28.69222
320.25        28.58681
320.70        28.38227
321.16        28.07444
321.61        27.68001
322.06        27.25454
322.51        26.89769
322.97        26.63812
323.42        26.46329
323.87        26.32211
324.32        26.12742
324.78        25.85151
325.23         25.5271
325.68        25.19006
326.13        24.90294
326.59        24.67734
327.04        24.51079
327.49        24.36623
327.94        24.19369
328.39        23.97962
328.85        23.73302
329.30        23.50247
329.75        23.34573
330.20        23.27554
330.66        23.26034
331.11         23.2608
331.56        23.18131
332.01        22.99965
332.46         22.7457
332.92        22.45669
333.37        22.22763
333.82        22.07696
334.27        21.97725
334.72        21.91862
335.17        21.88281
335.63        21.84744
336.08        21.83409
336.53        21.79977
336.98         21.6818
337.43        21.47158
337.88        21.18412
338.34        20.88414
338.79        20.68195
339.24        20.60637
339.69        20.63514
340.14        20.70329
340.59        20.70216
341.05        20.60279
341.50         20.4345
341.95        20.26263
342.40        20.19643
342.85        20.25615
343.30        20.40164
343.75        20.54683
344.20        20.55745
344.66        20.41384
345.11        20.16348
345.56        19.89682
346.01        19.74817
346.46        19.75233
346.91        19.86234
347.36        20.02664
347.81        20.16602
348.26        20.24872
348.72        20.29603
349.17        20.30704
349.62        20.28592
350.07        20.23784
350.52        20.15761
350.97        20.05302
351.42        19.94261
351.87        19.83387
352.32         19.7269
352.77        19.62781
353.22        19.54279
353.67        19.47156
354.13        19.41846
354.58        19.36153
355.03        19.28199
355.48        19.17996
355.93        19.06957
356.38        18.96386
356.83        18.88398
357.28        18.83556
357.73        18.80483
358.18        18.80047
358.63        18.83694
359.08        18.90597
359.53        18.99745
359.98        19.06027
360.43        19.01727
360.88        18.85554
361.33        18.59762
361.78        18.30951
362.23        18.09357
362.68        17.97751
363.13        17.94134
363.58        17.92761
364.03        17.84237
364.48        17.66657
364.93        17.43002
365.38        17.20596
365.83        17.10388
366.28        17.14187
366.73        17.28188
367.18        17.43069
367.63        17.44017
368.08        17.27709
368.53        16.98933
368.98        16.67749
369.43        16.49397
369.88        16.47545
370.33        16.57897
370.78        16.71938
371.23        16.75318
371.68         16.6394
372.13        16.42088
372.58        16.18098
373.03        16.04526
373.48        16.03936
373.93        16.11998
374.38        16.20254
374.83        16.15199
375.28        15.93956
375.72        15.61281
376.17        15.27616
376.62        15.04767
377.07        14.95392
377.52         14.9562
377.97        14.99666
378.42        14.98287
378.87        14.89154
379.32        14.75692
379.77         14.6218
380.22          14.544
380.67        14.53279
381.11        14.56494
381.56        14.60276
382.01        14.59759
382.46        14.53546
382.91        14.43686
383.36        14.32378
383.81        14.22492
384.26        14.15018
384.71        14.09196
385.15        14.04183
385.60        14.00391
386.05         13.9688
386.50        13.93282
386.95        13.89919
387.40        13.87044
387.85        13.84601
388.29        13.82204
388.74        13.78962
389.19        13.70354
389.64        13.56212
390.09        13.37622
390.54         13.2058
390.98        13.13453
391.43        13.17933
391.88        13.33239
392.33        13.50806
392.78        13.51418
393.23        13.36892
393.67        13.24874
394.12        13.19677
394.57        13.13862
395.02         13.0838
395.47         13.0756
395.91        13.10068
396.36        13.09505
396.81        13.05586
397.26        13.01284
397.71          12.948
398.15        12.84762
398.60        12.73711
399.05        12.54775
399.50        12.35167
399.95         12.3926
400.39        12.61822
400.84        12.65287
401.29        12.48904
401.74        12.41655
402.18        12.44084
402.63        12.39353
403.08         12.3022
403.53        12.19823
403.97        12.26567
404.42        12.31938
404.87        12.38963
405.32        12.43906
405.76        12.45278
406.21        12.44746
406.66        12.41327
407.11        12.33793
407.55        12.22834
408.00        12.08517
408.45        11.94253
408.90        11.86033
409.34         11.8538
409.79        11.90396
410.24        11.97825
410.68        12.02456
411.13        12.02941
411.58        12.00695
412.03        11.95888
412.47        11.89439
412.92         11.8193
413.37        11.73159
413.81        11.64949
414.26        11.61153
414.71         11.6152
415.15        11.65858
415.60        11.70244
416.05        11.68693
416.49        11.60045
416.94        11.46747
417.39        11.33279
417.83        11.26073
418.28          11.264
418.73        11.31699
419.17        11.39487
419.62        11.44971
420.07        11.46435
420.51        11.45238
420.96        11.41576
421.41         11.3487
421.85        11.25322
422.30         11.1391
422.74        11.02812
423.19        10.98759
423.64        11.01445
424.08        11.07859
424.53        11.13871
424.98        11.17062
425.42        11.16488
425.87        11.09461
426.31        10.99201
426.76        10.97722
427.21        11.02859
427.65        10.98115
428.10        10.86103
428.54        10.82098
428.99         10.8715
429.44         10.9947
429.88        11.10971
430.33        11.02806
430.77        10.79842
431.22         10.6745
431.66        10.69501
432.11        10.78579
432.56        10.90975
433.00         11.0569
433.45        11.11046
433.89        11.01602
434.34        10.47582
434.78        10.45307
435.23        10.84366
435.67        10.95043
436.12        10.77006
436.57        10.69447
437.01        10.74249
437.46        10.73878
437.90        10.68223
438.35        10.62343
438.79        10.57036
439.24        10.52507
439.68        10.49546
440.13        10.50644
440.57        10.52893
441.02        10.50304
441.46        10.42257
441.91        10.30863
442.35        10.19349
442.80         10.1945
443.24        10.28405
443.69        10.32646
444.13        10.31516
444.58        10.34827
445.02        10.41916
445.47        10.46416
445.91         10.4685
446.36        10.44875
446.80        10.40418
447.24        10.33524
447.69        10.26422
448.13        10.22782
448.58        10.23566
449.02        10.27456
449.47        10.32971
449.91        10.37058
450.36        10.38908
450.80        10.39155
451.25        10.37877
451.69        10.34853
452.13        10.30473
452.58        10.24863
453.02        10.19068
453.47        10.15397
453.91        10.14281
454.36        10.15104
454.80        10.16528
455.24        10.17608
455.69        10.18313
456.13        10.15442
456.58        10.09739
457.02          10.142
457.46        10.12734
457.91        10.08407
458.35        9.985327
458.79        9.966888
459.24        10.01891
459.68        10.01775
460.13         9.97424
460.57        9.953213
461.01        9.962435
461.46        9.960605
461.90        9.945241
462.34        9.923036
462.79        9.892674
463.23        9.851196
463.68        9.817479
464.12        9.812355
464.56        9.836755
465.01        9.909509
465.45        9.985961
465.89        9.971122
466.34        9.888126
466.78        9.848863
467.22        9.867938
467.67         9.88157
468.11        9.885981
468.55        9.883446
468.99        9.878517
469.44        9.891194
469.88        9.922215
470.32        9.950173
470.77        9.970161
471.21        9.989451
471.65        10.00541
472.10        10.01418
472.54        10.01756
472.98        10.02564
473.42        10.04013
473.87        10.06308
474.31        10.08071
474.75        10.08143
475.20        10.06875
475.64         10.0421
476.08        10.01583
476.52        10.02604
476.97        10.07894
477.41        10.13553
477.85        10.16952
478.29        10.33204
478.74        10.27267
479.18        10.35248
479.62        10.45409
480.06        10.50356
480.50        10.49434
480.95        10.47251
481.39        10.46513
481.83        10.50137
482.27        10.59581
482.72        10.75439
483.16         10.9231
483.60         11.0254
484.04        11.05526
484.48        10.96679
484.93        10.87802
485.37        11.05823
485.81        11.47873
486.25        11.63786
486.69        11.67718
487.14        11.49719
487.58        11.99895
488.02        11.69995
488.46        11.91425
488.90        11.73843
489.34        11.46786
489.79        11.56008
490.23        11.92871
490.67        12.31112
491.11        12.56939
491.55        12.53596
491.99        12.29433
492.43         12.2528
492.88        12.44916
493.32        12.62462
493.76        12.73691
494.20        12.86019
494.64        12.98734
495.08        13.09602
495.52        13.20061
495.96        13.33464
496.41         13.4993
496.85        13.65891
497.29        13.80226
497.73        13.96294
498.17        14.11019
498.61        14.15087
499.05         14.1056
499.49         14.0628
499.93         14.0707
500.37        14.18952
500.82        14.38574
501.26        14.51727
501.70        14.56535
502.14        14.61341
502.58        14.68194
503.02         14.7631
503.46        14.86077
503.90        14.97498
504.34        15.08375
504.78        15.15137
505.22        15.17213
505.66        15.15603
506.10        15.12237
506.54        15.13642
506.98        15.21576
507.42        15.28108
507.86        15.30167
508.30        15.56095
508.74        15.50698
509.18        15.58785
509.62        15.64356
510.06        15.69339
510.50        15.73659
510.94        15.77245
511.38        15.81329
511.82        15.86505
512.26        15.92838
512.70        16.00105
513.14        16.06328
513.58        16.08447
514.02        16.05951
514.46        15.99641
514.90        15.92331
515.34        15.88622
515.78        15.89735
516.22         15.9471
516.66        16.00375
517.10        16.01573
517.54        15.97319
517.98        15.89239
518.42        15.81266
518.86        15.79577
519.30        15.85325
519.74        15.96295
520.18        16.08006
520.62        16.13283
521.06        16.10277
521.50         16.0127
521.93        15.90044
522.37         15.8272
522.81        15.80917
523.25        15.82754
523.69         15.8584
524.13        15.86415
524.57        15.83538
525.01        15.78771
525.45        15.73576
525.89        15.70114
526.32        15.68783
526.76        15.68535
527.20        15.68672
527.64        15.68421
528.08        15.67341
528.52        15.65896
528.96        15.63175
529.40        15.57704
529.83        15.49397
530.27        15.39159
530.71        15.29284
531.15        15.23468
531.59        15.22389
532.03        15.25089
532.46        15.28764
532.90        15.28901
533.34        15.24501
533.78        15.17002
534.22        15.08967
534.66        15.04147
535.09        15.03012
535.53        15.04463
535.97        15.06367
536.41         15.0422
536.85        14.97238
537.28        14.91207
537.72        14.87602
538.16        14.79221
538.60        14.71489
539.04        14.83435
539.47        15.09895
539.91        15.25422
540.35        15.27425
540.79        15.29688
541.22        15.33477
541.66        15.36188
542.10        15.38875
542.54        15.40178
542.97        15.41604
543.41        15.51724
543.85        15.68265
544.29        15.79087
544.72        15.84391
545.16        15.95593
545.60        16.12494
546.04         16.2859
546.47        16.42912
546.91        16.56921
547.35        16.70242
547.79        16.83038
548.22        16.95675
548.66        17.08729
549.10        17.23003
549.53        17.42351
549.97        17.64675
550.41        17.82443
550.84        17.94163
551.28        18.03669
551.72        18.11716
552.15         18.1819
552.59        18.24806
553.03        18.30991
553.46        18.37498
553.90        18.47941
554.34        18.61767
554.77        18.76421
555.21        18.91233
555.65        19.06519
556.08        19.21288
556.52        19.34767
556.96          19.465
557.39        19.57839
557.83         19.6942
558.27        19.77911
558.70        19.83882
559.14        19.93041
559.57        20.03489
560.01        20.07569
560.45        20.06155
560.88         20.0762
561.32        20.13688
561.75        20.18482
562.19        20.24452
562.63        20.33293
563.06        20.44129
563.50        20.62819
563.93        20.83636
564.37        20.83144
564.80        20.66995
565.24        20.71813
565.68        20.94862
566.11        21.05832
566.55         21.0491
566.98        21.07891
567.42        21.16656
567.85        21.33776
568.29         21.4463
568.72        21.58515
569.16        21.72752
569.60        21.91419
570.03        22.13665
570.47        22.33769
570.90         22.4879
571.34        22.69523
571.77        22.94425
572.21        22.84149
572.64        23.03944
573.08        22.89564
573.51        23.30446
573.95        23.32969
574.38        23.26183
574.82        23.24431
575.25        23.78357
575.69        23.91765
576.12        23.81493
576.56        23.80276
576.99        23.90347
577.42        24.16564
577.86        23.81777
578.29        24.14301
578.73        24.11849
579.16        24.09525
579.60        23.81543
580.03        23.64597
580.47        23.62236
580.90        23.67446
581.33        23.14539
581.77        23.63806
582.20          23.753
582.64        23.55187
583.07        23.44018
583.51        23.12166
583.94         22.9252
584.37        22.74324
584.81        22.64187
585.24        22.49692
585.68        22.70713
586.11        22.28233
586.54        22.26691
586.98        22.08636
587.41         22.1981
587.85        22.18124
588.28         22.1354
588.71         21.8964
589.15        21.88861
589.58        22.06403
590.01        21.96295
590.45         21.8511
590.88        21.63411
591.31         21.6693
591.75        21.93758
592.18         22.0573
592.61        21.95716
593.05        22.16862
593.48        22.27561
593.91        22.07649
594.35        22.18691
594.78        22.26785
595.21        22.50271
595.65        22.55255
596.08        22.41213
596.51        22.71655
596.94        22.84266
597.38        23.03469
597.81        23.07367
598.24        23.44054
598.68        23.63984
599.11        23.67053
599.54        24.24926
599.97        24.10828
600.41        24.73253
600.84        24.99232
601.27        25.26257
601.70        25.52546
602.14        25.80877
602.57        26.24253
603.00        26.75928
603.43        27.11217
603.87        27.30829
604.30        27.56289
604.73        27.92215
605.16        28.23219
605.60         28.4937
606.03        28.84171
606.46        29.22455
606.89        29.52267
607.32        30.05628
607.76        30.12696
608.19        30.65169
608.62        30.99634
609.05        31.38814
609.48        31.65486
609.92        31.89278
610.35        32.08278
610.78        32.93821
611.21        33.31709
611.64        33.51723
612.07        33.69043
612.50        33.91821
612.94        34.11341
613.37            34.3
613.80        34.63268
614.23        34.85591
614.66         35.1434
615.09        35.40753
615.52        35.64648
615.96        35.87034
616.39        36.08442
616.82        36.29146
617.25        36.56369
617.68        36.92486
618.11        36.89551
618.54        36.63259
618.97        36.75245
619.40        37.26382
619.84        37.66023
620.27        37.86679
620.70        38.13032
621.13        38.41168
621.56         38.3576
621.99        38.06881
622.42        38.19655
622.85        38.59896
623.28        38.61834
623.71        38.47194
624.14        38.43085
624.57        38.15473
625.00        38.25422
625.43        38.19443
625.86        38.29022
626.29        38.36136
626.72         38.3518
627.15        38.23837
627.58        38.04295
628.01        37.80389
628.44         37.5584
628.87        37.33522
629.30        37.15776
629.73        37.00717
630.16        36.81671
630.59        36.57523
631.02        36.31805
631.45        36.04877
631.88        35.75949
632.31        35.44977
632.74        35.11449
633.17        34.75904
633.60        34.39639
634.03        34.03253
634.46        33.67278
634.89        33.30261
635.32        32.89493
635.75        32.44877
636.18        31.97457
636.61        31.50966
637.04        31.11348
637.47        30.79928
637.89        30.54422
638.32        30.29331
638.75        30.00623
639.18        29.67659
639.61        29.20677
640.04        28.86222
640.47        28.53475
640.90        28.30708
641.33        28.15095
641.76        28.04546
642.18        27.95678
642.61        27.86003
643.04        27.77206
643.47        27.69205
643.90         27.6184
644.33        27.55251
644.76        27.49463
645.18        27.46364
645.61        27.45729
646.04        27.47979
646.47        27.59714
646.90        27.81829
647.33        27.83217
647.75         28.1665
648.18        28.35942
648.61        28.58731
649.04        28.97557
649.47        29.48979
649.89        29.85735
650.32        30.07422
650.75        30.48263
651.18        31.03404
651.61        31.30997
652.03        31.37958
652.46        31.72068
652.89         32.3004
653.32        32.67218
653.74        32.97972
654.17        33.19064
654.60        33.70152
655.03        34.62195
655.46        34.62131
655.88        35.19713
656.31        37.73495
656.74        41.64244
657.16        39.52645
657.59        37.02904
658.02        37.71199
658.45        38.21944
658.87        38.83699
659.30        38.27785
659.73        38.67572
660.15        38.83804
660.58        39.01324
661.01        39.30262
661.44        39.55946
661.86        39.71115
662.29        39.77484
662.72        40.08876
663.14        40.59897
663.57        40.72401
664.00        40.55233
664.42        40.73331
664.85        41.26563
665.27        41.63089
665.70        41.78308
666.13        41.99399
666.55        42.25699
666.98        42.41895
667.41        42.49676
667.83        42.57504
668.26        42.66563
668.69        42.76773
669.11        42.86247
669.54        42.91406
669.96        42.92131
670.39        42.90164
670.82        42.93491
671.24         43.1034
671.67        43.41827
672.09        43.92147
672.52        44.49069
672.94        44.60423
673.37        44.74584
673.80        44.50969
674.22        44.22022
674.65        44.25576
675.07        44.63049
675.50        44.96975
675.92        45.19482
676.35        45.41247
676.77        45.59451
677.20        45.63226
677.62        45.58447
678.05        45.62361
678.47        45.77543
678.90        45.97969
679.32        46.19877
679.75        46.41776
680.17         46.6241
680.60        46.77253
681.02          46.841
681.45         47.0821
681.87        47.01014
682.30        47.02561
682.72        47.02143
683.15        47.06859
683.57        47.18599
684.00         47.3581
684.42        47.55771
684.85        47.74241
685.27        47.89838
685.70        47.96643
686.12        47.95228
686.54        48.10433
686.97        48.37715
687.39        48.19435
687.82        48.07828
688.24        47.99329
688.66        48.11066
689.09        48.21753
689.51        48.30423
689.94        48.46937
690.36        48.71529
690.78         48.9264
691.21         49.0048
691.63        49.46124
692.06        49.05556
692.48        49.21401
692.90        49.53401
693.33        49.72642
693.75        49.78141
694.17        49.81074
694.60        49.86156
695.02        50.30342
695.44        50.42054
695.87        50.85528
696.29        51.26745
696.71        51.28348
697.14        50.96115
697.56        50.70649
697.98        50.61259
698.41        50.76371
698.83        50.70123
699.25        50.98382
699.68        51.37573
700.10        51.67365
700.52        51.80431
700.94        51.84493
701.37        51.84234
701.79         51.8664
702.21        51.94054
702.64        52.06375
703.06          52.207
703.48        52.30582
703.90        52.35523
704.33        52.39922
704.75        52.44981
705.17         52.4988
705.59        52.55235
706.01        52.60458
706.44        52.68612
706.86        52.85963
707.28        53.10722
707.70        53.43706
708.12        53.77246
708.55        53.90713
708.97        53.85538
709.39        53.85577
709.81        53.93102
710.23        53.95012
710.66        53.92823
711.08        53.97316
711.50        54.08818
711.92        54.24117
712.34        54.42715
712.76        54.65345
713.19        54.86706
713.61         55.0233
714.03        55.08142
714.45        55.05015
714.87        54.97255
715.29        54.92031
715.71         54.9113
716.13        54.93161
716.56        54.93612
716.98        54.90308
717.40        54.81387
717.82        54.70169
718.24         54.6158
718.66        54.63008
719.08        54.75704
719.50        54.95699
719.92        55.20276
720.34        55.45285
720.76        55.68427
721.19        55.89739
721.61        56.05536
722.03         56.0983
722.45        56.04819
722.87         55.7963
723.29        55.44217
723.71        55.51291
724.13        56.03613
724.55         55.7092
724.97        56.24147
725.39        56.23418
725.81        56.13494
726.23        56.53732
726.65        56.44701
727.07        56.22007
727.49        56.70249
727.91        56.95431
728.33         57.2425
728.75        57.43309
729.17        57.51401
729.59        57.49171
730.01        57.41618
730.43        57.45451
730.85        57.64199
731.27        57.82589
731.69        57.91186
732.10        58.32301
732.52        58.13224
732.94        58.08368
733.36        57.96672
733.78        57.89121
734.20        57.89495
734.62        57.99082
735.04        58.11514
735.46        58.17358
735.88        58.14406
736.30        57.94046
736.72        57.72969
737.13        57.95435
737.55           58.48
737.97        58.97958
738.39        59.27206
738.81        58.84709
739.23        58.01199
739.65        58.23413
740.06        59.28597
740.48        59.53962
740.90        58.92215
741.32        58.34666
741.74        58.12371
742.16        57.98555
742.57        58.03754
742.99        58.31274
743.41        58.72946
743.83        59.11602
744.25        59.41596
744.67        59.67327
745.08        59.88337
745.50        59.98587
745.92        59.99321
746.34         59.9123
746.75         59.7737
747.17        59.63964
747.59        59.52809
748.01        59.44432
748.42        59.39381
748.84        59.33126
749.26        59.24364
749.68        59.25931
750.09        59.37368
750.51        59.28293
750.93         59.1358
751.35        59.63741
751.76        60.59959
752.18        60.97521
752.60         60.6643
753.01        60.21379
753.43        59.85209
753.85        59.66988
754.27        59.72441
754.68        60.18091
755.10        60.71004
755.52        60.70594
755.93        60.98243
756.35        60.90968
756.77        60.77969
757.18        60.67864
757.60        60.70992
758.02        60.55888
758.43        60.29928
758.85        61.00756
759.26        62.14682
759.68         62.1539
760.10        61.56038
760.51        61.61165
760.93        61.57003
761.34        61.68402
761.76        61.62527
762.18          61.161
762.59        60.53768
763.01        60.74384
763.42        61.67939
763.84        62.07499
764.26         61.8384
764.67        61.26685
765.09        60.67515
765.50         60.9321
765.92        61.89102
766.33        61.51421
766.75        60.94154
767.16        60.79564
767.58        61.38934
768.00        61.72989
768.41        61.76813
768.83        62.30044
769.24        63.05645
769.66        62.78377
770.07        61.70993
770.49         61.2589
770.90        61.48505
771.32        61.59798
771.73        61.55012
772.15        61.67296
772.56        61.97761
772.97        62.21731
773.39        62.35373
773.80        62.74041
774.22        63.10563
774.63        63.01292
775.05        62.49558
775.46        62.19718
775.88        62.18072
776.29        62.17926
776.70        62.16368
777.12        62.19851
777.53        62.28278
777.95        62.39099
778.36        62.52901
778.77        62.62812
779.19        62.68267
779.60        62.80486
780.02         62.9455
780.43        62.89318
780.84        62.75872
781.26        62.79672
781.67        63.07061
782.09        63.62603
782.50         64.2311
782.91        64.21267
783.33        63.66008
783.74         63.4185
784.15         63.5141
784.57        63.61918
784.98        63.65281
785.39        63.29643
785.81        62.75471
786.22        62.97751
786.63        63.80016
787.04        64.09844
787.46        63.82138
787.87        63.55333
788.28        63.45102
788.70        63.48529
789.11        63.67493
789.52        64.02976
789.93        64.42273
790.35        64.63123
790.76        64.61997
791.17        64.44926
791.58        64.22784
792.00          64.082
792.41        64.07423
792.82        64.24807
793.23        64.54646
793.65        64.62405
794.06         64.5757
794.47        64.95029
794.88        65.53012
795.29        65.70321
795.71        65.18567
796.12        64.57999
796.53        64.03112
796.94        63.67338
797.35        63.66536
797.76        64.22435
798.18        65.07001
798.59        65.51221
799.00         65.3871
799.41        64.97636
799.82        64.50792
800.23        64.27388
800.64        64.36926
801.06        64.66644
801.47        65.06857
801.88        65.30564
802.29        65.28635
802.70        65.08406
803.11        64.81541
803.52        64.65907
803.93        64.67545
804.34         64.8179
804.75        64.98138
805.17        65.02812
805.58        64.95373
805.99        64.68122
806.40        64.36779
806.81        64.53162
807.22        65.07224
807.63        65.31294
808.04        65.21286
808.45        65.21322
808.86        65.30441
809.27        65.20807
809.68        64.97118
810.09        64.77611
810.50        64.69922
810.91         64.8391
811.32        65.12582
811.73        65.28465
812.14        65.27027
812.55        65.22471
812.96        65.19118
813.37        65.18181
813.78        65.21794
814.19        65.29219
814.60         65.3819
815.01        65.45976
815.42        65.51888
815.83        65.56274
816.24        65.61134
816.65         65.6972
817.05        65.82317
817.46         65.9402
817.87        66.02671
818.28        66.00683
818.69        65.86999
819.10        65.63807
819.51        65.38177
819.92        65.23383
820.33        65.23576
820.74        65.34422
821.14        65.48737
821.55        65.58437
821.96        65.59188
822.37        65.51782
822.78        65.40276
823.19        65.34689
823.60        65.38194
824.00        65.47849
824.41        65.60015
824.82        65.77526
825.23        65.99102
825.64        66.23535
826.04        66.49943
826.45        66.67767
826.86        66.77538
827.27        66.81256
827.68        66.79376
828.08        66.75198
828.49        66.66814
828.90        66.56226
829.31        66.49768
829.72        66.57504
830.12        66.83707
830.53        67.20089
830.94        67.58285
831.35        67.78743
831.75        67.76901
832.16        67.52752
832.57        67.18243
832.97        66.90336
833.38        66.74613
833.79        66.67052
834.20        66.62041
834.60        66.49479
835.01         66.2958
835.42        66.08134
835.82        65.91822
836.23        65.86105
836.64        65.94388
837.04        66.14915
837.45        66.42461
837.86        66.79948
838.26        67.25152
838.67        67.71735
839.08        68.08173
839.48        68.14762
839.89        67.88698
840.29        67.34423
840.70        66.72383
841.11        66.28214
841.51        66.11391
841.92        66.17447
842.33        66.34004
842.73        66.39267
843.14        66.23586
843.54        65.95155
843.95        65.74004
844.35        65.95202
844.76        66.59785
845.17        67.56846
845.57        68.55695
845.98        68.90406
846.38        68.50536
846.79        67.57822
847.19        66.47363
847.60        65.75857
848.00        65.57481
848.41        65.72025
848.81        66.12695
849.22        66.57458
849.62          67.005
850.03        67.44714
850.43         67.7733
850.84        67.64252
851.24        67.06232
851.65        66.09141
852.05        65.09112
852.46        64.67097
852.86        64.92019
853.27        65.64388
853.67        66.47466
854.07        67.08837
854.48        67.34333
854.88        67.41918
855.29        67.20898
855.69        66.76332
856.10        66.07224
856.50         65.2131
856.90        64.42614
857.31         64.0948
857.71        64.31577
858.12        64.96748
858.52        65.86709
858.92        66.46033
859.33        66.54472
859.73        66.28606
860.13        65.84509
860.54         65.5277
860.94        65.46592
861.34        65.53992
861.75        65.65264
862.15        65.74659
862.55        65.74594
862.96        65.70724
863.36        65.64738
863.76        65.58544
864.17         65.5275
864.57        65.49693
864.97        65.45017
865.38        65.31357
865.78        65.11562
866.18        64.83524
866.58         64.6077
866.99        64.66312
867.39        65.04331
867.79        65.64625
868.19        66.19585
868.60         66.2453
869.00        65.72544
869.40        64.79118
869.80         63.7386
870.21        63.09573
870.61        63.05657
871.01        63.43151
871.41         64.0232
871.81        64.53783
872.22        64.85694
872.62        65.11088
873.02        65.30853
873.42        65.45261
873.82        65.54871
874.22        65.55561
874.63        65.54193
875.03        65.60802
875.43        65.77602
875.83        66.01226
876.23        66.24118
876.63        66.31165
877.03        66.20988
877.44        66.04534
877.84         65.8311
878.24        65.61535
878.64        65.41958
879.04        65.16162
879.44        65.02148
879.84        65.27557
880.24        65.91209
880.64        66.87299
881.04        67.65534
881.44        67.37333
881.84         65.9182
882.24        63.68415
882.65        61.48925
883.05        60.39062
883.45        60.63759
883.85        61.91406
884.25        63.71856
884.65        65.10085
885.05        65.67745
885.45        65.68847
885.85        65.37611
886.25        65.13133
886.65        65.08142
887.05        65.05907
887.45        64.99136
887.85        64.81047
888.25        64.50558
888.65        64.17089
889.04        63.85966
889.44        63.64056
889.84        63.53156
890.24        63.53705
890.64        63.64211
891.04        63.82598
891.44        64.06892
891.84        64.34422
892.24         64.6885
892.64        65.16231
893.04         65.7659
893.44         66.4903
893.83        67.19071
894.23        67.54804
894.63        67.52103
895.03        67.14044
895.43        66.70526
895.83        66.69718
896.23        67.19988
896.63        68.09342
897.02        68.92485
897.42        68.95306
897.82        68.07133
898.22        66.55456
898.62         65.0072
899.01        64.26763
899.41         64.5162
899.81        65.52698
900.21        66.78556
900.61        67.32103
901.00        66.84106
901.40        65.72662
901.80        64.56688
902.20        64.16666
902.59        64.70881
902.99        65.91542
903.39        67.36794
903.79        68.17606
904.18        68.02696
904.58        67.25409
904.98        66.35255
905.38        66.00066
905.77        66.31985
906.17        67.07198
906.57        67.96995
906.96        68.58704
907.36         68.7243
907.76        68.55599
908.15        68.18159
908.55        67.68408
908.95        67.17551
909.34        66.61124
909.74        66.11526
910.14        65.84026
910.53        65.81151
910.93        66.04536
911.33        66.40263
911.72        66.64402
912.12        66.70531
912.52        66.62884
912.91        66.58524
913.31        66.83094
913.70        67.42842
914.10        68.22703
914.49        69.00995
914.89        69.34472
915.29        69.14407
915.68        68.54812
916.08        67.79713
916.47         67.2169
916.87        66.94778
917.26         66.8587
917.66         66.9138
918.05        67.04021
918.45         67.1705
918.84        67.40239
919.24        67.57057
919.64        67.49194
920.03        67.14078
920.42        66.53793
920.82        65.98387
921.21        65.80251
921.61        66.04804
922.00        66.67117
922.40        67.34881
922.79        67.60484
923.19         67.2812
923.58        66.56545
923.98        65.83887
924.37        65.62537
924.77        66.03959
925.16        66.93388
925.55        68.00625
925.95        68.69199
926.34        68.82704
926.74        68.54565
927.13        68.04925
927.52        67.64708
927.92        67.43934
928.31        67.31931
928.70        67.23754
929.10        67.10346
929.49        66.92147
929.89        66.77808
930.28        66.71695
930.67        66.74123
931.07        66.84805
931.46        67.01306
931.85        67.31281
932.24        67.90845
932.64        68.75827
933.03        69.84456
933.42        70.82504
933.82        71.16985
934.21        70.78546
934.60        69.80571
934.99        68.65324
935.39        67.94083
935.78        67.82106
936.17        68.14983
936.56        68.61548
936.96        68.68713
937.35        68.27206
937.74        67.52367
938.13        66.72045
938.53         66.2823
938.92        66.30009
939.31        66.68837
939.70         67.2374
940.09        67.65254
940.49        67.79449
940.88        67.71165
941.27        67.63137
941.66        67.98251
942.05        68.80719
942.44        69.96175
942.84        70.80932
943.23        70.30538
943.62        68.41445
944.01         65.7069
944.40        63.12345
944.79        61.81807
945.18          61.965
945.57        63.22343
945.97        65.07449
946.36         66.7045
946.75        67.56472
947.14        67.90468
947.53        67.87952
947.92         67.7928
948.31        67.76759
948.70        67.57349
949.09          67.368
949.48        67.49133
949.87        67.97058
950.26        68.78633
950.65        69.46306
951.04         69.1828
951.43        67.85355
951.82        65.79067
952.21        63.70386
952.60        62.65502
952.99        62.87341
953.38        64.04787
953.77        65.60122
954.16        66.53017
954.55        66.49754
954.94        65.76369
955.33        64.74908
955.72        64.14697
956.11        64.16958
956.50        64.61105
956.89        65.13162
957.28         65.2041
957.66        64.71913
958.05        63.86063
958.44        63.04462
958.83        62.90097
959.22         63.5544
959.61         64.7737
960.00         66.0907
960.39        66.69842
960.78        66.36546
961.16        65.36964
961.55        64.08572
961.94        63.09064
962.33        62.58678
962.72          62.391
963.11        62.48126
963.49        62.84307
963.88         63.3678
964.27        64.11266
964.66        64.85209
965.04        65.19695
965.43        65.01924
965.82        64.43639
966.21         63.7473
966.60        63.48639
966.98        63.80463
967.37          64.513
967.76        65.38615
968.15         66.0271
968.53        66.31077
968.92        66.31442
969.31        66.12738
969.69        65.88663
970.08        65.63064
970.47        65.32668
970.86        65.01077
971.24        64.74716
971.63        64.56889
972.02        64.56172
972.40        64.72131
972.79        64.95724
973.17        65.30665
973.56        65.67298
973.95        66.23961
974.33        67.33016
974.72        68.88979
975.11        70.85835
975.49        72.83843
975.88         73.8559
976.26        73.62256
976.65        72.38247
977.04        70.65962
977.42        69.16231
977.81        68.12649
978.19        67.30293
978.58        66.74178
978.96        66.32346
979.35        66.00498
979.74        65.83263
980.12        65.66608
980.51        65.11127
980.89         64.1985
981.28        63.04127
981.66        61.94739
982.05        61.39892
982.43        61.57294
982.82        62.27953
983.20        63.45608
983.59        65.03084
983.97        66.96542
984.35        69.22723
984.74        71.21499
985.12         72.1603
985.51        71.68364
985.89        70.08905
986.28        68.06152
986.66        66.29204
987.04        65.07747
987.43        64.15397
987.81         63.5856
988.20        63.35853
988.58        63.53062
988.96        64.20566
989.35        64.94668
989.73         65.1368
990.12        64.62691
990.50        63.50431
990.88        62.44545
991.27        62.51105
991.65         63.9051
992.03        66.44944
992.42        69.08073
992.80        69.92295
993.18        68.21694
993.56        64.88545
993.95        61.52209
994.33        59.61011
994.71        59.51432
995.10        60.67926
995.48        62.72895
995.86        64.37035
996.24        64.95977
996.63        64.96131
997.01        64.68231
997.39        64.52175
997.77        64.62447
998.15        64.65888
998.54        64.86015
998.92        65.76501
999.30        67.44135
999.68        69.92358
1000.06         72.2039
1000.45        72.38087
1000.83        70.29132
1001.21        66.53797
1001.59        62.89175
1001.97        61.76294
1002.35        63.55558
1002.73        67.63863
1003.12        72.58517
1003.50        75.73195
1003.88        76.04118
1004.26        74.27525
1004.64        71.66335
1005.02        70.23392
1005.40         70.5197
1005.78        71.72632
1006.16        73.14624
1006.54        73.65543
1006.92        72.84348
1007.30        71.23669
1007.69        68.85302
1008.07        65.93326
1008.45         63.0041
1008.83        60.22134
1009.21        58.29345
1009.59        57.90554
1009.97         59.0522
1010.35         61.8201
1010.73        65.38667
1011.11         67.5973
1011.49         67.4429
1011.86        65.04597
1012.24         62.4614
1012.62        63.03146
1013.00        67.71463
1013.38        76.27772
1013.76        85.80902
1014.14        88.55208
1014.52        82.50867
1014.90        72.02834
1015.28        62.35527
1015.66        57.85194
1016.04         58.6572
1016.41         63.7993
1016.79        72.00429
1017.17        79.88498
1017.55        84.67824
1017.93        86.78094
1018.31        86.06306
1018.69        83.34142
1019.06         79.5997
1019.44        75.28214
1019.82        71.26546
1020.20        68.12034
1020.58        65.65791
1020.95        63.99514
1021.33        62.83869
1021.71        61.82761
1022.09        60.98669
1022.46        60.00894
1022.84        60.12941
1023.22        62.99053
1023.60        69.16536
1023.97        79.69575
1024.35        91.32516
1024.73        93.13261
