SpectraSmart Spectrum 2.9.0.0
--------- Device Information -----------
Spectrum Name :  反射率_0
Saving Time :  2024/05/03 20:41:53
Spectro-Module Model Name : SE2030-DUVN
Spectro-Module Serial Number : OS361AC55029948
Wavelength Start : 200
Wavelength End : 1025
Wavelength Unit : Wavelength(nm)
Spectrum Unit : Reflectance(%)
-----------Spectrum Setting ------------
Integration Time : 20ms
Average : 10
Boxcar : 0
Background removal :  enabled
linearity correction :  enabled
SC :  disabled
Intensity correction :  disabled
DWT denoise :  enabled
savitzky-golay :  disabled
FFT :  disabled
Running average :  disabled
Kalman :  disabled
High pass :  disabled
---------------BEGIN--------------------
Wavelength(nm)             Reflectance(%)
200.29               0
200.75        23.49306
201.21        59.54844
201.67       -2235.027
202.13       -77.80558
202.58       -35.97441
203.04       -15.06156
203.50       -2.349195
203.96        2.154948
204.42       -2.110084
204.88       -32.29747
205.34        1035.931
205.80         88.2979
206.26        26.95402
206.72       -19992.43
207.18        152.1468
207.64        112.7999
208.10        84.65834
208.55        15.69616
209.01        -696.129
209.47       -1291.619
209.93       -137.4141
210.39        -10.9694
210.85        25.47876
211.31          37.528
211.77        39.90173
212.23        36.72175
212.69        15.48837
213.14       -36.93461
213.60       -44.37906
214.06       -30.92765
214.52        -22.7175
214.98       -20.90923
215.44       -25.09841
215.90       -45.50979
216.36        231.4589
216.81        30.59933
217.27        16.97774
217.73        8.585801
218.19        -6.64335
218.65        145.9796
219.11        99.17861
219.57         73.1902
220.02        72.02698
220.48        103.9049
220.94       -28.86458
221.40        22.49945
221.86        30.11692
222.32        30.66714
222.77        27.81145
223.23        21.64249
223.69         11.7546
224.15        5.512705
224.61        9.361764
225.06        17.11003
225.52        23.80042
225.98        28.17505
226.44         31.1975
226.90        33.77932
227.36        35.86746
227.81        36.49557
228.27        35.18651
228.73        32.85543
229.19        30.03664
229.65        27.01409
230.10        24.12142
230.56         21.7565
231.02        20.46522
231.48        20.93044
231.93        22.85762
232.39        25.72194
232.85         28.7303
233.31        30.78557
233.77        31.65376
234.22        31.59498
234.68        31.14237
235.14        31.19092
235.60        32.02671
236.05         33.5057
236.51        34.99625
236.97        35.33018
237.43         34.2042
237.88        32.32966
238.34        30.65831
238.80        30.08842
239.26        30.90123
239.71        35.67517
240.17        41.57214
240.63        49.69015
241.08        53.73856
241.54        51.12971
242.00        45.46482
242.46        42.09575
242.91        41.80634
243.37        43.34516
243.83         45.5146
244.28        40.38082
244.74        21.77787
245.20      -0.5717159
245.66       -16.25246
246.11       -23.01874
246.57       -23.24685
247.03       -19.46929
247.48       -13.28761
247.94       -5.965305
248.40        2.287235
248.85        11.58033
249.31         20.1149
249.77        21.95406
250.22        16.93229
250.68        9.235209
251.14        2.422313
251.59       -1.229601
252.05       -1.623584
252.51        1.360923
252.96        9.276077
253.42        22.50715
253.88        36.61396
254.33        47.54169
254.79        52.87915
255.25        52.76141
255.70        50.03922
256.16        46.99564
256.62        44.79828
257.07        44.18484
257.53        44.99596
257.99        46.35243
258.44         47.4323
258.90        47.77922
259.35        47.08605
259.81         46.0834
260.27        44.92562
260.72        43.79209
261.18        42.98793
261.63         42.2567
262.09        41.64177
262.55        40.89827
263.00        39.96282
263.46        38.96036
263.91        38.02051
264.37        37.55555
264.83        37.52011
265.28        37.72952
265.74        37.90039
266.19        37.46943
266.65        36.49891
267.11        35.15855
267.56        33.80347
268.02        33.00126
268.47        32.79621
268.93        33.00704
269.38        33.33223
269.84        33.26398
270.30        32.69299
270.75        31.80679
271.21        30.87348
271.66         30.1812
272.12        29.80099
272.57        29.57504
273.03        29.40738
273.48        29.18968
273.94        28.88511
274.39        28.54978
274.85         28.1448
275.31        27.51998
275.76        26.68764
276.22        25.75504
276.67        24.90256
277.13        24.46302
277.58        24.40054
278.04        24.62022
278.49        24.83735
278.95        24.65989
279.40        24.00263
279.86        23.10096
280.31        22.15951
280.77        21.52326
281.22        21.18437
281.68        21.05821
282.13        21.00256
282.59        20.86967
283.04        20.60781
283.50        20.29544
283.95        19.98336
284.41        19.75324
284.86        19.61508
285.32        19.55985
285.77        19.53899
286.22         19.5358
286.68        19.54671
287.13        19.55297
287.59        19.59384
288.04        19.68754
288.50        19.84416
288.95        20.02632
289.41        20.18976
289.86        20.22607
290.32        20.14364
290.77        19.97488
291.22        19.80779
291.68        19.75887
292.13        19.85181
292.59         20.0773
293.04        20.39084
293.50        20.73169
293.95        21.06449
294.40        21.40317
294.86        21.78067
295.31        22.24783
295.77        22.81253
296.22        23.44526
296.68        24.07442
297.13        24.58405
297.58        24.93476
298.04        25.17175
298.49        25.35202
298.95        25.59707
299.40        25.92589
299.85        26.31369
300.31        26.74538
300.76        27.16791
301.21        27.57421
301.67        27.98545
302.12        28.37607
302.58        28.72258
303.03        29.00448
303.48        29.22209
303.94        29.43427
304.39        29.68522
304.84        29.99934
305.30        30.36136
305.75        30.68855
306.20        30.88176
306.66        30.93582
307.11        30.86823
307.57         30.7787
308.02        30.75547
308.47        30.83642
308.93        30.99398
309.38        31.15351
309.83        31.23561
310.29        31.21888
310.74         31.1191
311.19        30.98414
311.65        30.88707
312.10        30.83534
312.55        30.80285
313.00        30.74113
313.46        30.58011
313.91        30.30273
314.36        29.95892
314.82        29.60428
315.27         29.3116
315.72        29.11191
316.18         28.9794
316.63        28.90619
317.08        28.88278
317.53        28.89071
317.99        28.92362
318.44        28.94052
318.89         28.8604
319.35        28.66657
319.80        28.37907
320.25        28.04993
320.70        27.77156
321.16        27.56188
321.61        27.39808
322.06        27.24438
322.51        27.04233
322.97        26.77495
323.42        26.47716
323.87        26.15641
324.32        25.82433
324.78        25.48902
325.23        25.15079
325.68        24.83743
326.13          24.601
326.59        24.44018
327.04        24.35763
327.49        24.29309
327.94        24.15135
328.39        23.90753
328.85        23.58014
329.30        23.23495
329.75         22.9662
330.20        22.80448
330.66        22.71271
331.11        22.66325
331.56        22.57644
332.01        22.42978
332.46        22.25151
332.92        22.05168
333.37        21.87507
333.82        21.72606
334.27        21.58623
334.72        21.46881
335.17        21.40136
335.63        21.37285
336.08        21.38557
336.53        21.38279
336.98        21.27757
337.43        21.05553
337.88        20.75141
338.34        20.41955
338.79        20.15189
339.24        19.97986
339.69        19.87812
340.14          19.839
340.59        19.84787
341.05        19.88482
341.50        19.94986
341.95        19.99985
342.40        19.96827
342.85        19.84243
343.30        19.64009
343.75        19.40163
344.20         19.1997
344.66        19.06804
345.11        18.98856
345.56        18.95588
346.01        18.95369
346.46        18.97306
346.91        19.01645
347.36        19.07637
347.81        19.14068
348.26        19.19969
348.72         19.2463
349.17        19.26668
349.62        19.25071
350.07        19.19785
350.52        19.11448
350.97        19.00887
351.42        18.89493
351.87        18.78066
352.32        18.66548
352.77        18.56203
353.22        18.48797
353.67        18.44558
354.13        18.43728
354.58        18.43082
355.03        18.39116
355.48        18.31402
355.93        18.21406
356.38        18.11851
356.83        18.07219
357.28        18.08205
357.73        18.12516
358.18        18.18262
358.63        18.22453
359.08        18.23667
359.53        18.22867
359.98        18.18369
360.43         18.0773
360.88        17.91134
361.33        17.69165
361.78        17.46716
362.23        17.31351
362.68        17.24555
363.13          17.248
363.58        17.25966
364.03        17.17973
364.48        16.99058
364.93        16.72656
365.38        16.46474
365.83        16.32279
366.28         16.3241
366.73        16.42848
367.18        16.55964
367.63        16.59514
368.08        16.50108
368.53        16.31425
368.98        16.09587
369.43        15.93874
369.88         15.8657
370.33        15.84672
370.78        15.83631
371.23        15.76177
371.68        15.60645
372.13        15.40147
372.58        15.19205
373.03        15.04103
373.48        14.96254
373.93        14.93411
374.38         14.9237
374.83        14.88115
375.28        14.79093
375.72        14.66327
376.17        14.53164
376.62         14.4168
377.07        14.32444
377.52        14.24504
377.97        14.16957
378.42        14.08725
378.87        13.99855
379.32        13.91214
379.77        13.83715
380.22        13.78287
380.67        13.74909
381.11        13.73264
381.56        13.72045
382.01        13.70218
382.46        13.67296
382.91        13.63406
383.36        13.58766
383.81        13.53664
384.26        13.48233
384.71        13.42579
385.15        13.36033
385.60        13.29207
386.05        13.21796
386.50        13.13776
386.95        13.06579
387.40         13.0218
387.85        13.00768
388.29        13.01268
388.74        13.02207
389.19        12.98288
389.64         12.8893
390.09        12.75485
390.54        12.62609
390.98        12.56706
391.43          12.592
391.88        12.69527
392.33        12.81738
392.78        12.80968
393.23        12.69177
393.67         12.6201
394.12        12.60778
394.57        12.53869
395.02         12.4174
395.47        12.30633
395.91        12.22544
396.36        12.16911
396.81         12.1511
397.26        12.17844
397.71        12.21751
398.15        12.23032
398.60        12.22578
399.05        12.13946
399.50        12.02613
399.95        12.10446
400.39        12.32371
400.84        12.32048
401.29        12.10625
401.74        11.99712
402.18        12.00654
402.63        11.96158
403.08        11.88079
403.53        11.77778
403.97        11.82613
404.42        11.86016
404.87        11.90106
405.32        11.89817
405.76        11.84071
406.21        11.74799
406.66        11.64583
407.11        11.57876
407.55        11.55927
408.00        11.56907
408.45        11.58819
408.90        11.57857
409.34        11.52984
409.79        11.45784
410.24        11.37983
410.68        11.31672
411.13        11.27432
411.58        11.24118
412.03        11.21437
412.47         11.1932
412.92        11.17195
413.37        11.15541
413.81        11.13079
414.26        11.08939
414.71        11.02521
415.15        10.94425
415.60        10.85799
416.05        10.80264
416.49        10.79124
416.94        10.81772
417.39         10.8607
417.83        10.88789
418.28        10.88999
418.73        10.86676
419.17        10.84011
419.62         10.8449
420.07         10.8852
420.51        10.94363
420.96        10.97821
421.41        10.92002
421.85        10.76222
422.30        10.54664
422.74        10.32695
423.19        10.21021
423.64        10.20585
424.08        10.27064
424.53        10.36163
424.98        10.44824
425.42        10.51381
425.87        10.53596
426.31        10.52711
426.76        10.57497
427.21        10.65368
427.65        10.60609
428.10        10.47824
428.54         10.4554
428.99        10.55399
429.44        10.74309
429.88        10.92143
430.33         10.8712
430.77        10.63313
431.22        10.46763
431.66        10.42801
432.11        10.46445
432.56         10.5497
433.00         10.6733
433.45         10.7066
433.89        10.56962
434.34        9.980332
434.78        9.872737
435.23        10.17464
435.67        10.28183
436.12        10.19646
436.57        10.26541
437.01        10.46048
437.46        10.52778
437.90        10.44256
438.35        10.28337
438.79        10.10531
439.24         9.98296
439.68        9.943963
440.13        9.989217
440.57        10.07187
441.02        10.10224
441.46        10.05984
441.91        9.975506
442.35        9.881067
442.80        9.889249
443.24        9.976174
443.69        10.01042
444.13        9.989428
444.58        10.01696
445.02        10.08965
445.47         10.1429
445.91        10.16591
446.36        10.17998
446.80         10.1811
447.24        10.16448
447.69        10.13661
448.13        10.10867
448.58         10.0867
449.02        10.06985
449.47        10.05689
449.91        10.03859
450.36        10.01632
450.80        9.991693
451.25         9.97295
451.69        9.968733
452.13        9.979695
452.58        10.00086
453.02        10.01991
453.47        10.02363
453.91        10.00755
454.36        9.974642
454.80        9.929159
455.24        9.891633
455.69         9.87188
456.13        9.832173
456.58        9.773764
457.02        9.812264
457.46        9.789135
457.91           9.739
458.35        9.639644
458.79        9.625863
459.24        9.688493
459.68        9.705234
460.13        9.681069
460.57         9.67203
461.01        9.684427
461.46        9.679238
461.90        9.659963
462.34        9.642911
462.79        9.628183
463.23        9.609222
463.68        9.596248
464.12        9.595853
464.56        9.607708
465.01        9.657974
465.45        9.710474
465.89         9.68301
466.34        9.600326
466.78        9.565265
467.22         9.59464
467.67        9.630736
468.11        9.667451
468.55        9.705997
468.99        9.733731
469.44        9.743505
469.88        9.733115
470.32        9.690218
470.77        9.636834
471.21        9.624534
471.65        9.660926
472.10        9.727495
472.54        9.801949
472.98        9.855733
473.42        9.879905
473.87        9.889536
474.31        9.881242
474.75        9.859274
475.20         9.83324
475.64        9.796323
476.08        9.765371
476.52        9.780961
476.97         9.84903
477.41        9.931872
477.85        9.993924
478.29        10.16681
478.74        10.10164
479.18         10.1561
479.62        10.22689
480.06        10.26309
480.50        10.26158
480.95        10.25957
481.39        10.26948
481.83        10.29911
482.27         10.3621
482.72        10.47494
483.16        10.59987
483.60        10.69181
484.04        10.73822
484.48        10.68445
484.93        10.66164
485.37        10.90655
485.81        11.28309
486.25         11.7164
486.69        11.32575
487.14        11.09271
487.58          11.632
488.02        11.48376
488.46        11.83101
488.90        11.70387
489.34        11.38491
489.79        11.39989
490.23        11.70857
490.67        12.05247
491.11        12.31075
491.55        12.33587
491.99        12.18892
492.43        12.22082
492.88        12.45426
493.32        12.64797
493.76        12.76269
494.20         12.8746
494.64        12.98157
495.08        13.06182
495.52        13.13257
495.96        13.23514
496.41         13.3749
496.85        13.51474
497.29        13.65602
497.73        13.84942
498.17        14.06457
498.61        14.20345
499.05        14.25261
499.49        14.24629
499.93        14.22293
500.37        14.25879
500.82        14.35999
501.26        14.45111
501.70        14.52926
502.14         14.6565
502.58        14.81752
503.02         14.9467
503.46        15.03316
503.90        15.09685
504.34        15.14028
504.78        15.16797
505.22        15.18668
505.66        15.19107
506.10        15.18879
506.54        15.22784
506.98        15.31983
507.42        15.39406
507.86        15.41679
508.30        15.66805
508.74        15.59228
509.18        15.63771
509.62        15.65957
510.06        15.70463
510.50        15.77593
510.94        15.86732
511.38        15.96083
511.82        16.01141
512.26        16.01188
512.70        15.97836
513.14         15.9341
513.58        15.91549
514.02        15.93213
514.46         15.9706
514.90        16.02077
515.34        16.06544
515.78        16.09718
516.22        16.12395
516.66        16.13826
517.10        16.12746
517.54        16.09312
517.98        16.03827
518.42        15.98683
518.86        15.97811
519.30        16.01846
519.74        16.09546
520.18        16.17884
520.62        16.21823
521.06        16.19979
521.50         16.1375
521.93        16.05435
522.37        15.98951
522.81        15.95311
523.25         15.9328
523.69        15.91528
524.13        15.87956
524.57        15.82168
525.01        15.75397
525.45        15.68506
525.89        15.62622
526.32        15.58171
526.76        15.54871
527.20        15.52931
527.64         15.5288
528.08        15.54414
528.52        15.57069
528.96        15.59429
529.40        15.59313
529.83        15.55934
530.27        15.50123
530.71        15.42832
531.15        15.35822
531.59        15.29733
532.03        15.24408
532.46        15.19417
532.90        15.14124
533.34        15.08713
533.78        15.03826
534.22        15.00199
534.66        14.98686
535.09        14.98959
535.53        15.00526
535.97        15.02545
536.41        15.02643
536.85        15.00201
537.28        14.99883
537.72        15.01024
538.16        14.93105
538.60        14.81193
539.04        14.85999
539.47        15.04408
539.91        15.14233
540.35        15.13997
540.79        15.16504
541.22        15.22295
541.66        15.27557
542.10        15.32681
542.54        15.36556
542.97        15.40326
543.41        15.51987
543.85        15.69138
544.29        15.79607
544.72        15.83871
545.16        15.93924
545.60         16.0988
546.04        16.25352
546.47        16.39461
546.91        16.53759
547.35        16.67824
547.79         16.8159
548.22         16.9565
548.66        17.10922
549.10        17.28074
549.53        17.50883
549.97         17.7601
550.41        17.93816
550.84        18.02656
551.28        18.07304
551.72        18.10655
552.15        18.15914
552.59         18.2543
553.03        18.37339
553.46        18.50723
553.90        18.66712
554.34        18.83836
554.77        19.00084
555.21        19.14912
555.65        19.28883
556.08        19.41388
556.52         19.5182
556.96        19.60273
557.39        19.68929
557.83        19.78897
558.27        19.86958
558.70        19.94007
559.14        20.06167
559.57        20.21151
560.01        20.30395
560.45         20.3405
560.88        20.39691
561.32        20.48734
561.75        20.55569
562.19        20.61673
562.63        20.67731
563.06        20.73314
563.50        20.83756
563.93        20.96333
564.37        20.95674
564.80        20.86488
565.24        20.96666
565.68        21.22426
566.11        21.37194
566.55        21.40239
566.98          21.448
567.42        21.52629
567.85        21.66288
568.29        21.71313
568.72        21.81814
569.16        21.95838
569.60        22.10487
570.03        22.24357
570.47        22.58121
570.90        22.61961
571.34        22.90333
571.77         23.1014
572.21        22.97946
572.64        23.16843
573.08        23.00758
573.51        23.47134
573.95        23.62056
574.38        23.69091
574.82        23.60789
575.25        23.97473
575.69        24.04133
576.12        24.00623
576.56        24.06876
576.99        24.24361
577.42        24.39488
577.86        24.23017
578.29          24.431
578.73        24.05796
579.16        24.01471
579.60         23.9662
580.03        23.93457
580.47        23.93453
580.90        23.65227
581.33        23.47347
581.77        23.69754
582.20        23.81956
582.64        23.20003
583.07        23.45189
583.51        23.19337
583.94        23.03042
584.37        22.78036
584.81         22.5382
585.24         22.4433
585.68        22.85188
586.11        22.30194
586.54          22.291
586.98         22.1047
587.41        22.11445
587.85        22.34143
588.28        22.20759
588.71        22.00744
589.15        22.01587
589.58        22.13318
590.01        21.98188
590.45        21.88827
590.88        21.76637
591.31         21.8183
591.75        22.01613
592.18         22.0908
592.61        22.01332
593.05        22.06634
593.48        22.45346
593.91        22.10314
594.35        22.27945
594.78        22.34481
595.21        22.62855
595.65        22.66809
596.08        22.47054
596.51        22.90767
596.94        23.03211
597.38        23.30763
597.81        23.42858
598.24        23.61184
598.68         23.8846
599.11        23.96302
599.54        24.55794
599.97        24.45478
600.41        25.13141
600.84        25.41898
601.27        25.70272
601.70         25.9334
602.14        26.16376
602.57        26.65762
603.00        27.31619
603.43        27.69025
603.87        27.80517
604.30        28.13834
604.73        28.46566
605.16        29.12044
605.60        29.23501
606.03        29.72856
606.46        30.37774
606.89        30.31199
607.32        31.09873
607.76        31.38939
608.19        31.66249
608.62        31.94794
609.05        32.28277
609.48        32.61739
609.92        33.01483
610.35        33.34597
610.78         34.2452
611.21         34.7351
611.64        34.98685
612.07        35.18007
612.50        35.37415
612.94         35.5195
613.37        35.64822
613.80        35.97887
614.23        36.13851
614.66        36.44479
615.09        36.77947
615.52        37.12756
615.96        37.45005
616.39         37.7275
616.82        37.98038
617.25        38.02195
617.68        38.47559
618.11        38.41747
618.54        38.17644
618.97        38.32499
619.40        38.86179
619.84        39.27661
620.27        39.49501
620.70        39.76163
621.13        40.04523
621.56        40.07539
621.99        39.92225
622.42        40.06454
622.85        40.22195
623.28        40.35992
623.71        40.35366
624.14        40.25209
624.57        39.90333
625.00        39.95225
625.43        39.94412
625.86        39.99137
626.29        39.89225
626.72        40.14963
627.15        39.83779
627.58        39.77282
628.01        39.64848
628.44        39.38671
628.87        39.04569
629.30        38.55434
629.73        38.35345
630.16        38.24289
630.59        37.78593
631.02        37.53606
631.45        37.31538
631.88        37.05742
632.31        36.73996
632.74        36.38946
633.17        36.00946
633.60        35.59468
634.03         35.1535
634.46        34.68927
634.89        34.21282
635.32        33.74163
635.75        33.28276
636.18         32.8366
636.61        32.40526
637.04        31.98959
637.47        31.59113
637.89        31.20535
638.32        30.81732
638.75        30.45441
639.18        30.12665
639.61        29.71138
640.04        29.44211
640.47        29.15084
640.90         28.9063
641.33        28.70075
641.76        28.53198
642.18        28.39662
642.61        28.28126
643.04        28.19028
643.47        28.12588
643.90        28.09168
644.33        28.08619
644.76        28.11243
645.18         28.1663
645.61        28.20368
646.04        28.22249
646.47        28.30389
646.90        28.48987
647.33        28.50639
647.75        28.89672
648.18        29.19786
648.61        29.56258
649.04        29.96401
649.47        30.38256
649.89        30.84232
650.32         31.2895
650.75        31.57721
651.18        31.77613
651.61        32.14914
652.03        32.68582
652.46        33.29447
652.89        33.91945
653.32        34.21036
653.74        34.31411
654.17         35.0407
654.60        35.47633
655.03        36.29444
655.46        36.77152
655.88        37.12168
656.31        39.05983
656.74        43.07176
657.16        40.60626
657.59        38.32937
658.02        39.51199
658.45        40.68432
658.87        41.36375
659.30        40.56072
659.73        41.12412
660.15        41.36672
660.58        41.57962
661.01        42.00243
661.44        42.40261
661.86        42.65015
662.29        42.74277
662.72         43.0067
663.14        43.42701
663.57        43.54498
664.00        43.44767
664.42        43.65296
664.85        44.15734
665.27        44.53189
665.70        44.71935
666.13        44.92753
666.55         45.1479
666.98        45.24659
667.41        45.26964
667.83        45.34958
668.26         45.5023
668.69         45.7041
669.11        45.91003
669.54        46.01862
669.96        46.01258
670.39        45.99172
670.82        46.03827
671.24        46.04372
671.67        46.26001
672.09        46.72926
672.52         47.3941
672.94        47.61785
673.37        47.86738
673.80        47.67866
674.22          47.381
674.65        47.33166
675.07        47.60674
675.50        48.02579
675.92        48.46343
676.35        48.74565
676.77        48.82307
677.20        48.75272
677.62        48.63691
678.05        48.63802
678.47        48.79645
678.90        49.06311
679.32        49.36427
679.75        49.62165
680.17        49.80702
680.60        49.90426
681.02        49.90453
681.45        50.16779
681.87          50.173
682.30        50.37852
682.72        50.59344
683.15        50.62876
683.57        50.54704
684.00        50.69349
684.42        51.03062
684.85        51.20925
685.27        51.20737
685.70        51.16454
686.12        51.12144
686.54        51.23875
686.97        51.45538
687.39        51.47113
687.82        51.28922
688.24        51.22386
688.66        51.29437
689.09         51.3041
689.51        51.28321
689.94        51.42496
690.36        51.74941
690.78        52.07671
691.21        52.28359
691.63        52.90318
692.06        52.59047
692.48         52.8689
692.90        53.28264
693.33         53.4822
693.75        53.45276
694.17        53.33215
694.60        53.22691
695.02          53.591
695.44        53.68869
695.87        54.27293
696.29        54.91656
696.71        54.93817
697.14        54.40791
697.56          54.104
697.98        54.14769
698.41        54.15127
698.83        54.13113
699.25         54.3954
699.68        54.82552
700.10        55.11248
700.52        55.17532
700.94        55.10859
701.37        54.99541
701.79        54.99089
702.21        55.12348
702.64        55.33789
703.06        55.55993
703.48        55.68436
703.90          55.694
704.33        55.63794
704.75        55.57967
705.17        55.60392
705.59        55.73071
706.01          55.916
706.44        56.14611
706.86        56.39094
707.28          56.605
707.70        56.89414
708.12        57.18349
708.55        57.12032
708.97        56.80004
709.39        56.78796
709.81        57.08476
710.23        57.21355
710.66        57.15954
711.08        57.23652
711.50        57.43517
711.92        57.60834
712.34        57.74527
712.76         57.8786
713.19         57.9877
713.61        58.09115
714.03        58.16252
714.45         58.1894
714.87        58.17716
715.29        58.14055
715.71        58.08575
716.13         58.0195
716.56         57.9257
716.98        57.83864
717.40        57.75584
717.82        57.68267
718.24        57.65454
718.66        57.74412
719.08        57.94322
719.50         58.1741
719.92        58.41094
720.34        58.65342
720.76        58.88394
721.19        59.07711
721.61        59.20755
722.03         59.2467
722.45        59.22168
722.87        59.00907
723.29        58.69827
723.71         58.8041
724.13        59.40742
724.55        59.04269
724.97         59.5022
725.39        59.48348
725.81        59.51421
726.23        59.43344
726.65        59.33823
727.07        59.27965
727.49        59.51659
727.91        59.81055
728.33        60.15294
728.75        60.40232
729.17        60.51621
729.59        60.53053
730.01        60.50572
730.43         60.5436
730.85        60.66994
731.27        60.84853
731.69        61.02462
732.10        61.13062
732.52        61.15716
732.94        61.09012
733.36        60.95425
733.78        60.95522
734.20        61.15813
734.62        60.98133
735.04        61.17106
735.46        61.44557
735.88          61.243
736.30        61.13812
736.72        61.01095
737.13         61.0795
737.55        61.25342
737.97          61.565
738.39        61.87872
738.81        61.49226
739.23        60.69027
739.65        60.97912
740.06        62.12165
740.48        62.48957
740.90        61.99235
741.32        61.55843
741.74        61.36368
742.16        61.26202
742.57        61.32332
742.99        61.57054
743.41        61.92398
743.83        62.23556
744.25        62.45338
744.67        62.59393
745.08        62.69529
745.50        62.78592
745.92        62.88982
746.34         62.9795
746.75        63.01329
747.17        62.95551
747.59        62.80053
748.01        62.55643
748.42        62.30437
748.84        62.17899
749.26        62.17536
749.68        62.26423
750.09        62.39827
750.51        62.32494
750.93        62.16775
751.35        62.55624
751.76        63.37213
752.18        63.69566
752.60        63.53982
753.01        63.31519
753.43        63.17301
753.85        63.04343
754.27        62.94829
754.68        63.23476
755.10        63.27537
755.52        63.39703
755.93        63.46144
756.35        63.70818
756.77        63.98895
757.18         64.1078
757.60        64.11449
758.02        63.62142
758.43        62.84424
758.85          63.864
759.26        64.95893
759.68        65.16946
760.10        64.56653
760.51        64.55853
760.93        65.44242
761.34        64.37672
761.76         64.9689
762.18        64.39756
762.59        63.90482
763.01        63.92492
763.42        64.42268
763.84        64.53131
764.26        64.21472
764.67        63.81948
765.09        63.56597
765.50        63.90009
765.92        64.62919
766.33        64.62176
766.75        63.89713
767.16        63.73867
767.58        64.21617
768.00        64.51849
768.41        64.64444
768.83        65.19971
769.24        65.91249
769.66        65.82996
770.07        65.05329
770.49        64.33474
770.90        63.90887
771.32        64.04884
771.73        64.63751
772.15        64.98837
772.56        65.06229
772.97        65.20435
773.39         65.4239
773.80        65.80721
774.22        66.18913
774.63         66.0759
775.05        65.54018
775.46        65.27962
775.88        65.34536
776.29        65.38757
776.70        65.36401
777.12        65.38152
777.53        65.44051
777.95        65.49044
778.36        65.53282
778.77        65.53442
779.19        65.51483
779.60        65.50874
780.02        65.51006
780.43        65.61026
780.84        65.84433
781.26        65.86485
781.67        65.80524
782.09        66.54662
782.50        67.73436
782.91         67.7166
783.33          66.629
783.74         66.2009
784.15        66.51968
784.57        66.65865
784.98        66.55946
785.39        66.41184
785.81        66.27184
786.22        66.44241
786.63        66.82341
787.04        66.81527
787.46        66.48598
787.87        66.39098
788.28        66.59928
788.70        66.79694
789.11        66.97231
789.52        67.34438
789.93        67.77069
790.35        67.91643
790.76        67.75385
791.17        67.32169
791.58        66.84327
792.00        66.73742
792.41        67.03574
792.82        67.49054
793.23        67.93501
793.65        68.00483
794.06        67.81448
794.47        68.03368
794.88        68.50335
795.29        68.63123
795.71         68.0296
796.12        67.50349
796.53        67.12109
796.94        66.83601
797.35        66.79786
797.76        67.35552
798.18        68.23806
798.59        68.72268
799.00        68.66071
799.41        68.14109
799.82        67.79435
800.23        67.50849
800.64        67.50393
801.06        67.66358
801.47        67.94804
801.88        68.16942
802.29         68.2375
802.70         68.2092
803.11        68.20189
803.52        68.11554
803.93        67.93163
804.34        68.20132
804.75        68.95552
805.17        67.45357
805.58        68.17358
805.99        67.49566
806.40        66.98411
806.81        67.32039
807.22        68.32109
807.63        68.75964
808.04        68.52467
808.45        68.51257
808.86        68.71495
809.27         68.5327
809.68        68.05889
810.09         67.7956
810.50        67.81675
810.91        67.97178
811.32        68.19176
811.73        68.34859
812.14        68.39156
812.55        68.42477
812.96         68.4352
813.37        68.28425
813.78        68.03444
814.19        67.91668
814.60        67.96212
815.01        68.03558
815.42        68.13866
815.83        68.37505
816.24        68.69169
816.65        68.90563
817.05        68.96675
817.46        68.89089
817.87        68.74725
818.28        68.59461
818.69        68.46286
819.10        68.33568
819.51        68.24205
819.92        68.24007
820.33         68.3306
820.74        68.48238
821.14        68.64754
821.55         68.7674
821.96        68.81422
822.37        68.82842
822.78        68.77905
823.19        68.61644
823.60        68.36149
824.00        68.04852
824.41        67.80954
824.82        67.93927
825.23        68.47724
825.64        69.32513
826.04        70.26762
826.45        70.83282
826.86        70.91454
827.27        70.63751
827.68        70.14138
828.08        69.69753
828.49        69.37852
828.90        69.13299
829.31        69.02152
829.72        69.14016
830.12        69.51249
830.53        70.07662
830.94        70.66886
831.35        70.93457
831.75        70.78844
832.16        70.25648
832.57        69.57456
832.97        69.11008
833.38        68.97457
833.79        69.08416
834.20        69.27469
834.60        69.27571
835.01        69.04604
835.42        68.67897
835.82        68.36283
836.23        68.34501
836.64        68.69852
837.04        69.35703
837.45        70.06927
837.86        70.52771
838.26        70.63426
838.67        70.42978
839.08        70.08569
839.48         69.8615
839.89         69.8299
840.29        69.88548
840.70        69.96038
841.11        69.89008
841.51         69.6619
841.92        69.35838
842.33        69.03529
842.73        68.78391
843.14        68.60707
843.54         68.4847
843.95        68.50063
844.35        68.82974
844.76        69.43097
845.17        70.26974
845.57        71.10335
845.98         71.3699
846.38        70.99761
846.79        70.14628
847.19        69.14611
847.60        68.54355
848.00        68.46532
848.41         68.7312
848.81        69.21802
849.22         69.6067
849.62        69.82872
850.03          69.925
850.43        69.90891
850.84        69.67801
851.24        69.29557
851.65        68.76061
852.05        68.23416
852.46        67.98136
852.86        68.02789
853.27        68.31694
853.67        68.69326
854.07         69.1246
854.48        69.52111
854.88        69.97047
855.29        70.24652
855.69        70.16132
856.10        69.58803
856.50        68.67966
856.90        67.73264
857.31        67.21651
857.71        67.27035
858.12        67.73969
858.52        68.47686
858.92        68.99827
859.33        69.11625
859.73        68.98484
860.13         68.7184
860.54        68.53514
860.94        68.53719
861.34        68.62402
861.75        68.68723
862.15        68.66351
862.55        68.48731
862.96        68.21478
863.36        67.92921
863.76        67.75685
864.17        67.72753
864.57        67.84762
864.97        67.98839
865.38        67.93143
865.78        67.67384
866.18        67.23152
866.58        66.83553
866.99        66.88344
867.39        67.45475
867.79        68.38155
868.19        69.27748
868.60        69.52972
869.00         69.0295
869.40        67.98918
869.80        66.77155
870.21        66.02008
870.61        65.97088
871.01        66.39059
871.41        67.06579
871.81        67.68542
872.22        68.11263
872.62        68.48785
873.02        68.78436
873.42        68.92911
873.82        68.91879
874.22        68.75194
874.63        68.54228
875.03        68.45615
875.43        68.53596
875.83        68.71423
876.23        68.95033
876.63        69.15007
877.03        69.28255
877.44        69.43109
877.84         69.4639
878.24        69.19641
878.64        68.63218
879.04        67.79844
879.44        67.06416
879.84        66.96931
880.24        67.56767
880.64        68.73087
881.04        69.88894
881.44        70.01617
881.84        68.92265
882.24        67.01933
882.65        65.10949
883.05        64.24043
883.45        64.66462
883.85        66.04311
884.25        67.87168
884.65        69.21442
885.05        69.69784
885.45        69.57649
885.85        69.10535
886.25        68.68201
886.65        68.44448
887.05        68.23833
887.45        68.01618
887.85         67.7438
888.25         67.4211
888.65        67.13683
889.04        66.91186
889.44        66.76715
889.84        66.70239
890.24        66.71887
890.64         66.8284
891.04        67.06063
891.44        67.39558
891.84        67.78149
892.24        68.19234
892.64        68.59332
893.04          68.974
893.44        69.37019
893.83        69.71789
894.23        69.82832
894.63        69.71383
895.03        69.38094
895.43        69.09148
895.83        69.26439
896.23        69.94579
896.63        71.00621
897.02          71.992
897.42        72.16332
897.82        71.39786
898.22        69.96142
898.62        68.40279
899.01        67.47961
899.41        67.38099
899.81        67.92538
900.21        68.72636
900.61        69.05479
901.00        68.68842
901.40        67.91813
901.80        67.21383
902.20        67.23065
902.59        68.11111
902.99        69.61578
903.39        71.28754
903.79         72.1568
904.18        71.89528
904.58        70.85441
904.98        69.64011
905.38        69.08769
905.77        69.35234
906.17        70.17707
906.57        71.19848
906.96        71.85129
907.36        71.90025
907.76        71.55798
908.15        71.02663
908.55        70.55518
908.95         70.2863
909.34        70.10886
909.74        69.99754
910.14        69.88737
910.53        69.75623
910.93        69.68016
911.33        69.66192
911.72        69.69539
912.12        69.77438
912.52        69.87436
912.91        70.02415
913.31        70.25283
913.70        70.57382
914.10        70.91494
914.49        71.21297
914.89        71.28542
915.29        71.12126
915.68        70.78523
916.08        70.38499
916.47        70.03752
916.87        69.82279
917.26        69.66442
917.66        69.61798
918.05        69.75008
918.45        70.01945
918.84        70.46912
919.24        70.83827
919.64        70.78641
920.03         70.2543
920.42        69.34488
920.82        68.45936
921.21        68.03601
921.61        68.16359
922.00        68.76389
922.40        69.51392
922.79        69.93586
923.19        69.84674
923.58        69.42036
923.98        68.98852
924.37        69.01081
924.77        69.58426
925.16        70.55836
925.55        71.64132
925.95        72.29932
926.34        72.38592
926.74        72.03822
927.13        71.44398
927.52        70.88818
927.92        70.47514
928.31        70.11375
928.70        69.81892
929.10        69.59747
929.49        69.47353
929.89        69.50755
930.28        69.64407
930.67        69.72742
931.07        69.71275
931.46        69.60789
931.85        69.60683
932.24        70.06422
932.64         70.9922
933.03        72.34374
933.42        73.62924
933.82         74.0634
934.21        73.50308
934.60        72.16047
934.99        70.68556
935.39        70.03922
935.78        70.42683
936.17        71.57731
936.56        72.90826
936.96        73.42467
937.35          72.907
937.74        71.66507
938.13        70.19492
938.53        69.26942
938.92         69.0984
939.31        69.48495
939.70         70.1638
940.09         70.7635
940.49        71.08839
940.88        71.21056
941.27        71.29613
941.66        71.64218
942.05        72.27166
942.44        73.10304
942.84        73.54626
943.23        72.66325
943.62        70.48532
944.01        67.54992
944.40        64.92006
944.79        63.91645
945.18        64.71598
945.57        66.96697
945.97        69.85419
946.36        71.95333
946.75         72.4943
947.14        71.85749
947.53        70.67773
947.92        70.02931
948.31        70.22061
948.70        70.83346
949.09        71.58379
949.48        72.04455
949.87        72.05705
950.26        71.87824
950.65        71.49329
951.04        70.81291
951.43        69.91957
951.82        68.84408
952.21        67.93464
952.60        67.73669
952.99        68.31438
953.38        69.49795
953.77        70.83706
954.16        71.53766
954.55        71.35236
954.94        70.48386
955.33        69.29282
955.72        68.39351
956.11        68.00351
956.50        67.98401
956.89        68.15612
957.28        68.21984
957.66        68.10178
958.05        67.90412
958.44        67.81631
958.83        68.10882
959.22        68.80299
959.61        69.73917
960.00         70.6385
960.39        71.04221
960.78        70.82439
961.16         70.1665
961.55        69.25804
961.94        68.38372
962.33        67.68822
962.72        67.10153
963.11        66.78748
963.49        67.02485
963.88        67.76634
964.27        68.94477
964.66        70.16926
965.04        70.78822
965.43        70.57346
965.82        69.72088
966.21        68.57511
966.60        67.74715
966.98        67.45311
967.37        67.50779
967.76        67.76644
968.15        67.95937
968.53        68.00378
968.92        67.96945
969.31        67.91854
969.69        67.90928
970.08        67.94163
970.47        67.99654
970.86        68.05769
971.24        68.12366
971.63        68.20214
972.02        68.34868
972.40        68.63583
972.79        69.11388
973.17        69.83425
973.56         70.6571
973.95        71.58893
974.33        72.68821
974.72        73.83189
975.11        74.99165
975.49        76.00272
975.88        76.39233
976.26        76.04862
976.65        75.07108
977.04        73.63733
977.42        71.92849
977.81        70.11926
978.19        68.20116
978.58        66.47873
978.96         65.2192
979.35        64.49377
979.74        64.18246
980.12        64.14584
980.51         63.9935
980.89        63.71027
981.28        63.46995
981.66        63.27467
982.05         63.0631
982.43        62.91126
982.82        62.72779
983.20        63.02502
983.59        64.66027
983.97        67.79392
984.35        72.19863
984.74        76.57076
985.12        78.66483
985.51        77.61607
985.89        74.24741
986.28        70.13612
986.66        67.16473
987.04         65.9013
987.43        65.74397
987.81        66.39494
988.20        67.10172
988.58        67.61956
988.96        68.31948
989.35        68.92207
989.73        69.04666
990.12        68.61475
990.50        67.51696
990.88        66.50666
991.27        66.80356
991.65        68.65063
992.03        71.98687
992.42        75.37939
992.80        76.17502
993.18        73.45385
993.56        68.40688
993.95         63.5775
994.33        61.60545
994.71        62.98514
995.10        66.96087
995.48        72.15289
995.86        74.88578
996.24        73.66451
996.63        69.79333
997.01        65.27607
997.39        62.77246
997.77        62.90216
998.15        64.79288
998.54        67.67947
998.92        70.22563
999.30        71.78764
999.68        72.81609
1000.06        73.27586
1000.45        73.04647
1000.83        72.39769
1001.21        71.20158
1001.59        69.90044
1001.97        69.18501
1002.35        69.18308
1002.73        69.79935
1003.12          70.792
1003.50        71.75713
1003.88        72.44123
1004.26        72.95801
1004.64        73.30259
1005.02        73.52644
1005.40        73.58845
1005.78        73.25674
1006.16        72.68061
1006.54        72.13625
1006.92         71.7031
1007.30          71.557
1007.69        71.07034
1008.07        69.24218
1008.45        66.23807
1008.83        62.70227
1009.21        60.13607
1009.59        60.17374
1009.97        62.89342
1010.35        68.05019
1010.73        74.21783
1011.11        77.71613
1011.49        76.79019
1011.86        72.08787
1012.24        66.25642
1012.62        63.38676
1013.00        64.72388
1013.38        69.79669
1013.76        76.66657
1014.14        79.81757
1014.52        77.38796
1014.90         72.1283
1015.28        67.37909
1015.66        66.16934
1016.04        68.72692
1016.41        74.42477
1016.79        81.96892
1017.17         88.1789
1017.55        90.53116
1017.93        89.57336
1018.31        85.43813
1018.69        79.55641
1019.06        73.64436
1019.44         68.3492
1019.82        64.77595
1020.20        63.73564
1020.58        64.86763
1020.95        68.19739
1021.33        72.56309
1021.71        74.76523
1022.09        73.34943
1022.46        68.86565
1022.84         63.9994
1023.22        62.09144
1023.60        63.94899
1023.97        69.70244
1024.35        77.10197
1024.73        78.63126
