SpectraSmart Spectrum 2.9.0.0
--------- Device Information -----------
Spectrum Name :  反射率_0
Saving Time :  2024/05/03 20:47:30
Spectro-Module Model Name : SE2030-DUVN
Spectro-Module Serial Number : OS361AC55029948
Wavelength Start : 200
Wavelength End : 1025
Wavelength Unit : Wavelength(nm)
Spectrum Unit : Reflectance(%)
-----------Spectrum Setting ------------
Integration Time : 20ms
Average : 10
Boxcar : 0
Background removal :  enabled
linearity correction :  enabled
SC :  disabled
Intensity correction :  disabled
DWT denoise :  enabled
savitzky-golay :  disabled
FFT :  disabled
Running average :  disabled
Kalman :  disabled
High pass :  disabled
---------------BEGIN--------------------
Wavelength(nm)             Reflectance(%)
200.29               0
200.75        74.15189
201.21        137.3383
201.67       -4117.449
202.13       -135.6338
202.58       -71.69675
203.04        -48.0133
203.50       -38.33065
203.96        -41.4619
204.42       -62.50419
204.88       -152.7846
205.34        3120.458
205.80        295.1461
206.26        291.8034
206.72        51096.05
207.18       -118.6849
207.64       -58.24848
208.10       -64.18467
208.55       -138.6977
209.01       -911.0228
209.47       -1143.124
209.93       -120.6422
210.39       -24.06816
210.85        2.401789
211.31        14.61202
211.77        25.16672
212.23        43.58041
212.69        85.11117
213.14        109.0922
213.60        50.55785
214.06        13.50105
214.52       -1.534073
214.98       -8.269298
215.44       -13.63143
215.90       -25.72199
216.36        110.8339
216.81        10.08969
217.27        1.153095
217.73        -12.6323
218.19       -81.74885
218.65       -1910.329
219.11       -138.9528
219.57       -30.42851
220.02        -17.8542
220.48       -72.19201
220.94        158.4476
221.40        71.05959
221.86        57.56644
222.32        53.48581
222.77        52.40894
223.23        53.41882
223.69        55.59097
224.15         55.1446
224.61        51.29219
225.06        46.98748
225.52        45.76497
225.98        49.18599
226.44        57.26163
226.90        70.23978
227.36        86.00404
227.81        94.70589
228.27        90.71538
228.73        79.67012
229.19        67.82198
229.65          59.805
230.10         55.4673
230.56        53.37528
231.02        52.64697
231.48        52.72331
231.93        53.26233
232.39        54.51581
232.85        56.04371
233.31        57.27119
233.77        58.06624
234.22        58.35674
234.68        58.61382
235.14        59.71229
235.60        61.81688
236.05        64.85722
236.51        67.58498
236.97        67.75146
237.43        64.88566
237.88        60.11755
238.34        55.37074
238.80         52.6032
239.26        52.16149
239.71        55.87636
240.17        61.83921
240.63        69.95751
241.08        74.28419
241.54        72.50044
242.00        68.18353
242.46        66.87512
242.91        70.07526
243.37        77.13438
243.83        88.87374
244.28        97.62099
244.74        88.15772
245.20         65.5887
245.66        41.43405
246.11        21.52983
246.57        6.393776
247.03        -4.75451
247.48       -11.77969
247.94       -15.63898
248.40       -16.93011
248.85       -16.54818
249.31       -13.91429
249.77       -9.205144
250.22       -4.009887
250.68       0.4900545
251.14        4.407454
251.59        8.874535
252.05        15.29154
252.51        25.33621
252.96        40.17227
253.42        55.76746
253.88         64.9514
254.33        66.94486
254.79         64.9232
255.25        62.35473
255.70        60.46468
256.16        59.34899
256.62        59.29379
257.07        60.66605
257.53        63.32689
257.99        66.38747
258.44        68.58965
258.90        69.05841
259.35        67.59464
259.81         65.5167
260.27        63.31733
260.72        61.53757
261.18        60.57714
261.63        59.86369
262.09        59.47739
262.55         59.0876
263.00          58.558
263.46        58.07747
263.91         57.5723
264.37        57.26014
264.83        57.07452
265.28        56.90319
265.74        56.71717
266.19        56.20156
266.65        55.46457
267.11        54.52311
267.56        53.53794
268.02        52.85054
268.47        52.44072
268.93        52.23411
269.38        52.02259
269.84        51.46558
270.30        50.54299
270.75        49.40735
271.21        48.33761
271.66        47.60077
272.12        47.25367
272.57        47.11883
273.03        47.07959
273.48        46.97571
273.94        46.74816
274.39        46.44207
274.85        45.98005
275.31        45.12973
275.76        43.91351
276.22        42.51779
276.67        41.22101
277.13        40.54667
277.58        40.44509
278.04        40.77295
278.49        41.12456
278.95        40.93676
279.40        40.07284
279.86        38.86786
280.31        37.57435
280.77        36.65772
281.22        36.09467
281.68        35.78125
282.13        35.54068
282.59        35.22197
283.04        34.75379
283.50        34.24266
283.95        33.71286
284.41        33.23639
284.86        32.81111
285.32        32.44656
285.77        32.11695
286.22        31.86382
286.68        31.69688
287.13        31.56526
287.59        31.48164
288.04        31.39281
288.50        31.30781
288.95        31.20831
289.41        31.08376
289.86        30.86753
290.32        30.59315
290.77        30.26878
291.22        29.98749
291.68        29.86788
292.13        29.91641
292.59         30.1236
293.04        30.41573
293.50         30.6871
293.95        30.89855
294.40         31.0884
294.86        31.32402
295.31        31.69814
295.77        32.23286
296.22         32.8787
296.68        33.57233
297.13        34.20885
297.58        34.73696
298.04        35.20599
298.49        35.60817
298.95        35.98304
299.40         36.3399
299.85        36.68582
300.31        37.09951
300.76        37.67109
301.21        38.41291
301.67         39.2842
302.12        40.15319
302.58        40.84207
303.03        41.28341
303.48        41.54159
303.94        41.72955
304.39        41.95141
304.84        42.26864
305.30        42.64165
305.75        43.01657
306.20        43.35112
306.66        43.64087
307.11        43.88063
307.57        44.09289
308.02        44.22156
308.47        44.29481
308.93        44.33335
309.38        44.35674
309.83        44.44968
310.29         44.6243
310.74        44.83799
311.19        45.05282
311.65        45.20193
312.10        45.24886
312.55        45.21168
313.00        45.09518
313.46        44.91238
313.91        44.66718
314.36        44.38687
314.82         44.1048
315.27        43.85801
315.72        43.67184
316.18        43.53975
316.63        43.47436
317.08        43.49632
317.53        43.59364
317.99        43.74472
318.44        43.88972
318.89        43.90924
319.35        43.77209
319.80         43.5041
320.25        43.17242
320.70        42.89827
321.16        42.70427
321.61        42.56393
322.06        42.41963
322.51        42.17862
322.97        41.82052
323.42        41.40226
323.87         40.9659
324.32        40.57812
324.78        40.25935
325.23        39.99903
325.68        39.79571
326.13        39.65481
326.59        39.55249
327.04        39.50628
327.49        39.46234
327.94        39.34428
328.39        39.13208
328.85        38.83043
329.30        38.50261
329.75        38.21865
330.20        38.00734
330.66        37.83846
331.11        37.71635
331.56        37.59447
332.01        37.46062
332.46         37.3339
332.92        37.19681
333.37        37.06404
333.82        36.92239
334.27        36.76315
334.72        36.61515
335.17        36.53376
335.63        36.51369
336.08        36.55671
336.53        36.58993
336.98        36.50895
337.43         36.2935
337.88        35.98288
338.34        35.64303
338.79        35.38706
339.24        35.25064
339.69        35.20778
340.14        35.23123
340.59        35.27436
341.05          35.313
341.50        35.35848
341.95        35.40548
342.40        35.44938
342.85        35.48596
343.30        35.50851
343.75        35.50053
344.20        35.44508
344.66        35.35232
345.11        35.22385
345.56        35.10123
346.01        35.04239
346.46        35.05912
346.91        35.13496
347.36        35.22883
347.81        35.27468
348.26         35.2552
348.72        35.19002
349.17        35.10391
349.62        35.04731
350.07        35.03184
350.52        35.03856
350.97        35.04068
351.42         34.9998
351.87         34.9038
352.32        34.76231
352.77        34.59793
353.22         34.4458
353.67        34.31818
354.13        34.21964
354.58        34.11085
355.03        33.95658
355.48        33.75665
355.93        33.53135
356.38         33.3306
356.83        33.22953
357.28        33.23923
357.73        33.32902
358.18        33.44026
358.63        33.48033
359.08        33.41798
359.53        33.27097
359.98        33.07177
360.43         32.8768
360.88        32.70015
361.33        32.52312
361.78        32.32397
362.23        32.06671
362.68        31.75332
363.13        31.41673
363.58        31.08399
364.03        30.79561
364.48        30.56777
364.93        30.38249
365.38         30.2565
365.83        30.21146
366.28        30.23618
366.73        30.32155
367.18        30.38511
367.63        30.29708
368.08        30.03461
368.53        29.63153
368.98        29.20532
369.43        28.93839
369.88        28.86862
370.33        28.94888
370.78        29.05854
371.23         28.9915
371.68        28.69847
372.13         28.2484
372.58        27.77479
373.03        27.47705
373.48        27.39887
373.93        27.47556
374.38        27.59147
374.83        27.55903
375.28        27.32871
375.72        26.95574
376.17        26.56499
376.62        26.28975
377.07        26.16075
377.52        26.13239
377.97        26.13274
378.42        26.05176
378.87        25.86733
379.32        25.62362
379.77        25.39154
380.22        25.26606
380.67         25.2595
381.11        25.33869
381.56        25.42606
382.01        25.41363
382.46        25.27451
382.91        25.05108
383.36        24.80284
383.81        24.61376
384.26        24.50461
384.71        24.44711
385.15        24.41081
385.60        24.36712
386.05        24.29523
386.50        24.20526
386.95        24.10486
387.40        24.00075
387.85        23.90092
388.29        23.80062
388.74         23.7106
389.19         23.5932
389.64        23.44621
390.09        23.27169
390.54        23.12917
390.98        23.09082
391.43        23.16869
391.88        23.36989
392.33        23.58217
392.78        23.52724
393.23        23.25153
393.67        23.04845
394.12        22.97024
394.57        22.85652
395.02        22.72161
395.47        22.66059
395.91        22.67321
396.36        22.68637
396.81        22.70016
397.26        22.74375
397.71        22.76987
398.15        22.73428
398.60        22.66671
399.05        22.44666
399.50        22.18319
399.95        22.28917
400.39        22.67187
400.84        22.66478
401.29        22.29067
401.74        22.12927
402.18        22.20471
402.63        22.19483
403.08        22.11965
403.53        21.98198
403.97        22.09861
404.42        22.16288
404.87        22.23275
405.32        22.24654
405.76        22.18951
406.21        22.08902
406.66        21.96577
407.11        21.86013
407.55        21.78913
408.00        21.73345
408.45        21.69001
408.90        21.64767
409.34        21.60099
409.79        21.55736
410.24        21.51764
410.68        21.47574
411.13        21.43499
411.58         21.3975
412.03        21.36156
412.47        21.33163
412.92        21.30284
413.37        21.27233
413.81        21.25167
414.26        21.28399
414.71        21.36116
415.15        21.48442
415.60        21.58892
416.05        21.58665
416.49        21.46139
416.94        21.24963
417.39        21.03394
417.83        20.93295
418.28        20.97145
418.73        21.10788
419.17        21.28512
419.62        21.39137
420.07        21.39169
420.51        21.31273
420.96        21.19036
421.41        21.05986
421.85        20.93112
422.30        20.81096
422.74        20.69261
423.19        20.62699
423.64        20.60246
424.08        20.58574
424.53        20.57247
424.98        20.63836
425.42        20.79439
425.87        20.94345
426.31        21.06579
426.76         21.2622
427.21        21.45701
427.65        21.36492
428.10        21.06624
428.54        20.90995
428.99        20.94384
429.44         21.1147
429.88        21.28885
430.33        21.14058
430.77        20.76059
431.22        20.63082
431.66        20.78489
432.11        21.01069
432.56        21.21649
433.00        21.38623
433.45        21.34191
433.89        21.10525
434.34        20.11889
434.78        20.14518
435.23        20.95691
435.67        21.21086
436.12        20.88469
436.57        20.72121
437.01        20.79029
437.46        20.82102
437.90        20.82125
438.35        20.86743
438.79        20.92088
439.24        20.90877
439.68         20.8336
440.13        20.76974
440.57         20.7237
441.02         20.6753
441.46        20.62571
441.91        20.59002
442.35         20.5593
442.80        20.62279
443.24        20.73472
443.69        20.77025
444.13        20.72484
444.58        20.71234
445.02        20.73263
445.47        20.71422
445.91        20.66451
446.36        20.64555
446.80        20.65562
447.24         20.6843
447.69        20.71239
448.13        20.70697
448.58        20.66683
449.02        20.60222
449.47        20.54059
449.91        20.51028
450.36        20.52278
450.80        20.55897
451.25         20.6076
451.69        20.64205
452.13        20.65429
452.58        20.65266
453.02        20.63068
453.47        20.58883
453.91        20.52977
454.36        20.45446
454.80        20.37328
455.24        20.33517
455.69        20.35643
456.13        20.35473
456.58        20.31828
457.02        20.46733
457.46        20.46585
457.91        20.39292
458.35        20.20211
458.79        20.18102
459.24         20.3124
459.68        20.33748
460.13        20.28019
460.57        20.28509
461.01        20.36327
461.46        20.42797
461.90         20.4509
462.34        20.41473
462.79        20.31079
463.23        20.14721
463.68        19.98356
464.12        19.90014
464.56        19.91258
465.01        20.05258
465.45        20.22418
465.89        20.22918
466.34        20.10673
466.78        20.08234
467.22        20.17959
467.67        20.25325
468.11        20.28997
468.55        20.29657
468.99         20.2751
469.44        20.25782
469.88        20.24996
470.32        20.21136
470.77        20.16351
471.21        20.17336
471.65        20.24408
472.10        20.35267
472.54        20.46021
472.98        20.51778
473.42        20.51353
473.87        20.47206
474.31        20.40393
474.75        20.34474
475.20        20.31415
475.64         20.2952
476.08         20.2921
476.52         20.3166
476.97        20.36765
477.41        20.43047
477.85        20.48841
478.29        20.66529
478.74        20.64389
479.18        20.82226
479.62        21.06015
480.06         21.1708
480.50        21.13583
480.95        21.06367
481.39        20.99516
481.83        20.96859
482.27        21.01352
482.72        21.14976
483.16        21.32663
483.60        21.45227
484.04        21.51538
484.48        21.48333
484.93        21.47417
485.37        21.70972
485.81        22.23212
486.25        22.52334
486.69        22.93093
487.14        22.86707
487.58        22.43006
488.02        22.50312
488.46        22.90184
488.90         22.4236
489.34        22.38924
489.79        22.46553
490.23        23.00239
490.67        23.30334
491.11        23.34245
491.55        23.39732
491.99        23.48871
492.43        23.58039
492.88        23.67984
493.32        23.79033
493.76        23.90312
494.20        24.02326
494.64        24.15238
495.08        24.30426
495.52        24.48027
495.96         24.6376
496.41        24.78858
496.85        25.03072
497.29        25.32869
497.73        25.52108
498.17         25.6034
498.61        25.71606
499.05        25.85505
499.49        25.87886
499.93        25.82986
500.37        25.90594
500.82        26.09251
501.26        26.21489
501.70        26.26151
502.14        26.33404
502.58        26.44287
503.02        26.55659
503.46        26.67446
503.90        26.80096
504.34        26.92508
504.78        27.03088
505.22         27.1139
505.66        27.16995
506.10         27.1939
506.54        27.24132
506.98        27.33027
507.42        27.34265
507.86        27.24997
508.30        27.59902
508.74         27.4262
509.18         27.5105
509.62        27.57795
510.06        27.67676
510.50        27.79992
510.94        27.94366
511.38        28.08467
511.82        28.15821
512.26        28.15401
512.70        28.09306
513.14        28.00392
513.58        27.93212
514.02        27.89501
514.46        27.88279
514.90        27.89644
515.34        27.93472
515.78        27.99396
516.22        28.07731
516.66         28.1676
517.10         28.2363
517.54        28.27472
517.98        28.28182
518.42        28.27731
518.86        28.29658
519.30        28.34512
519.74         28.4135
520.18        28.46727
520.62        28.45099
521.06         28.3566
521.50        28.20495
521.93        28.04477
522.37        27.95694
522.81        27.95585
523.25        28.01558
523.69         28.0905
524.13        28.10676
524.57        28.04778
525.01        27.94331
525.45        27.82203
525.89        27.72904
526.32        27.67845
526.76        27.65552
527.20        27.66135
527.64        27.70163
528.08        27.76886
528.52        27.86019
528.96        27.94065
529.40         27.9544
529.83        27.88641
530.27         27.7558
530.71        27.60295
531.15        27.49656
531.59        27.45357
532.03         27.4599
532.46        27.47604
532.90        27.43781
533.34        27.33776
533.78        27.20656
534.22        27.08904
534.66        27.04856
535.09        27.08909
535.53        27.18308
535.97        27.29657
536.41        27.35679
536.85        27.34016
537.28        27.34206
537.72        27.34783
538.16        27.16349
538.60        26.88768
539.04        26.90035
539.47        27.15929
539.91        27.28955
540.35        27.27058
540.79        27.32702
541.22        27.45672
541.66        27.56977
542.10        27.66444
542.54         27.7226
542.97        27.76769
543.41        27.94788
543.85        28.22033
544.29        28.36279
544.72        28.37868
545.16         28.4751
545.60        28.65381
546.04        28.80474
546.47         28.9262
546.91        29.06847
547.35        29.23096
547.79        29.41063
548.22        29.60324
548.66        29.79945
549.10        30.00588
549.53        30.29451
549.97        30.62561
550.41        30.86563
550.84        30.99201
551.28         31.0719
551.72        31.13056
552.15        31.18629
552.59        31.26976
553.03        31.36236
553.46        31.46337
553.90        31.61255
554.34        31.79346
554.77        31.96833
555.21        32.12806
555.65        32.28289
556.08        32.42239
556.52        32.53562
556.96        32.62609
557.39           32.73
557.83        32.86256
558.27        32.97076
558.70        33.05436
559.14        33.19111
559.57        33.34113
560.01        33.37635
560.45        33.32819
560.88        33.34739
561.32        33.45871
561.75        33.60148
562.19        33.77353
562.63        33.83226
563.06        33.80849
563.50        34.06075
563.93        34.48362
564.37         34.4641
564.80        34.09381
565.24        34.11017
565.68        34.47614
566.11         34.6496
566.55        34.63076
566.98        34.68143
567.42        34.81458
567.85        35.05887
568.29        35.16267
568.72        35.26439
569.16        35.35428
569.60        35.53237
570.03        35.73746
570.47        36.03214
570.90        36.37069
571.34        36.35859
571.77        36.93408
572.21        36.70644
572.64        37.02362
573.08        36.72387
573.51        37.34987
573.95        37.45536
574.38         37.4874
574.82        37.31258
575.25        37.82522
575.69        38.11866
576.12        37.79308
576.56        37.49306
576.99        37.59408
577.42        38.29428
577.86        37.95463
578.29        37.98417
578.73        38.06164
579.16        38.11467
579.60        38.11299
580.03        38.06568
580.47        37.93517
580.90        37.86697
581.33        37.42297
581.77        37.56566
582.20        38.28139
582.64        37.81432
583.07        37.80164
583.51        37.32859
583.94        37.05403
584.37        36.75889
584.81        36.57268
585.24        36.49476
585.68        37.10225
586.11        36.47547
586.54        36.61044
586.98        36.28797
587.41        36.03451
587.85        36.41922
588.28        36.44967
588.71        36.14676
589.15        35.98228
589.58        36.12658
590.01        35.81554
590.45        35.55875
590.88        35.73771
591.31        35.86163
591.75        36.02688
592.18        35.96146
592.61         35.7905
593.05        35.89303
593.48        36.63332
593.91        36.77136
594.35        36.52053
594.78        36.45952
595.21        36.64933
595.65        36.71304
596.08        36.57699
596.51        37.01048
596.94        37.03722
597.38        37.17977
597.81        37.06215
598.24        37.84615
598.68        37.97023
599.11        37.75433
599.54        38.88792
599.97        38.90046
600.41        39.22137
600.84        39.43016
601.27        39.78992
601.70        40.02485
602.14        40.21174
602.57        40.62717
603.00        41.24392
603.43        41.57034
603.87        41.59201
604.30        42.28285
604.73          42.455
605.16        42.85619
605.60        42.51106
606.03        42.92986
606.46         43.8376
606.89        43.86887
607.32        44.46199
607.76        44.50215
608.19        45.01185
608.62        45.29274
609.05        45.47228
609.48        45.67842
609.92          46.144
610.35        45.69997
610.78        47.21201
611.21        47.81787
611.64        47.68479
612.07         47.7103
612.50        47.82666
612.94        47.89222
613.37          47.918
613.80        48.37359
614.23        48.53204
614.66        48.75949
615.09        48.88976
615.52        49.08436
615.96        49.30077
616.39        49.66969
616.82        49.76659
617.25        49.64825
617.68        50.14946
618.11        49.95359
618.54        49.54052
618.97        49.65377
619.40         50.2875
619.84        50.72005
620.27        50.91263
620.70         51.1102
621.13        51.32574
621.56        51.10883
621.99        50.79707
622.42        50.88927
622.85        51.39264
623.28        51.34904
623.71        51.07164
624.14        51.26991
624.57          51.009
625.00        51.01825
625.43        51.14829
625.86        51.15662
626.29        50.99658
626.72        51.43178
627.15        51.07175
627.58        51.02497
628.01        50.86763
628.44        50.71597
628.87         50.3845
629.30        50.20083
629.73        50.08081
630.16         50.0102
630.59        49.67094
631.02        49.41525
631.45        49.18816
631.88        49.00392
632.31        48.86152
632.74        48.75136
633.17        48.61543
633.60        48.35307
634.03        47.94765
634.46        47.43726
634.89        46.88436
635.32        46.38834
635.75        45.98302
636.18        45.64462
636.61        45.35652
637.04        45.08603
637.47        44.81226
637.89        44.56247
638.32        44.32095
638.75         44.0375
639.18        43.69224
639.61        43.49496
640.04        43.17293
640.47         42.8825
640.90         42.5221
641.33        42.54334
641.76        42.19105
642.18        42.11026
642.61        42.06375
643.04        42.06291
643.47        42.08335
643.90        42.09962
644.33         42.1052
644.76        42.10268
645.18        42.10654
645.61        42.08572
646.04        42.04534
646.47        42.09467
646.90         42.2786
647.33        42.17125
647.75        42.57994
648.18        42.81639
648.61        43.12398
649.04        43.55659
649.47        44.07432
649.89        44.51939
650.32        44.84178
650.75        45.14938
651.18        45.46532
651.61        45.70026
652.03        45.88245
652.46        46.30712
652.89        46.90476
653.32         47.0137
653.74        46.87053
654.17        47.45607
654.60        47.75964
655.03        48.84874
655.46        48.61693
655.88        48.69146
656.31        51.88176
656.74        57.55407
657.16        54.44948
657.59         51.0299
658.02        51.33869
658.45        51.88427
658.87        52.17317
659.30        51.60271
659.73        51.53429
660.15        52.30541
660.58        52.09817
661.01        52.33938
661.44         52.3624
661.86        52.40651
662.29        52.49733
662.72        52.89318
663.14        53.50871
663.57        53.60839
664.00        53.29848
664.42        53.42276
664.85        53.97016
665.27        54.23309
665.70        54.18029
666.13        54.24455
666.55        54.43409
666.98        54.52127
667.41        54.53534
667.83        54.60123
668.26        54.72785
668.69        54.91133
669.11         55.0857
669.54        55.13433
669.96        55.04559
670.39        54.86167
670.82        54.73727
671.24        54.87098
671.67        55.28881
672.09        55.99396
672.52        56.79719
672.94         56.9713
673.37        57.10796
673.80        56.76825
674.22        56.35462
674.65        56.17614
675.07        56.33207
675.50        56.70734
675.92        57.16131
676.35        57.43859
676.77        57.47884
677.20        57.37191
677.62        57.22443
678.05        57.20145
678.47        57.34484
678.90        57.59363
679.32        57.87922
679.75        58.14998
680.17        58.37667
680.60        58.50058
681.02        58.51918
681.45        58.77482
681.87        58.66026
682.30        58.71741
682.72        58.75601
683.15        58.63951
683.57        58.44508
684.00        58.49152
684.42        58.74821
684.85        58.89423
685.27        58.90302
685.70         58.8881
686.12         58.8744
686.54        59.03115
686.97         59.2815
687.39        59.28338
687.82        59.04117
688.24        58.94149
688.66        59.01534
689.09        58.97023
689.51        58.86985
689.94        59.11062
690.36        59.65902
690.78        59.98739
691.21        59.97338
691.63        60.56422
692.06         60.2155
692.48        60.40583
692.90        60.64151
693.33        60.73744
693.75        60.69722
694.17        60.58723
694.60        60.48383
695.02        60.89415
695.44        60.95959
695.87        61.44331
696.29        61.93272
696.71        61.94583
697.14        61.52554
697.56        61.20375
697.98         61.1071
698.41         61.0342
698.83        60.99949
699.25         61.2065
699.68        61.54685
700.10        61.79095
700.52        61.86333
700.94        61.83665
701.37        61.76782
701.79        61.77183
702.21         61.8646
702.64        62.00317
703.06        62.13811
703.48        62.20194
703.90        62.18819
704.33        62.13708
704.75        62.08884
705.17        62.08916
705.59        62.15119
706.01        62.24337
706.44        62.38465
706.86        62.60445
707.28        62.86581
707.70        63.23866
708.12        63.60834
708.55        63.59258
708.97        63.25727
709.39        63.11776
709.81        63.21663
710.23        63.21696
710.66        63.13253
711.08        63.21727
711.50        63.43328
711.92        63.60847
712.34        63.71978
712.76        63.81163
713.19        63.87442
713.61        63.94806
714.03        64.01108
714.45        64.04256
714.87        64.04381
715.29         64.0256
715.71         63.9898
716.13        63.94228
716.56        63.86152
716.98        63.77634
717.40        63.67863
717.82        63.58269
718.24        63.52268
718.66        63.54982
719.08        63.66911
719.50        63.85354
719.92        64.07404
720.34        64.28385
720.76        64.46417
721.19        64.61361
721.61        64.72124
722.03        64.77033
722.45        64.79299
722.87         64.6464
723.29        64.38505
723.71        64.53629
724.13        65.12682
724.55        64.60154
724.97        64.96935
725.39        64.91069
725.81        65.02201
726.23         65.0898
726.65        65.14069
727.07        65.13295
727.49        65.28163
727.91        65.39843
728.33        65.53534
728.75         65.6658
729.17        65.78185
729.59        65.88303
730.01        65.97488
730.43        66.08491
730.85        66.21694
731.27        66.33398
731.69        66.39832
732.10        66.52399
732.52        66.49059
732.94        66.42838
733.36        66.29186
733.78         66.4054
734.20        66.33954
734.62        66.45724
735.04        66.58164
735.46        66.67924
735.88        66.69421
736.30        66.62452
736.72        66.55427
737.13        66.63161
737.55        66.76633
737.97        67.03008
738.39        67.33192
738.81        66.81068
739.23        66.19199
739.65        66.52184
740.06        67.66658
740.48        68.01823
740.90        67.47954
741.32        66.94247
741.74        66.61434
742.16        66.43328
742.57        66.48692
742.99        66.79066
743.41         67.2283
743.83        67.55184
744.25         67.7105
744.67        67.82723
745.08        67.95283
745.50        68.04581
745.92        68.13626
746.34         68.2496
746.75        68.32227
747.17        68.26075
747.59        68.05158
748.01        67.71651
748.42        67.39088
748.84        67.27051
749.26        67.35203
749.68        67.65495
750.09        68.04294
750.51        67.92495
750.93        67.50632
751.35        67.91702
751.76        68.99708
752.18        69.38823
752.60        68.99244
753.01        68.57977
753.43        68.33304
753.85        68.15472
754.27        68.07751
754.68        68.44361
755.10        68.63173
755.52        68.77075
755.93        68.73601
756.35         68.9708
756.77        69.36497
757.18          69.285
757.60        69.39046
758.02         68.8539
758.43        68.15187
758.85         69.0685
759.26         70.8689
759.68        71.26319
760.10        69.91963
760.51        70.31944
760.93        69.67818
761.34        69.43578
761.76        70.05494
762.18        69.56058
762.59        68.64127
763.01        68.72451
763.42        69.78425
763.84        70.35066
764.26        70.20493
764.67        69.49896
765.09        68.65219
765.50        68.71769
765.92        69.55383
766.33        69.70242
766.75        69.11166
767.16        69.03104
767.58        69.53073
768.00        69.99933
768.41        70.37399
768.83        70.96281
769.24        71.48829
769.66        71.12204
770.07        70.07861
770.49        69.33083
770.90        69.07432
771.32        69.26792
771.73        69.78107
772.15        70.13152
772.56          70.267
772.97        70.46539
773.39        70.70011
773.80         70.8866
774.22        70.95322
774.63        70.86739
775.05        70.65219
775.46        70.50022
775.88        70.43391
776.29        70.41062
776.70        70.41249
777.12         70.4404
777.53        70.49676
777.95        70.55408
778.36        70.64315
778.77        70.71511
779.19        70.76431
779.60        70.98341
780.02        71.28486
780.43        71.16164
780.84        70.81341
781.26        71.04765
781.67        71.83746
782.09        72.50555
782.50        72.81406
782.91        72.62253
783.33        72.06667
783.74        71.73695
784.15        71.66708
784.57        71.68105
784.98        71.83282
785.39        71.24894
785.81        71.76847
786.22        71.86632
786.63        72.02316
787.04        72.08088
787.46        72.04913
787.87        71.91369
788.28        71.76485
788.70        71.77206
789.11        71.93925
789.52        72.23143
789.93        72.55571
790.35        72.74417
790.76        72.77687
791.17        72.70157
791.58        72.58375
792.00        72.49779
792.41        72.50234
792.82        72.58025
793.23        72.69496
793.65        72.83063
794.06        73.04527
794.47        73.23631
794.88        73.23177
795.29        73.87765
795.71        73.20304
796.12        72.90556
796.53        72.56068
796.94         72.4094
797.35        72.54156
797.76        73.01658
798.18        73.61204
798.59        73.91939
799.00        73.83597
799.41        73.21951
799.82         72.8531
800.23        72.62259
800.64        72.78133
801.06        73.17274
801.47        73.68893
801.88        74.00745
802.29        74.00935
802.70         73.7791
803.11        73.43272
803.52        73.15328
803.93        73.02238
804.34        73.00915
804.75        73.03136
805.17        73.02612
805.58        73.01138
805.99        72.76521
806.40        72.47025
806.81        72.95669
807.22        73.97266
807.63        74.22847
808.04        73.71147
808.45        73.47716
808.86        73.57924
809.27        73.34481
809.68        72.85851
810.09        72.62913
810.50        72.72639
810.91         73.0148
811.32        73.40026
811.73        73.71937
812.14        73.90641
812.55        74.00945
812.96        74.05598
813.37        74.08483
813.78        74.11517
814.19        74.13113
814.60        74.11791
815.01        74.06029
815.42        73.96064
815.83        73.82997
816.24        73.71725
816.65        73.70499
817.05        73.81829
817.46        74.00073
817.87         74.1994
818.28        74.28038
818.69        74.21578
819.10        74.03381
819.51        73.82561
819.92        73.76212
820.33        73.88316
820.74        74.12213
821.14        74.36895
821.55        74.47738
821.96        74.40321
822.37        74.21661
822.78        73.97337
823.19        73.77084
823.60        73.66278
824.00        73.63497
824.41        73.69558
824.82        73.94202
825.23        74.36391
825.64        74.92778
826.04        75.52076
826.45        75.84295
826.86        75.85432
827.27        75.62404
827.68        75.26098
828.08        74.98626
828.49        74.83151
828.90        74.75655
829.31        74.77505
829.72        74.90092
830.12        75.14829
830.53         75.4753
830.94          75.775
831.35        75.80006
831.75        75.51834
832.16         74.9381
832.57        74.30755
832.97        74.00219
833.38        74.10478
833.79        74.50045
834.20        74.96328
834.60        75.12495
835.01        74.92307
835.42        74.49176
835.82        74.01693
836.23        73.74564
836.64         73.7803
837.04         74.0586
837.45        74.46381
837.86        74.92924
838.26        75.39748
838.67        75.82865
839.08        76.16231
839.48        76.27746
839.89        76.15173
840.29        75.79038
840.70        75.30936
841.11        74.82989
841.51         74.4326
841.92        74.12877
842.33         73.9061
842.73        73.73825
843.14        73.58598
843.54         73.4772
843.95        73.54578
844.35        74.03944
844.76        74.91795
845.17        76.09692
845.57        77.24837
845.98        77.66146
846.38        77.23076
846.79        76.17808
847.19        74.90222
847.60        74.05418
848.00        73.80286
848.41        73.93749
848.81        74.38115
849.22         74.8816
849.62        75.37205
850.03        75.87706
850.43        76.28075
850.84        76.24022
851.24         75.7661
851.65        74.91211
852.05        73.99474
852.46        73.55302
852.86        73.67113
853.27        74.18595
853.67        74.82158
854.07        75.40523
854.48        75.80169
854.88        76.16106
855.29        76.23988
855.69        75.85085
856.10        74.90112
856.50        73.57417
856.90        72.26775
857.31        71.59645
857.71        71.72633
858.12         72.4696
858.52        73.60667
858.92         74.4882
859.33        74.84421
859.73        74.84816
860.13        74.62145
860.54        74.41412
860.94        74.34864
861.34        74.31099
861.75        74.19969
862.15        73.98065
862.55        73.60596
862.96        73.14129
863.36        72.70554
863.76        72.46652
864.17        72.45338
864.57        72.65593
864.97        72.88281
865.38        72.81143
865.78        72.41859
866.18         71.7548
866.58        71.10223
866.99        70.95407
867.39        71.43031
867.79        72.33258
868.19        73.27383
868.60        73.63705
869.00        73.29738
869.40        72.46709
869.80        71.44748
870.21        70.77726
870.61        70.66656
871.01        70.90241
871.41        71.35489
871.81        71.83613
872.22        72.24454
872.62        72.71986
873.02        73.16479
873.42        73.36771
873.82        73.29697
874.22        72.99062
874.63        72.71313
875.03        72.85591
875.43         73.4829
875.83        74.43168
876.23        75.43946
876.63        76.03836
877.03         76.0994
877.44        75.83375
877.84        75.29374
878.24        74.59875
878.64        73.85659
879.04        72.99866
879.44        72.34953
879.84        72.38853
880.24          73.123
880.64        74.44054
881.04        75.70004
881.44        75.73757
881.84        74.34948
882.24        72.01588
882.65        69.62644
883.05        68.33696
883.45        68.44907
883.85        69.61015
884.25        71.38033
884.65        72.92395
885.05        73.85834
885.45        74.37326
885.85         74.5819
886.25        74.68113
886.65        74.74802
887.05        74.65873
887.45        74.39542
887.85         73.9961
888.25        73.50096
888.65        72.98977
889.04        72.52319
889.44        72.18028
889.84         71.9817
890.24        71.94569
890.64        72.06212
891.04        72.30675
891.44        72.64529
891.84        73.03029
892.24        73.47346
892.64         74.0026
893.04        74.60908
893.44        75.29931
893.83        75.92068
894.23         76.1386
894.63        75.92843
895.03        75.32893
895.43        74.71402
895.83          74.681
896.23        75.32175
896.63        76.46967
897.02        77.55843
897.42        77.66333
897.82         76.6355
898.22        74.81664
898.62        72.89796
899.01        71.83508
899.41         71.8486
899.81        72.68639
900.21        73.83771
900.61        74.33894
901.00        73.89664
901.40        72.89991
901.80        71.91962
902.20         71.7418
902.59        72.54618
902.99        74.03996
903.39        75.78236
903.79        76.82757
904.18        76.82031
904.58        76.09584
904.98        75.16174
905.38        74.72008
905.77        74.91404
906.17        75.52208
906.57         76.2734
906.96        76.77501
907.36         76.8334
907.76        76.60553
908.15        76.22318
908.55        75.80729
908.95        75.46304
909.34        75.13734
909.74        74.82824
910.14        74.49074
910.53        74.13766
910.93        73.85845
911.33        73.72022
911.72        73.82388
912.12        74.17505
912.52        74.69615
912.91        75.35635
913.31        76.09177
913.70        76.86463
914.10        77.60065
914.49        78.17186
914.89        78.29372
915.29        77.94763
915.68        77.23277
916.08        76.37629
916.47        75.68668
916.87         75.3114
917.26        75.14983
917.66        75.19009
918.05          75.377
918.45        75.63164
918.84        76.02133
919.24        76.34613
919.64        76.38365
920.03        76.07858
920.42        75.46487
920.82        74.81154
921.21        74.37006
921.61        74.21105
922.00        74.32588
922.40        74.52763
922.79         74.6189
923.19        74.50943
923.58        74.28318
923.98        74.17252
924.37        74.48241
924.77        75.26199
925.16        76.42271
925.55        77.63589
925.95        78.29832
926.34        78.26522
926.74        77.66808
927.13        76.83419
927.52        76.27312
927.92        76.12426
928.31        76.24703
928.70           76.46
929.10        76.43523
929.49        76.12317
929.89          75.679
930.28        75.28246
930.67        75.15903
931.07        75.35238
931.46        75.75403
931.85        76.32157
932.24        77.02618
932.64        77.77197
933.03        78.63084
933.42         79.3166
933.82        79.39509
934.21        78.83935
934.60        77.75736
934.99        76.62562
935.39        76.14688
935.78        76.45372
936.17        77.33956
936.56        78.37135
936.96        78.79796
937.35        78.46233
937.74        77.60298
938.13        76.49749
938.53         75.5819
938.92        75.01675
939.31        74.73056
939.70        74.75514
940.09        75.16527
940.49        75.85658
940.88        76.77676
941.27          77.798
941.66        78.68185
942.05        79.27143
942.44        79.63051
942.84        79.42133
943.23        78.14955
943.62        75.96902
944.01        73.25011
944.40        70.89911
944.79         70.0392
945.18        70.80282
945.57        72.92977
945.97        75.63037
946.36        77.54613
946.75        77.94738
947.14        77.18497
947.53        75.95617
947.92        75.44164
948.31        75.95147
948.70        77.03671
949.09        78.27324
949.48        78.98873
949.87        78.96056
950.26        78.51421
950.65        77.76427
951.04        76.84492
951.43        75.90378
951.82        74.89767
952.21        74.11302
952.60        73.99951
952.99        74.58649
953.38        75.74648
953.77        77.01619
954.16        77.57203
954.55        77.17607
954.94        76.03786
955.33        74.58757
955.72        73.55894
956.11         73.1955
956.50        73.32887
956.89        73.71439
957.28        73.93133
957.66        73.87735
958.05        73.70145
958.44        73.62265
958.83        73.96243
959.22        74.75957
959.61        75.81032
960.00        76.87159
960.39        77.55323
960.78        77.70677
961.16        77.47345
961.55        76.88323
961.94        75.97648
962.33        74.86631
962.72         73.5793
963.11        72.47117
963.49        72.13275
963.88        72.62836
964.27        73.83752
964.66          75.289
965.04        76.18007
965.43        76.21448
965.82        75.61463
966.21        74.75823
966.60        74.30791
966.98        74.47046
967.37        75.00779
967.76        75.65414
968.15        75.96511
968.53        75.83326
968.92        75.38235
969.31        74.83983
969.69        74.55025
970.08        74.57235
970.47        74.78056
970.86         75.0338
971.24        75.11156
971.63        74.96492
972.02        74.78268
972.40         74.6087
972.79        74.44393
973.17        74.40483
973.56        74.35387
973.95        74.63548
974.33        75.82661
974.72        77.89651
975.11        80.76368
975.49        83.70763
975.88        85.03385
976.26        84.23587
976.65        81.75358
977.04        78.61764
977.42        76.24128
977.81        75.00298
978.19        74.45694
978.58        74.29146
978.96        73.81024
979.35         72.8615
979.74        71.69991
980.12        70.57406
980.51        69.71929
980.89        69.33873
981.28        69.33839
981.66        69.64943
982.05        70.09255
982.43        70.61015
982.82        71.15612
983.20        71.95554
983.59         73.3892
983.97        75.56879
984.35        78.37742
984.74         80.9521
985.12         82.0589
985.51        81.18639
985.89        78.81792
986.28        76.11573
986.66        74.38911
987.04        74.04633
987.43        74.66912
987.81        75.79868
988.20        76.34056
988.58        76.02335
988.96        75.23763
989.35        74.25905
989.73         73.6189
990.12        73.42144
990.50         73.3446
990.88        73.47659
991.27        74.01726
991.65        74.95278
992.03        76.38199
992.42        77.50668
992.80        77.16051
993.18        74.96741
993.56         71.6556
993.95        68.68353
994.33        67.37169
994.71        68.02471
995.10        70.13071
995.48        73.22287
995.86        75.61735
996.24        76.44196
996.63        76.22825
997.01        75.36019
997.39        74.38104
997.77        73.53629
998.15        72.50427
998.54        71.73544
998.92        72.19331
999.30        74.07553
999.68        77.32069
1000.06         80.7426
1000.45        82.01196
1000.83        80.73109
1001.21        77.55996
1001.59        74.14208
1001.97        72.76547
1002.35        73.86798
1002.73        76.79841
1003.12        80.50465
1003.50        83.10345
1003.88        83.77814
1004.26        83.13062
1004.64        81.79926
1005.02        80.84003
1005.40         80.5239
1005.78        80.25992
1006.16        79.93845
1006.54        79.44024
1006.92        78.65602
1007.30        77.91611
1007.69        76.56869
1008.07        73.61153
1008.45        69.38371
1008.83        64.66487
1009.21        61.06594
1009.59        60.24628
1009.97        62.22977
1010.35        66.73283
1010.73        72.39972
1011.11        75.75421
1011.49        75.13134
1011.86        71.10221
1012.24        66.10795
1012.62        63.98543
1013.00        65.86501
1013.38        71.20807
1013.76         78.0141
1014.14        80.74696
1014.52        77.68848
1014.90         71.8447
1015.28         66.4542
1015.66        64.26782
1016.04         65.4537
1016.41        69.32025
1016.79        75.16089
1017.17        81.40533
1017.55        86.38621
1017.93         90.3865
1018.31         91.9546
1018.69        89.27194
1019.06        83.12731
1019.44        75.48761
1019.82        69.10109
1020.20        66.18194
1020.58        66.45666
1020.95        69.51751
1021.33        74.03711
1021.71        76.51408
1022.09        75.36937
1022.46        71.36106
1022.84        67.28499
1023.22        66.68665
1023.60        70.54264
1023.97        79.06646
1024.35        89.66712
1024.73        93.19234
