SpectraSmart Spectrum 2.9.0.0
--------- Device Information -----------
Spectrum Name :  反射率_0
Saving Time :  2024/05/03 20:41:15
Spectro-Module Model Name : SE2030-DUVN
Spectro-Module Serial Number : OS361AC55029948
Wavelength Start : 200
Wavelength End : 1025
Wavelength Unit : Wavelength(nm)
Spectrum Unit : Reflectance(%)
-----------Spectrum Setting ------------
Integration Time : 20ms
Average : 10
Boxcar : 0
Background removal :  enabled
linearity correction :  enabled
SC :  disabled
Intensity correction :  disabled
DWT denoise :  enabled
savitzky-golay :  disabled
FFT :  disabled
Running average :  disabled
Kalman :  disabled
High pass :  disabled
---------------BEGIN--------------------
Wavelength(nm)             Reflectance(%)
200.29               0
200.75        60.88762
201.21        159.7559
201.67       -6159.384
202.13       -221.6452
202.58       -109.8942
203.04       -58.33014
203.50       -28.70894
203.96       -19.29735
204.42        -31.6884
204.88        -105.349
205.34        2674.271
205.80        274.8563
206.26        266.9684
206.72        41759.89
207.18       -67.83038
207.64       -11.47927
208.10      -0.5218199
208.55       -7.521147
209.01       -145.9393
209.47       -206.7309
209.93       -10.59146
210.39        6.872671
210.85        10.00912
211.31        8.193218
211.77        1.668172
212.23       -14.13082
212.69       -60.67883
213.14        -123.392
213.60       -93.20882
214.06       -56.13755
214.52       -38.52196
214.98       -33.15235
215.44       -35.76878
215.90       -56.87742
216.36        239.8496
216.81        21.15449
217.27        0.282452
217.73       -25.05818
218.19       -131.2167
218.65       -2289.187
219.11       -68.46193
219.57        30.45304
220.02        51.92691
220.48        92.77946
220.94       -47.03148
221.40        8.753235
221.86        18.34859
222.32        21.77435
222.77        23.42885
223.23        24.98615
223.69        26.15089
224.15        24.68344
224.61        20.98879
225.06        17.44568
225.52        15.76089
225.98        16.41415
226.44        19.13451
226.90        23.81376
227.36        30.36592
227.81        36.17896
228.27        38.59036
228.73         38.6226
229.19        36.49857
229.65        32.51696
230.10        27.70628
230.56        22.85385
231.02        19.44626
231.48        19.20462
231.93        21.68152
232.39        25.87217
232.85         30.2617
233.31         32.6923
233.77        32.79275
234.22        31.24409
234.68        29.16141
235.14        28.43351
235.60        29.66983
236.05        32.38731
236.51        35.72197
236.97        37.87874
237.43        38.06299
237.88        37.05917
238.34        35.68019
238.80        34.65533
239.26        34.14489
239.71        36.12753
240.17        37.09359
240.63        39.42116
241.08        40.23237
241.54        38.64117
242.00        36.52921
242.46        36.17473
242.91        38.11851
243.37         42.9066
243.83        48.58675
244.28        40.86805
244.74        7.523549
245.20       -38.38485
245.66       -70.02757
246.11        -74.4119
246.57        -59.4313
247.03       -33.08542
247.48       -8.158067
247.94        3.381557
248.40        2.164395
248.85       -7.874696
249.31       -19.95697
249.77       -20.48555
250.22       -8.359406
250.68        7.628327
251.14        21.53239
251.59        30.55234
252.05        36.05659
252.51        40.11171
252.96        44.07669
253.42        49.51097
253.88        55.24163
254.33          58.605
254.79        58.29731
255.25        54.21702
255.70        48.99334
256.16         44.8457
256.62         42.4518
257.07        42.16674
257.53        43.57536
257.99        45.62178
258.44        47.26288
258.90        47.81368
259.35        47.01353
259.81        45.76304
260.27        44.35293
260.72        43.10233
261.18        42.31664
261.63        41.66825
262.09        41.19151
262.55        40.64814
263.00        39.95744
263.46        39.23691
263.91        38.54759
264.37        38.20043
264.83        38.13957
265.28        38.21438
265.74        38.22137
266.19        37.70302
266.65        36.73209
267.11         35.4418
267.56        34.12145
268.02         33.2427
268.47        32.84206
268.93        32.78577
269.38        32.84275
269.84        32.62395
270.30        32.05706
270.75        31.28678
271.21        30.53943
271.66        30.04762
272.12        29.85843
272.57        29.82491
273.03        29.82755
273.48         29.7189
273.94        29.45297
274.39        29.09065
274.85        28.62884
275.31        27.97196
275.76        27.14904
276.22        26.26276
276.67        25.46791
277.13         25.0649
277.58        25.01195
278.04        25.21959
278.49        25.44171
278.95        25.34236
279.40         24.8341
279.86        24.12837
280.31        23.34818
280.77        22.74474
281.22        22.30568
281.68        21.97766
282.13        21.71811
282.59        21.53207
283.04        21.38657
283.50        21.30886
283.95        21.21997
284.41        21.01544
284.86        20.68067
285.32        20.27781
285.77        19.89782
286.22        19.73385
286.68        19.81949
287.13         20.0583
287.59        20.36139
288.04        20.56282
288.50        20.63661
288.95        20.60749
289.41         20.5247
289.86        20.42531
290.32        20.34875
290.77        20.26714
291.22        20.19596
291.68         20.1507
292.13        20.13328
292.59        20.17818
293.04        20.28156
293.50        20.44489
293.95        20.66269
294.40         20.9342
294.86        21.28523
295.31        21.75983
295.77        22.35179
296.22        23.01976
296.68        23.69005
297.13        24.23869
297.58        24.61881
298.04        24.88515
298.49         25.0463
298.95        25.15351
299.40        25.23263
299.85        25.28642
300.31        25.42209
300.76        25.77669
301.21        26.36538
301.67        27.13779
302.12        27.91389
302.58        28.42565
303.03         28.6046
303.48        28.54337
303.94        28.41898
304.39        28.44907
304.84        28.70049
305.30        29.09234
305.75        29.50835
306.20        29.79907
306.66        29.93122
307.11        29.94419
307.57        29.90505
308.02         29.8483
308.47        29.81351
308.93        29.79118
309.38        29.76708
309.83        29.75968
310.29        29.76619
310.74        29.76891
311.19        29.77069
311.65        29.76888
312.10        29.74671
312.55        29.70483
313.00        29.60087
313.46        29.37393
313.91        29.01883
314.36        28.58001
314.82        28.14493
315.27        27.84012
315.72        27.70306
316.18         27.6934
316.63        27.75591
317.08        27.80172
317.53         27.7942
317.99        27.75017
318.44        27.66891
318.89        27.54022
319.35        27.36686
319.80        27.14314
320.25        26.89654
320.70        26.68067
321.16        26.50184
321.61        26.35602
322.06        26.20767
322.51        25.99628
322.97        25.71038
323.42        25.38133
323.87        25.04464
324.32        24.75965
324.78        24.53977
325.23        24.37022
325.68        24.23099
326.13        24.09256
326.59        23.93338
327.04        23.77939
327.49        23.61467
327.94        23.42133
328.39        23.19958
328.85        22.94564
329.30        22.70204
329.75        22.52244
330.20        22.42092
330.66        22.37546
331.11        22.35692
331.56        22.28287
332.01        22.13154
332.46          21.923
332.92        21.68501
333.37        21.49559
333.82        21.36714
334.27        21.28067
334.72        21.21455
335.17        21.13313
335.63        21.01612
336.08        20.88699
336.53        20.75151
336.98        20.62581
337.43        20.51559
337.88        20.41725
338.34        20.31835
338.79        20.20122
339.24        20.06691
339.69        19.92888
340.14        19.81026
340.59        19.74831
341.05        19.74692
341.50        19.78548
341.95         19.8447
342.40         19.8982
342.85        19.93058
343.30        19.94898
343.75        19.92552
344.20         19.8187
344.66        19.63957
345.11        19.40409
345.56        19.18268
346.01        19.08045
346.46        19.11944
346.91        19.26646
347.36        19.46219
347.81        19.61148
348.26        19.68071
348.72        19.69004
349.17        19.65788
349.62        19.62212
350.07        19.59581
350.52        19.56819
350.97        19.52075
351.42        19.42946
351.87        19.29335
352.32        19.12302
352.77        18.96184
353.22        18.87492
353.67        18.87138
354.13        18.93544
354.58         18.9935
355.03        18.94777
355.48        18.78396
355.93         18.5425
356.38        18.29263
356.83        18.14293
357.28        18.11979
357.73        18.18372
358.18        18.29339
358.63        18.38176
359.08        18.42027
359.53        18.42599
359.98         18.3932
360.43        18.31482
360.88        18.19349
361.33        18.02547
361.78        17.83897
362.23         17.6795
362.68        17.56176
363.13        17.48811
363.58        17.42594
364.03        17.32002
364.48        17.16191
364.93        16.96371
365.38        16.79014
365.83        16.73929
366.28        16.82218
366.73        17.00659
367.18        17.18376
367.63        17.17963
368.08         16.9585
368.53        16.57359
368.98        16.15809
369.43        15.91645
369.88        15.89445
370.33        16.03594
370.78        16.21922
371.23        16.23539
371.68        16.03301
372.13        15.68655
372.58        15.31873
373.03        15.11385
373.48        15.11346
373.93        15.24975
374.38        15.43352
374.83        15.51941
375.28        15.46021
375.72        15.30095
376.17         15.0999
376.62        14.91146
377.07        14.75591
377.52        14.60875
377.97        14.47635
378.42        14.37692
378.87        14.31179
379.32        14.28338
379.77        14.26465
380.22         14.2082
380.67        14.10565
381.11        13.97175
381.56        13.83015
382.01        13.73754
382.46        13.70859
382.91        13.72137
383.36        13.75074
383.81        13.75903
384.26        13.73471
384.71        13.69259
385.15        13.62846
385.60        13.55136
386.05        13.46314
386.50         13.3615
386.95        13.27161
387.40        13.23216
387.85        13.24603
388.29        13.29426
388.74        13.35041
389.19        13.34356
389.64        13.26311
390.09        13.12883
390.54        12.98829
390.98        12.90674
391.43        12.90389
391.88        12.97786
392.33         13.0781
392.78        13.06817
393.23        12.96849
393.67        12.93023
394.12        12.96082
394.57        12.93161
395.02        12.84149
395.47         12.7567
395.91        12.68661
396.36        12.60821
396.81        12.53505
397.26        12.48068
397.71        12.43492
398.15        12.39473
398.60        12.37606
399.05        12.30563
399.50        12.21569
399.95        12.29358
400.39        12.48135
400.84        12.42134
401.29        12.15239
401.74          12.035
402.18        12.09236
402.63        12.13585
403.08        12.15562
403.53         12.1209
403.97        12.19621
404.42        12.22138
404.87        12.23541
405.32        12.21424
405.76        12.15514
406.21        12.07061
406.66        11.97503
407.11         11.8952
407.55        11.84234
408.00        11.80795
408.45        11.78914
408.90        11.77625
409.34        11.76362
409.79        11.75142
410.24        11.74188
410.68        11.73548
411.13        11.73279
411.58        11.73346
412.03        11.72335
412.47        11.68327
412.92        11.60999
413.37        11.51314
413.81        11.42321
414.26        11.39419
414.71        11.42674
415.15        11.51166
415.60        11.59932
416.05        11.61164
416.49        11.53014
416.94         11.3848
417.39        11.22902
417.83        11.13969
418.28        11.13305
418.73        11.17966
419.17        11.25163
419.62        11.29627
420.07        11.29555
420.51        11.26656
420.96         11.2132
421.41         11.1317
421.85         11.0249
422.30        10.90173
422.74        10.78437
423.19        10.73985
423.64        10.76572
424.08         10.8338
424.53         10.9017
424.98        10.94225
425.42        10.94503
425.87        10.88268
426.31        10.79333
426.76        10.80568
427.21        10.90079
427.65        10.91431
428.10        10.85299
428.54        10.84072
428.99        10.88364
429.44        10.97014
429.88        11.04698
430.33        10.96854
430.77        10.78574
431.22        10.73542
431.66        10.82456
432.11        10.92417
432.56        10.98225
433.00        11.00523
433.45        10.91197
433.89        10.71895
434.34          10.165
434.78        10.16559
435.23        10.60004
435.67        10.75837
436.12        10.62128
436.57        10.58088
437.01        10.66042
437.46        10.68967
437.90        10.66717
438.35        10.64054
438.79        10.60811
439.24        10.56086
439.68        10.50801
440.13        10.47867
440.57         10.4683
441.02        10.45658
441.46        10.43996
441.91        10.42126
442.35        10.39713
442.80        10.43859
443.24        10.51122
443.69        10.49488
444.13         10.4082
444.58        10.39183
445.02        10.45215
445.47        10.51099
445.91        10.54709
446.36        10.56772
446.80        10.56484
447.24        10.54134
447.69        10.50658
448.13        10.47506
448.58        10.45399
449.02        10.43746
449.47        10.42796
449.91        10.42355
450.36         10.4238
450.80        10.42643
451.25        10.42553
451.69        10.40698
452.13         10.3695
452.58        10.31913
453.02         10.2613
453.47        10.21046
453.91        10.17136
454.36        10.14011
454.80        10.11652
455.24        10.11279
455.69        10.13309
456.13        10.13957
456.58        10.12537
457.02        10.19907
457.46        10.19338
457.91        10.14427
458.35        10.03505
458.79        10.01842
459.24        10.08697
459.68        10.10944
460.13        10.08561
460.57        10.06566
461.01        10.05494
461.46        10.01829
461.90         9.96381
462.34         9.91415
462.79        9.874247
463.23        9.839047
463.68        9.821933
464.12        9.833911
464.56        9.872455
465.01        9.957526
465.45        10.05035
465.89        10.06518
466.34        10.02408
466.78        10.03425
467.22        10.09822
467.67        10.12818
468.11        10.11483
468.55        10.07055
468.99        10.01248
469.44        9.980402
469.88        9.982571
470.32        9.991959
470.77        10.00824
471.21        10.04488
471.65        10.09635
472.10        10.15615
472.54        10.20695
472.98        10.22859
473.42        10.21836
473.87        10.18842
474.31        10.14596
474.75        10.11303
475.20        10.10123
475.64        10.09913
476.08        10.10845
476.52        10.14567
476.97        10.21085
477.41        10.27115
477.85        10.30242
478.29        10.46179
478.74        10.39559
479.18        10.46485
479.62        10.55335
480.06        10.59174
480.50        10.57464
480.95        10.55043
481.39        10.53785
481.83        10.55182
482.27        10.60587
482.72        10.71138
483.16        10.83473
483.60        10.92272
484.04        10.96262
484.48        10.93769
484.93        10.94823
485.37        11.11967
485.81        11.39964
486.25        11.76272
486.69        11.65869
487.14        11.48457
487.58        11.92554
488.02         11.6578
488.46        11.91385
488.90        11.80803
489.34        11.59293
489.79        11.66687
490.23        11.95599
490.67        12.28759
491.11        12.53348
491.55        12.47244
491.99        12.19734
492.43        12.15724
492.88        12.39131
493.32        12.62789
493.76        12.80285
494.20         12.9554
494.64        13.06989
495.08        13.13548
495.52        13.18001
495.96        13.25973
496.41        13.38589
496.85        13.51819
497.29        13.64831
497.73        13.81239
498.17        13.97962
498.61        14.05984
499.05        14.06285
499.49        14.05757
499.93        14.08617
500.37        14.20944
500.82         14.4056
501.26        14.55341
501.70        14.63674
502.14        14.73183
502.58        14.84007
503.02        14.92342
503.46        14.98111
503.90        15.02479
504.34        15.05724
504.78        15.08304
505.22         15.1084
505.66        15.13318
506.10        15.15687
506.54        15.21044
506.98        15.30159
507.42        15.36332
507.86        15.37905
508.30        15.63757
508.74        15.61897
509.18        15.73667
509.62        15.82531
510.06        15.88375
510.50        15.90656
510.94         15.9022
511.38        15.88982
511.82        15.88638
512.26        15.90049
512.70        15.93005
513.14        15.96314
513.58        15.98052
514.02        15.97715
514.46        15.95624
514.90        15.93547
515.34        15.94198
515.78        15.98166
516.22        16.05039
516.66        16.11551
517.10        16.12615
517.54        16.07493
517.98        15.97519
518.42        15.88124
518.86        15.87957
519.30        15.98381
519.74          16.165
520.18        16.34966
520.62        16.41826
521.06        16.34345
521.50         16.1645
521.93        15.95281
522.37        15.82285
522.81        15.80407
523.25        15.86062
523.69        15.94542
524.13        15.98409
524.57        15.95563
525.01        15.88759
525.45        15.80469
525.89        15.74326
526.32        15.71393
526.76        15.70261
527.20        15.69926
527.64        15.69305
528.08        15.67842
528.52        15.65986
528.96        15.63585
529.40        15.60259
529.83        15.55794
530.27        15.50528
530.71        15.44662
531.15        15.38793
531.59        15.33125
532.03        15.27712
532.46        15.22496
532.90        15.17398
533.34         15.1274
533.78        15.09039
534.22        15.06346
534.66        15.04579
535.09        15.03348
535.53        15.02418
535.97        15.02314
536.41        15.02857
536.85        15.03735
537.28        15.08866
537.72        15.15505
538.16        15.09671
538.60        14.95823
539.04        14.96053
539.47        15.09188
539.91        15.16074
540.35        15.16095
540.79        15.21136
541.22        15.30356
541.66         15.3768
542.10        15.42862
542.54        15.45518
542.97        15.47774
543.41        15.59116
543.85        15.77384
544.29        15.89616
544.72        15.95363
545.16        16.05439
545.60        16.19623
546.04        16.31942
546.47        16.42104
546.91        16.52568
547.35         16.6337
547.79        16.74427
548.22        16.86206
548.66         16.9934
549.10        17.14476
549.53        17.35499
549.97        17.59484
550.41        17.77502
550.84        17.87833
551.28        17.94684
551.72        18.00134
552.15        18.06195
552.59        18.14946
553.03        18.25065
553.46        18.35861
553.90        18.48816
554.34        18.62763
554.77        18.75571
555.21        18.87623
555.65        19.00955
556.08        19.15023
556.52        19.28678
556.96         19.4022
557.39        19.49039
557.83        19.55686
558.27        19.57847
558.70        19.58156
559.14        19.65436
559.57        19.78383
560.01        19.88059
560.45        19.93413
560.88        19.99983
561.32        20.08647
561.75        20.14386
562.19        20.19907
562.63        20.27333
563.06        20.36258
563.50        20.52455
563.93        20.71083
564.37        20.70312
564.80        20.55906
565.24        20.63754
565.68        20.90303
566.11        21.03664
566.55        21.03447
566.98        21.06272
567.42        21.13733
567.85        21.27903
568.29        21.35275
568.72        21.45768
569.16        21.55933
569.60         21.7788
570.03        21.94668
570.47        22.13377
570.90        22.23603
571.34        22.50178
571.77        22.75426
572.21        22.58144
572.64        22.57665
573.08        22.80193
573.51         23.0285
573.95        23.17432
574.38        23.15268
574.82        23.06621
575.25        23.47186
575.69        23.52145
576.12        23.43799
576.56        23.45384
576.99        23.72683
577.42        24.06247
577.86        23.52442
578.29        23.99352
578.73         23.6663
579.16        23.68015
579.60         23.5402
580.03        23.45475
580.47        23.44288
580.90        23.20799
581.33        23.18816
581.77        23.11512
582.20        23.46102
582.64        23.05105
583.07        23.16445
583.51        22.93022
583.94         22.7807
584.37        22.57852
584.81        22.39991
585.24        22.28555
585.68        22.61691
586.11        22.17767
586.54         22.2296
586.98        22.00145
587.41        21.87282
587.85         21.8597
588.28        21.95396
588.71        21.92213
589.15         21.7225
589.58        21.84018
590.01        21.69304
590.45        21.64574
590.88        21.53896
591.31        21.57376
591.75        21.76126
592.18         21.7404
592.61        21.46507
593.05        21.93502
593.48        22.22552
593.91        21.74083
594.35        22.05623
594.78        22.04487
595.21        22.23633
595.65        22.24708
596.08        22.09283
596.51        22.52726
596.94        22.61894
597.38        22.87305
597.81        22.99684
598.24        23.23072
598.68        23.47865
599.11        23.46709
599.54        24.35917
599.97        23.86417
600.41        24.72487
600.84        24.90884
601.27        25.13242
601.70        25.31958
602.14        25.52263
602.57        25.92215
603.00        26.43629
603.43        26.81953
603.87        27.07202
604.30        27.34106
604.73        27.66107
605.16        28.21379
605.60        28.29364
606.03        28.75253
606.46        29.35483
606.89        29.36528
607.32        29.97141
607.76        30.20231
608.19        30.57706
608.62        30.95923
609.05        31.38472
609.48        31.64316
609.92        31.79905
610.35        32.02876
610.78        32.85319
611.21        33.08841
611.64        33.40083
612.07        33.60446
612.50        33.89422
612.94        34.08562
613.37        34.18624
613.80        34.62323
614.23        34.70391
614.66         34.9917
615.09        35.27744
615.52        35.57809
615.96        35.88171
616.39        36.15342
616.82        36.38996
617.25        36.63508
617.68        37.04585
618.11        36.93896
618.54        36.55138
618.97        36.68978
619.40        37.33931
619.84        37.73329
620.27        37.81367
620.70        38.09621
621.13        38.52552
621.56        38.53671
621.99        38.21333
622.42        38.26305
622.85        38.66665
623.28        38.59097
623.71        38.50417
624.14        38.46227
624.57        38.32993
625.00        38.47276
625.43        38.44956
625.86        38.49699
626.29         38.4904
626.72        38.47649
627.15        38.44508
627.58        38.36129
628.01        38.21556
628.44         38.0086
628.87        37.75329
629.30        37.45326
629.73        37.12468
630.16        36.89443
630.59        36.57826
631.02        36.33761
631.45         36.1068
631.88         35.8595
632.31        35.58088
632.74        35.30767
633.17        34.97468
633.60        34.60642
634.03        34.18921
634.46        33.73538
634.89        33.26615
635.32        32.81501
635.75        32.39544
636.18        32.00383
636.61         31.6365
637.04        31.28559
637.47        30.94743
637.89         30.6153
638.32        30.27852
638.75        29.97009
639.18        29.69903
639.61        29.34332
640.04        29.11355
640.47        28.81385
640.90         28.5104
641.33        28.20558
641.76        27.93737
642.18        27.76836
642.61         27.6991
643.04          27.714
643.47         27.7666
643.90        27.77978
644.33        27.73111
644.76        27.64758
645.18        27.56455
645.61        27.50442
646.04        27.48284
646.47        27.55501
646.90        27.74202
647.33        27.74787
647.75        28.09599
648.18        28.34839
648.61        28.65272
649.04        29.01263
649.47        29.41218
649.89        29.77025
650.32        30.07113
650.75        30.43242
651.18        30.84281
651.61        31.13734
652.03        31.35062
652.46        31.78179
652.89        32.39346
653.32        32.72438
653.74        32.89015
654.17        33.44287
654.60        33.61922
655.03         34.5776
655.46        34.66083
655.88        34.77428
656.31        37.25272
656.74        40.47711
657.16        38.44883
657.59         36.3937
658.02        37.33691
658.45        37.77615
658.87        38.77632
659.30         38.4362
659.73        38.83385
660.15         38.8289
660.58        39.10433
661.01        39.34119
661.44        39.56981
661.86        39.88177
662.29         40.2137
662.72        40.48103
663.14        40.67273
663.57        40.71717
664.00         40.7053
664.42        40.89926
664.85        41.29813
665.27        41.61506
665.70         41.8099
666.13        42.04884
666.55        42.32304
666.98        42.50973
667.41        42.63398
667.83        42.79157
668.26        42.99192
668.69        43.21886
669.11        43.43344
669.54        43.57187
669.96        43.62527
670.39        43.62255
670.82        43.65078
671.24        43.80098
671.67        44.09089
672.09        44.56691
672.52         45.1221
672.94        45.22889
673.37        45.37594
673.80        45.20803
674.22        45.01222
674.65        44.97398
675.07        45.15671
675.50        45.48749
675.92        45.87321
676.35        46.14133
676.77        46.25093
677.20        46.25549
677.62         46.2284
678.05        46.28707
678.47        46.45914
678.90        46.70292
679.32        46.96265
679.75        47.19456
680.17        47.38312
680.60        47.48603
681.02        47.51432
681.45        47.78153
681.87        47.80114
682.30        47.95595
682.72         48.0885
683.15        48.19238
683.57        48.26917
684.00        48.33314
684.42        48.39467
684.85          48.469
685.27        48.55826
685.70        48.60519
686.12         48.6217
686.54        48.79965
686.97        49.07026
687.39        49.13498
687.82        49.00082
688.24        48.97504
688.66        49.07723
689.09        49.11819
689.51        49.12114
689.94        49.26111
690.36        49.56315
690.78        49.85892
691.21        50.03196
691.63        50.62848
692.06        50.33886
692.48        50.51541
692.90        50.76049
693.33         50.9059
693.75        50.95241
694.17        50.93939
694.60        50.92998
695.02        51.34182
695.44        51.44465
695.87        51.94236
696.29        52.46137
696.71        52.40985
697.14         51.8908
697.56         51.6907
697.98         51.8746
698.41        51.94015
698.83        51.88906
699.25        52.07996
699.68        52.43152
700.10        52.67839
700.52        52.75762
700.94        52.74799
701.37        52.70617
701.79        52.74508
702.21        52.88065
702.64        53.06989
703.06        53.25356
703.48        53.35141
703.90        53.35078
704.33        53.28708
704.75        53.21752
705.17        53.21951
705.59        53.31774
706.01        53.48141
706.44        53.68851
706.86        53.92461
707.28        54.15306
707.70         54.3787
708.12        54.57759
708.55         54.6973
708.97        54.73458
709.39        54.73184
709.81        54.71811
710.23         54.7342
710.66        54.80055
711.08        54.92444
711.50         55.0881
711.92        55.27498
712.34        55.47343
712.76        55.67999
713.19        55.85947
713.61        56.00163
714.03        56.07279
714.45         56.0757
714.87        56.02686
715.29         55.9544
715.71        55.87145
716.13        55.78136
716.56        55.67567
716.98        55.59599
717.40        55.53769
717.82        55.50819
718.24        55.52249
718.66        55.59999
719.08        55.73446
719.50        55.90448
719.92        56.08572
720.34        56.24113
720.76        56.35981
721.19        56.44492
721.61        56.49146
722.03         56.4927
722.45        56.48201
722.87        56.33378
723.29          56.111
723.71        56.29477
724.13        56.90981
724.55        56.59095
724.97        57.05545
725.39         57.0819
725.81        57.18061
726.23        57.18143
726.65        57.15863
727.07        57.15968
727.49        57.38758
727.91        57.65061
728.33        57.94697
728.75        58.17196
729.17        58.29253
729.59        58.33728
730.01        58.33908
730.43        58.35424
730.85        58.40107
731.27        58.45999
731.69        58.51765
732.10        58.56118
732.52        58.58149
732.94        58.58788
733.36        58.58554
733.78        58.56955
734.20         58.5535
734.62         58.5728
735.04        58.61485
735.46        58.63604
735.88        58.63514
736.30         58.6412
736.72        58.71917
737.13        58.88562
737.55        59.05995
737.97        59.46272
738.39        59.92877
738.81        59.53582
739.23         58.5906
739.65        58.82349
740.06        59.99889
740.48        60.34221
740.90          59.766
741.32        59.23635
741.74        59.03598
742.16        58.92995
742.57        59.01147
742.99        59.33543
743.41        59.78591
743.83        60.07562
744.25        60.17775
744.67        60.30769
745.08        60.49211
745.50        60.57972
745.92        60.58922
746.34        60.59851
746.75        60.59787
747.17        60.55012
747.59        60.46251
748.01        60.34917
748.42        60.24202
748.84        60.22797
749.26        60.28909
749.68        60.30211
750.09         60.2964
750.51        60.37194
750.93        60.54792
751.35        60.91647
751.76        61.38498
752.18        61.45616
752.60        61.35439
753.01         61.0308
753.43        60.71483
753.85        60.59827
754.27        60.72883
754.68        61.05864
755.10        61.49178
755.52        61.66054
755.93        61.88235
756.35        61.95915
756.77        61.95258
757.18        61.88378
757.60        61.81262
758.02        61.41127
758.43        60.87693
758.85        61.42655
759.26        62.67747
759.68        62.92794
760.10        62.02048
760.51        62.24936
760.93         61.9932
761.34        61.80891
761.76        62.33973
762.18        62.01544
762.59        61.39087
763.01        61.43507
763.42        62.16049
763.84        62.57119
764.26         62.5346
764.67         62.1514
765.09        61.68893
765.50        61.82691
765.92        62.44595
766.33        62.48193
766.75         61.9062
767.16        61.73306
767.58        62.02577
768.00        62.24141
768.41        62.40716
768.83        62.94873
769.24        63.60764
769.66         63.6119
770.07        63.01027
770.49        62.30853
770.90        61.76014
771.32        61.87849
771.73        62.54662
772.15        62.87856
772.56        62.82497
772.97        62.90826
773.39        63.13966
773.80        63.37373
774.22         63.5295
774.63        63.53536
775.05        63.38227
775.46        63.26504
775.88        63.19453
776.29        63.08291
776.70        62.96347
777.12        62.95665
777.53        63.08604
777.95        63.28524
778.36        63.49744
778.77        63.59618
779.19        63.56654
779.60         63.4719
780.02        63.33035
780.43        63.24172
780.84        63.27033
781.26        63.14077
781.67        62.97956
782.09        63.54403
782.50         64.6393
782.91        64.60244
783.33        64.45635
783.74        64.33568
784.15        64.53734
784.57        64.57079
784.98         64.4291
785.39        64.10313
785.81        63.73559
786.22        63.86058
786.63        64.35831
787.04        64.52634
787.46        64.32747
787.87        64.10885
788.28        64.01737
788.70         64.0665
789.11        64.25524
789.52        64.69584
789.93        65.21394
790.35        65.21907
790.76        64.79921
791.17        64.72127
791.58        65.02515
792.00        65.07489
792.41         64.8728
792.82        65.18017
793.23         65.2408
793.65        65.54034
794.06        65.81766
794.47        66.01983
794.88        66.06771
795.29        65.99297
795.71        65.62788
796.12        65.22814
796.53        64.88974
796.94        64.37068
797.35        64.30582
797.76        64.83183
798.18        65.82726
798.59        66.34792
799.00        66.22792
799.41         65.9035
799.82        65.57303
800.23        65.41158
800.64        65.49971
801.06        65.74181
801.47        66.06733
801.88        66.25039
802.29        66.21113
802.70         66.0053
803.11        65.72598
803.52        65.50626
803.93        65.40534
804.34        65.43164
804.75        65.49818
805.17        65.45998
805.58        65.36495
805.99        65.16439
806.40        65.00874
806.81        65.50952
807.22         66.4211
807.63        66.61991
808.04        66.12824
808.45        65.96043
808.86        66.17278
809.27        66.11909
809.68        65.82821
810.09         65.6894
810.50        65.74102
810.91        65.88083
811.32        66.05841
811.73        66.17606
812.14        66.19951
812.55        66.19476
812.96        66.18733
813.37        66.14298
813.78        66.10783
814.19        66.21588
814.60        66.41584
815.01        66.50712
815.42        66.47124
815.83        66.40951
816.24        66.35587
816.65        66.32574
817.05        66.34268
817.46          66.376
817.87         66.4249
818.28        66.43826
818.69        66.40804
819.10        66.34615
819.51        66.29939
819.92        66.35168
820.33        66.50984
820.74        66.72491
821.14        66.92229
821.55        67.01349
821.96        66.96675
822.37        66.82815
822.78        66.61773
823.19        66.37446
823.60        66.13997
824.00        65.92853
824.41        65.79161
824.82        65.88119
825.23        66.21195
825.64        66.74181
826.04        67.35347
826.45        67.74799
826.86        67.86906
827.27         67.7771
827.68        67.56388
828.08        67.41937
828.49          67.367
828.90        67.37341
829.31        67.43445
829.72          67.542
830.12        67.71215
830.53        67.91135
830.94        68.10109
831.35        68.15937
831.75        68.07004
832.16        67.79935
832.57        67.47738
832.97        67.28934
833.38        67.27941
833.79        67.41104
834.20         67.5421
834.60        67.43557
835.01        67.07841
835.42          66.563
835.82         66.0967
836.23        65.96804
836.64         66.2622
837.04        66.89731
837.45        67.65363
837.86        68.26097
838.26        68.60532
838.67        68.70729
839.08        68.60963
839.48        68.37221
839.89         68.0444
840.29         67.5977
840.70        67.13344
841.11        66.75019
841.51        66.50095
841.92        66.39398
842.33         66.3864
842.73        66.38972
843.14        66.33802
843.54        66.26138
843.95        66.26677
844.35        66.56522
844.76        67.13542
845.17        67.91678
845.57        68.68315
845.98        68.91963
846.38        68.56497
846.79        67.77943
847.19        66.86745
847.60        66.32487
848.00        66.27073
848.41        66.54191
848.81        67.03517
849.22        67.47086
849.62        67.78206
850.03        67.97888
850.43        68.05893
850.84        67.90327
851.24        67.55541
851.65        67.02293
852.05        66.42133
852.46         65.9447
852.86        65.64834
853.27        65.54385
853.67        65.57911
854.07         65.8404
854.48        66.25903
854.88        66.87531
855.29        67.45373
855.69        67.74841
856.10        67.57141
856.50        67.06351
856.90         66.4228
857.31        65.98955
857.71        65.89326
858.12        66.00561
858.52        66.31403
858.92        66.60473
859.33        66.78028
859.73        66.92799
860.13        67.03982
860.54        67.12463
860.94        67.20943
861.34        67.24085
861.75        67.15903
862.15         66.9807
862.55        66.67686
862.96        66.28896
863.36        65.85954
863.76        65.46081
864.17         65.1233
864.57        64.87665
864.97        64.70898
865.38        64.57526
865.78        64.49613
866.18        64.44211
866.58         64.4547
866.99        64.60283
867.39        64.89334
867.79        65.26696
868.19        65.57182
868.60        65.56466
869.00        65.22069
869.40        64.62897
869.80        63.98684
870.21        63.64293
870.61        63.73452
871.01        64.13831
871.41        64.70339
871.81        65.20792
872.22        65.55928
872.62        65.84583
873.02         66.1149
873.42        66.43687
873.82        66.81329
874.22         67.1944
874.63         67.5093
875.03        67.64734
875.43        67.60822
875.83        67.41052
876.23        67.18413
876.63        67.13528
877.03        67.32142
877.44        67.72543
877.84        68.11346
878.24        68.13068
878.64        67.71465
879.04        66.95188
879.44        66.20193
879.84        65.98668
880.24        66.36725
880.64        67.19609
881.04         67.9873
881.44        67.88524
881.84        66.74773
882.24        64.95898
882.65        63.18163
883.05         62.2444
883.45        62.36158
883.85        63.25564
884.25        64.59295
884.65        65.74619
885.05        66.42343
885.45        66.77397
885.85        66.84775
886.25        66.73782
886.65        66.51029
887.05        66.10103
887.45        65.60123
887.85        65.21191
888.25         64.9918
888.65           64.93
889.04        64.94698
889.44        64.91957
889.84        64.80398
890.24         64.6627
890.64        64.53591
891.04        64.48723
891.44        64.54356
891.84        64.67368
892.24        64.89442
892.64        65.23902
893.04        65.70457
893.44        66.28409
893.83        66.91935
894.23        67.42355
894.63        67.76241
895.03        67.91958
895.43        67.98613
895.83        68.12562
896.23        68.36584
896.63        68.67547
897.02        68.86076
897.42        68.61292
897.82         67.9112
898.22        66.87572
898.62        65.85265
899.01        65.30459
899.41        65.33388
899.81        65.84829
900.21        66.49482
900.61        66.60833
901.00        66.02907
901.40        65.04282
901.80        64.16226
902.20        64.10436
902.59        65.01743
902.99        66.64972
903.39        68.55325
903.79        69.74252
904.18        69.83442
904.58        69.14912
904.98         68.1863
905.38        67.64798
905.77        67.69493
906.17        68.12695
906.57         68.7056
906.96        69.08866
907.36        69.10779
907.76        68.89724
908.15        68.61436
908.55         68.4173
908.95        68.39117
909.34        68.46333
909.74        68.49409
910.14        68.24583
910.53        67.69527
910.93          66.963
911.33         66.2988
911.72        66.10838
912.12        66.46949
912.52        67.24165
912.91        68.16085
913.31        68.77857
913.70        68.99001
914.10         68.8587
914.49        68.57418
914.89        68.39635
915.29        68.43356
915.68        68.59047
916.08        68.76449
916.47        68.74883
916.87        68.53439
917.26        68.16967
917.66        67.81712
918.05        67.69239
918.45        67.80563
918.84        68.13643
919.24        68.43213
919.64        68.37332
920.03         67.8935
920.42        67.10811
920.82        66.34303
921.21        65.92204
921.61        65.92136
922.00        66.28675
922.40        66.78968
922.79        67.13457
923.19        67.17938
923.58        67.01561
923.98        66.86854
924.37         67.0471
924.77        67.60959
925.16        68.46555
925.55         69.3298
925.95        69.69037
926.34        69.44563
926.74        68.73719
927.13        67.87347
927.52        67.31428
927.92        67.18082
928.31        67.33494
928.70        67.61035
929.10        67.70822
929.49        67.56263
929.89        67.29517
930.28        67.02499
930.67        66.88892
931.07        66.92413
931.46        67.07444
931.85        67.34769
932.24        67.79423
932.64        68.36277
933.03        69.09572
933.42        69.78307
933.82        70.10077
934.21         70.0079
934.60        69.56924
934.99        69.05788
935.39        68.87773
935.78        69.10222
936.17        69.58656
936.56         70.1059
936.96         70.2859
937.35        70.06074
937.74        69.55457
938.13        68.83374
938.53         67.9885
938.92        67.11386
939.31        66.29152
939.70        65.71548
940.09        65.68852
940.49        66.18681
940.88        67.07624
941.27        68.21527
941.66        69.34263
942.05         70.2527
942.44         70.9965
942.84         71.1418
943.23        70.02696
943.62        67.78255
944.01        64.85124
944.40        62.20215
944.79        61.03996
945.18        61.52708
945.57        63.36927
945.97        65.89262
946.36        67.91676
946.75        68.75987
947.14        68.72047
947.53        68.23228
947.92        68.07162
948.31        68.45716
948.70        69.01852
949.09        69.59254
949.48        69.97433
949.87        70.06422
950.26        70.05048
950.65        69.78497
951.04        68.96893
951.43         67.6625
951.82        66.00789
952.21        64.52901
952.60        64.01472
952.99        64.58945
953.38        66.01134
953.77        67.71423
954.16        68.70509
954.55        68.65292
954.94        67.78999
955.33        66.53383
955.72        65.59949
956.11        65.22826
956.50        65.24598
956.89        65.38766
957.28        65.22478
957.66         64.6785
958.05        63.92202
958.44        63.30503
958.83        63.33947
959.22        64.11257
959.61        65.40891
960.00        66.80688
960.39        67.58917
960.78        67.52927
961.16        66.84743
961.55        65.84054
961.94        64.97507
962.33        64.43563
962.72        64.09481
963.11        63.97517
963.49        64.13628
963.88        64.49922
964.27        65.08277
964.66        65.71341
965.04        66.08667
965.43         66.0683
965.82        65.76107
966.21        65.28883
966.60        64.89009
966.98        64.67697
967.37        64.56843
967.76        64.59486
968.15        64.78616
968.53        65.12794
968.92        65.56049
969.31        66.00089
969.69        66.28062
970.08         66.3202
970.47        66.18741
970.86        65.90512
971.24         65.5212
971.63        65.10084
972.02        64.70567
972.40        64.51064
972.79        64.75494
973.17        65.53026
973.56         66.6411
973.95        67.99107
974.33        69.46907
974.72        70.90247
975.11         72.3133
975.49        73.49666
975.88        73.91803
976.26        73.47237
976.65        72.27665
977.04        70.67165
977.42        69.08836
977.81        67.70957
978.19        66.42063
978.58        65.36312
978.96        64.54128
979.35        63.95763
979.74        63.59664
980.12        63.34073
980.51        62.84614
980.89        62.13992
981.28        61.34733
981.66        60.64881
982.05        60.30285
982.43        60.42682
982.82        60.85948
983.20        61.74436
983.59        63.34261
983.97        65.69473
984.35        68.72278
984.74        71.54901
985.12        72.82644
985.51        72.01552
985.89        69.62328
986.28        66.79225
986.66        64.84026
987.04         64.1827
987.43        64.39132
987.81         65.1721
988.20        65.78491
988.58        66.00962
988.96        66.14825
989.35        66.09228
989.73        65.76652
990.12        65.16513
990.50        64.17351
990.88        63.29042
991.27        63.31257
991.65        64.38172
992.03        66.47501
992.42        68.56251
992.80        68.86506
993.18         66.7504
993.56        63.08461
993.95        59.64743
994.33        58.19767
994.71        59.08584
995.10         61.7184
995.48         65.2642
995.86        67.34341
996.24        66.95217
996.63        64.98797
997.01        62.49427
997.39        60.83232
997.77        60.38451
998.15        60.59109
998.54        61.54401
998.92        63.47263
999.30        66.23615
999.68        69.89313
1000.06        73.30079
1000.45        74.26324
1000.83        72.50739
1001.21        68.70217
1001.59         64.5751
1001.97        62.52414
1002.35        63.02798
1002.73        65.43407
1003.12        68.88946
1003.50        71.79676
1003.88         73.3543
1004.26        74.02234
1004.64        73.99168
1005.02         73.6093
1005.40        73.01995
1005.78        71.88539
1006.16        70.46893
1006.54        69.31763
1006.92        68.56004
1007.30        68.28336
1007.69        67.93729
1008.07        66.53271
1008.45        64.10754
1008.83        61.28966
1009.21        59.08529
1009.59        58.50715
1009.97        59.63041
1010.35        62.29893
1010.73        65.80608
1011.11        68.31525
1011.49        68.83865
1011.86        67.47351
1012.24        65.68103
1012.62        65.82079
1013.00        68.60487
1013.38        73.87923
1013.76        79.59348
1014.14        80.53694
1014.52        75.60946
1014.90        67.84672
1015.28        61.11596
1015.66        58.70394
1016.04        60.68467
1016.41        66.48261
1016.79        74.60206
1017.17        81.11015
1017.55        83.13024
1017.93        81.20701
1018.31        76.26608
1018.69        71.22617
1019.06        67.71157
1019.44         65.3064
1019.82        63.92966
1020.20        63.48154
1020.58        63.71093
1020.95        64.95311
1021.33        66.63986
1021.71         67.2162
1022.09        66.08014
1022.46        63.34628
1022.84        60.72423
1023.22        60.31869
1023.60        62.66076
1023.97        68.09952
1024.35        74.73721
1024.73        76.18243
