SpectraSmart Spectrum 2.9.0.0
--------- Device Information -----------
Spectrum Name :  反射率_0
Saving Time :  2024/05/03 20:35:52
Spectro-Module Model Name : SE2030-DUVN
Spectro-Module Serial Number : OS361AC55029948
Wavelength Start : 200
Wavelength End : 1025
Wavelength Unit : Wavelength(nm)
Spectrum Unit : Reflectance(%)
-----------Spectrum Setting ------------
Integration Time : 20ms
Average : 10
Boxcar : 0
Background removal :  enabled
linearity correction :  enabled
SC :  disabled
Intensity correction :  disabled
DWT denoise :  enabled
savitzky-golay :  disabled
FFT :  disabled
Running average :  disabled
Kalman :  disabled
High pass :  disabled
---------------BEGIN--------------------
Wavelength(nm)             Reflectance(%)
200.29               0
200.75        8.892381
201.21        14.08597
201.67       -282.6107
202.13         2.94821
202.58        12.86055
203.04        19.89091
203.50        24.71002
203.96        25.95036
204.42        22.68446
204.88        7.307329
205.34        577.3509
205.80        87.10009
206.26        90.56582
206.72        12269.16
207.18       -3.136495
207.64        17.01478
208.10        28.59937
208.55        59.95512
209.01        335.4173
209.47        442.8112
209.93        67.69666
210.39        29.13102
210.85         20.3406
211.31        22.71231
211.77        34.01431
212.23        63.86842
212.69        144.0812
213.14        214.4984
213.60        122.4418
214.06        54.12723
214.52         25.5192
214.98        15.38727
215.44        14.17775
215.90        26.48864
216.36       -198.7733
216.81       -48.46565
217.27       -58.28537
217.73       -114.3766
218.19       -458.9008
218.65       -10243.87
219.11       -847.3052
219.57       -265.0009
220.02       -178.0201
220.48       -312.2739
220.94        334.6436
221.40         94.3176
221.86        58.98184
222.32        50.92573
222.77        53.03075
223.23        63.68268
223.69        83.22729
224.15        96.97722
224.61        92.03352
225.06        79.02091
225.52        70.33286
225.98        71.22746
226.44        81.08224
226.90        98.49284
227.36        120.8817
227.81        135.5733
228.27        133.8475
228.73        122.5255
229.19        108.3481
229.65        96.24483
230.10        87.00084
230.56        80.06344
231.02        75.35118
231.48        73.28215
231.93        73.28262
232.39        74.98386
232.85        77.50511
233.31        79.76713
233.77        81.39828
234.22        82.46093
234.68        83.12965
235.14        83.75166
235.60         84.4147
236.05        85.16469
236.51        85.21584
236.97        83.64565
237.43        80.51438
237.88        76.49261
238.34        73.07248
238.80        71.80919
239.26        73.09892
239.71         78.9029
240.17        88.24332
240.63         97.1715
241.08        96.93407
241.54        85.54276
242.00        72.18857
242.46        65.97024
242.91        67.84529
243.37        77.89645
243.83        98.30828
244.28        117.4087
244.74         110.082
245.20        80.36363
245.66        47.53167
246.11        25.58652
246.57        14.24419
247.03        8.941298
247.48        6.992224
247.94        5.240286
248.40        3.173572
248.85        1.369905
249.31        1.250824
249.77        4.460402
250.22        10.05573
250.68        15.76486
251.14        21.29314
251.59        27.96769
252.05        37.42125
252.51        51.68804
252.96        71.37403
253.42        88.28857
253.88        92.29198
254.33         85.2118
254.79        74.47902
255.25        66.19803
255.70        61.39066
256.16        59.07388
256.62        58.51575
257.07        59.42973
257.53        61.59109
257.99        64.18679
258.44        66.23797
258.90        67.16435
259.35        66.61696
259.81        65.62962
260.27        64.31245
260.72        62.82847
261.18        61.69049
261.63        60.55872
262.09        59.81222
262.55        59.42931
263.00        59.23256
263.46         59.2301
263.91        59.15413
264.37        58.95042
264.83        58.53408
265.28        57.96842
265.74        57.30203
266.19        56.30489
266.65        55.13557
267.11        53.76679
267.56        52.49801
268.02        51.86877
268.47         51.8588
268.93        52.34895
269.38        52.84227
269.84        52.49579
270.30        51.19822
270.75        49.27044
271.21         47.3902
271.66         46.4008
272.12        46.45435
272.57        47.18275
273.03        48.12456
273.48        48.54608
273.94        48.24761
274.39        47.49246
274.85        46.47142
275.31        45.32846
275.76        44.16659
276.22         43.0104
276.67        42.02356
277.13        41.60162
277.58        41.65004
278.04        42.07656
278.49        42.45856
278.95        42.19398
279.40        41.16061
279.86        39.72356
280.31        38.18718
280.77        37.08596
281.22        36.40747
281.68        36.02879
282.13        35.76795
282.59        35.46579
283.04        35.03381
283.50        34.56819
283.95        34.06343
284.41        33.54865
284.86        33.01564
285.32        32.49341
285.77        31.97079
286.22        31.51501
286.68        31.15426
287.13        30.83803
287.59        30.60389
288.04        30.43369
288.50         30.3311
288.95        30.25893
289.41        30.16362
289.86        29.91273
290.32        29.52184
290.77        29.01895
291.22        28.51662
291.68        28.16105
292.13        27.96708
292.59        27.91311
293.04        27.93031
293.50         27.9277
293.95        27.87238
294.40        27.80295
294.86        27.77078
295.31        27.83873
295.77        28.01439
296.22        28.25119
296.68         28.4979
297.13        28.67979
297.58        28.76543
298.04        28.80013
298.49        28.77163
298.95        28.69653
299.40        28.57913
299.85        28.42932
300.31        28.33641
300.76        28.41041
301.21        28.67066
301.67        29.07755
302.12        29.49226
302.58        29.71787
303.03        29.70044
303.48        29.51138
303.94         29.2924
304.39        29.20291
304.84        29.29314
305.30        29.49964
305.75        29.71756
306.20        29.81738
306.66         29.7785
307.11         29.6367
307.57        29.46328
308.02        29.30194
308.47        29.18815
308.93        29.10285
309.38        29.03013
309.83        28.98231
310.29        28.95338
310.74        28.93447
311.19        28.90212
311.65        28.81325
312.10        28.65337
312.55          28.436
313.00        28.18871
313.46        27.95836
313.91        27.75033
314.36        27.56679
314.82        27.39883
315.27        27.21992
315.72        27.03276
316.18        26.84707
316.63        26.68439
317.08        26.58035
317.53        26.53601
317.99        26.52968
318.44        26.53077
318.89        26.47798
319.35        26.35563
319.80        26.18485
320.25        25.98588
320.70        25.79676
321.16        25.62366
321.61        25.45179
322.06         25.2849
322.51        25.13363
322.97        24.99394
323.42        24.87712
323.87        24.73804
324.32        24.50352
324.78        24.16461
325.23        23.75258
325.68        23.34862
326.13        23.09185
326.59         23.0088
327.04        23.07606
327.49        23.20374
327.94        23.24505
328.39        23.15318
328.85        22.95959
329.30        22.73084
329.75        22.56378
330.20        22.48978
330.66        22.46325
331.11        22.46028
331.56         22.4137
332.01          22.307
332.46        22.17299
332.92        22.02067
333.37        21.88834
333.82        21.78216
334.27        21.68953
334.72        21.63708
335.17        21.67157
335.63        21.78528
336.08        21.97318
336.53        22.15669
336.98        22.21611
337.43        22.12234
337.88        21.90741
338.34        21.64307
338.79        21.45291
339.24        21.37581
339.69         21.3849
340.14        21.43584
340.59        21.45382
341.05        21.41672
341.50        21.35004
341.95        21.28767
342.40        21.28555
342.85        21.35019
343.30        21.45165
343.75        21.54177
344.20        21.54775
344.66        21.46509
345.11        21.32782
345.56        21.17655
346.01         21.0685
346.46        21.02702
346.91         21.0291
347.36        21.09433
347.81        21.25532
348.26        21.49619
348.72        21.79473
349.17        22.06054
349.62        22.15697
350.07        22.05763
350.52         21.8066
350.97        21.48356
351.42        21.22191
351.87        21.06283
352.32        20.96778
352.77        20.91779
353.22          20.877
353.67        20.83015
354.13        20.80771
354.58        20.76997
355.03        20.66757
355.48        20.50047
355.93        20.28029
356.38        20.07777
356.83        20.01013
357.28        20.09251
357.73         20.2805
358.18        20.48504
358.63        20.55991
359.08        20.46782
359.53        20.25794
359.98        19.98856
360.43        19.75507
360.88        19.58746
361.33        19.44891
361.78        19.33786
362.23        19.25136
362.68        19.18065
363.13        19.14031
363.58         19.0814
364.03        18.92109
364.48        18.65425
364.93        18.30661
365.38        17.97692
365.83        17.81876
366.28        17.86035
366.73        18.05636
367.18        18.29264
367.63        18.38093
368.08        18.27073
368.53        18.01233
368.98        17.71107
369.43        17.53156
369.88        17.50924
370.33        17.59007
370.78        17.67655
371.23        17.60784
371.68        17.34895
372.13        16.96795
372.58        16.56459
373.03        16.28274
373.48        16.15868
373.93        16.14232
374.38        16.18222
374.83        16.19461
375.28        16.14532
375.72        16.05488
376.17        15.94171
376.62        15.80025
377.07        15.63859
377.52        15.45622
377.97         15.2771
378.42        15.14945
378.87        15.08566
379.32        15.07022
379.77        15.08684
380.22        15.10869
380.67        15.12155
381.11        15.13216
381.56        15.11583
382.01        15.04452
382.46        14.91877
382.91        14.75214
383.36        14.57845
383.81        14.44682
384.26        14.36878
384.71        14.33302
385.15         14.3198
385.60        14.31005
386.05        14.28849
386.50        14.26095
386.95        14.23054
387.40        14.20084
387.85        14.17415
388.29        14.14203
388.74        14.11251
389.19        14.06652
389.64        14.00104
390.09        13.91548
390.54        13.83468
390.98        13.78519
391.43        13.77506
391.88        13.82014
392.33        13.87075
392.78        13.78679
393.23        13.60048
393.67        13.47331
394.12        13.43135
394.57        13.37159
395.02        13.29742
395.47        13.26769
395.91        13.27338
396.36        13.25488
396.81        13.21436
397.26        13.17705
397.71        13.13563
398.15        13.09494
398.60        13.07521
399.05        12.99064
399.50         12.8898
399.95         12.9934
400.39        13.24233
400.84         13.2549
401.29        13.03443
401.74        12.90462
402.18        12.88052
402.63        12.78108
403.08        12.65141
403.53        12.54792
403.97        12.66103
404.42        12.79643
404.87        12.94968
405.32        13.02405
405.76        12.99417
406.21        12.89396
406.66        12.75673
407.11         12.6392
407.55        12.56306
408.00        12.50784
408.45        12.46852
408.90        12.43441
409.34        12.40123
409.79        12.37722
410.24        12.36325
410.68        12.35399
411.13        12.34874
411.58        12.34476
412.03        12.33679
412.47        12.32123
412.92         12.2941
413.37        12.25831
413.81        12.22002
414.26        12.20145
414.71        12.19915
415.15         12.2122
415.60         12.2203
416.05        12.20162
416.49        12.15263
416.94        12.08562
417.39        12.01692
417.83        11.96851
418.28        11.94536
418.73        11.93558
419.17        11.93873
419.62        11.94899
420.07         11.9625
420.51        11.97845
420.96        11.98171
421.41        11.94093
421.85        11.85028
422.30        11.72872
422.74        11.60409
423.19        11.55274
423.64         11.5746
424.08        11.63669
424.53        11.69592
424.98        11.72817
425.42        11.72505
425.87        11.65897
426.31        11.56888
426.76        11.58836
427.21         11.6946
427.65        11.70784
428.10         11.6405
428.54        11.63352
428.99        11.69364
429.44        11.80849
429.88        11.90216
430.33        11.79015
430.77        11.52973
431.22        11.38658
431.66        11.39902
432.11        11.48379
432.56        11.59917
433.00        11.73726
433.45        11.77263
433.89        11.64464
434.34        11.04363
434.78        10.99173
435.23        11.38072
435.67        11.48518
436.12         11.3033
436.57        11.24055
437.01        11.32034
437.46        11.36293
437.90        11.36234
438.35        11.36876
438.79        11.36939
439.24        11.33519
439.68        11.27275
440.13         11.2201
440.57        11.17573
441.02        11.12689
441.46        11.07566
441.91        11.02102
442.35        10.97245
442.80        11.02243
443.24        11.13369
443.69        11.17492
444.13         11.1359
444.58        11.11752
445.02        11.11958
445.47         11.0766
445.91        11.00589
446.36        10.97568
446.80        10.98927
447.24        11.02816
447.69         11.0732
448.13        11.09217
448.58        11.07797
449.02        11.04154
449.47         10.9944
449.91        10.94732
450.36        10.90861
450.80        10.87192
451.25        10.84329
451.69        10.82871
452.13        10.82821
452.58        10.84098
453.02        10.85437
453.47        10.85259
453.91        10.83211
454.36        10.79755
454.80          10.756
455.24         10.7346
455.69        10.74292
456.13        10.73427
456.58        10.70752
457.02        10.78672
457.46        10.79556
457.91        10.77326
458.35        10.68433
458.79        10.66316
459.24        10.69938
459.68        10.66224
460.13        10.58146
460.57        10.55401
461.01        10.59198
461.46        10.64465
461.90        10.68469
462.34        10.67922
462.79        10.61787
463.23         10.5092
463.68        10.40264
464.12        10.36817
464.56        10.41744
465.01        10.55471
465.45        10.70233
465.89        10.71665
466.34        10.61439
466.78        10.52752
467.22        10.49631
467.67        10.49578
468.11        10.53261
468.55        10.59404
468.99        10.65197
469.44        10.67731
469.88        10.66015
470.32         10.5947
470.77        10.50924
471.21        10.46538
471.65        10.47551
472.10        10.51909
472.54        10.57234
472.98        10.60617
473.42        10.61066
473.87        10.59953
474.31        10.57432
474.75        10.54646
475.20        10.52516
475.64        10.50178
476.08        10.47604
476.52        10.46342
476.97        10.46709
477.41        10.45502
477.85        10.42074
478.29        10.55182
478.74        10.49582
479.18        10.60778
479.62        10.74668
480.06        10.80297
480.50        10.76216
480.95        10.68639
481.39        10.61233
481.83        10.58266
482.27        10.61837
482.72        10.72116
483.16        10.85407
483.60         10.9507
484.04        10.97419
484.48        10.96073
484.93        11.03998
485.37        11.14308
485.81        11.15218
486.25        11.86333
486.69        11.64742
487.14        11.18049
487.58         11.6966
488.02        11.48026
488.46        11.53476
488.90         11.4254
489.34        11.23814
489.79        11.28622
490.23        11.48904
490.67        11.78063
491.11        12.03873
491.55        11.98333
491.99        11.69636
492.43        11.63048
492.88         11.8218
493.32        12.00044
493.76        12.11323
494.20        12.21339
494.64        12.28884
495.08        12.32653
495.52        12.34738
495.96        12.39389
496.41        12.47421
496.85        12.55517
497.29        12.63198
497.73         12.7416
498.17        12.85618
498.61        12.89082
499.05         12.8563
499.49        12.81833
499.93        12.81639
500.37        12.90708
500.82        13.06588
501.26        13.17512
501.70        13.21931
502.14        13.26837
502.58        13.33288
503.02        13.39381
503.46         13.4518
503.90        13.51149
504.34        13.55857
504.78        13.57015
505.22        13.54563
505.66        13.49299
506.10        13.43059
506.54        13.41695
506.98        13.46793
507.42        13.51537
507.86        13.52917
508.30        13.75449
508.74        13.70112
509.18        13.76276
509.62        13.80332
510.06        13.84988
510.50         13.9013
510.94        13.95286
511.38        14.00019
511.82        14.02355
512.26        14.02191
512.70        14.00655
513.14        13.98154
513.58        13.95266
514.02        13.92439
514.46         13.8927
514.90        13.87524
515.34        13.89957
515.78        13.96697
516.22        14.07034
516.66        14.16774
517.10        14.19248
517.54        14.13371
517.98        14.01126
518.42        13.88017
518.86        13.82931
519.30        13.87784
519.74         13.9977
520.18        14.13573
520.62        14.20399
521.06         14.1795
521.50        14.09214
521.93        13.98117
522.37        13.90925
522.81        13.89329
523.25        13.90935
523.69        13.93985
524.13        13.95874
524.57        13.95638
525.01        13.94577
525.45        13.92326
525.89         13.8805
526.32         13.8195
526.76        13.74298
527.20        13.67186
527.64        13.64169
528.08        13.65781
528.52        13.70942
528.96        13.76807
529.40        13.78745
529.83         13.7542
530.27        13.68435
530.71        13.60089
531.15        13.54187
531.59        13.51675
532.03        13.51428
532.46        13.51659
532.90        13.49582
533.34        13.44848
533.78        13.38995
534.22        13.33538
534.66        13.30489
535.09        13.29972
535.53        13.30976
535.97        13.33107
536.41        13.34821
536.85        13.35454
537.28        13.39111
537.72        13.43586
538.16         13.3683
538.60        13.22989
539.04        13.21229
539.47        13.31113
539.91        13.36743
540.35        13.37624
540.79        13.44106
541.22        13.53772
541.66        13.58524
542.10        13.57843
542.54        13.52355
542.97        13.46653
543.41        13.53194
543.85        13.70831
544.29         13.8689
544.72        13.98106
545.16        14.09531
545.60        14.19967
546.04        14.25643
546.47        14.28373
546.91        14.33607
547.35        14.42373
547.79        14.53439
548.22        14.66137
548.66        14.79492
549.10        14.93505
549.53         15.1201
549.97        15.32604
550.41        15.47696
550.84        15.55756
551.28        15.60086
551.72        15.62423
552.15        15.64503
552.59        15.68325
553.03        15.73235
553.46         15.7854
553.90        15.85236
554.34        15.92445
554.77         15.9835
555.21        16.04653
555.65         16.1526
556.08        16.29825
556.52        16.46552
556.96        16.61315
557.39        16.69527
557.83         16.7094
558.27        16.64848
558.70        16.56317
559.14        16.57431
559.57         16.6825
560.01        16.79708
560.45        16.88667
560.88        16.96448
561.32        17.02926
561.75        17.04963
562.19        17.06102
562.63        17.09949
563.06         17.1675
563.50        17.30822
563.93        17.47372
564.37        17.46919
564.80        17.34154
565.24        17.39759
565.68        17.61607
566.11        17.74126
566.55        17.76979
566.98        17.83462
567.42        17.93922
567.85         18.0764
568.29        18.12553
568.72        18.19819
569.16        18.27836
569.60        18.38955
570.03        18.53194
570.47        18.67763
570.90        18.80216
571.34        18.99191
571.77        19.19403
572.21        19.16972
572.64        19.29325
573.08        19.23381
573.51        19.72763
573.95        19.73289
574.38        19.49325
574.82        19.55156
575.25        19.75302
575.69        19.87326
576.12        19.86148
576.56        19.97187
576.99        20.17369
577.42        20.32969
577.86        19.84649
578.29        20.23305
578.73        20.06714
579.16         20.1003
579.60        19.92133
580.03        19.85809
580.47        19.94625
580.90        19.70998
581.33        19.52252
581.77        19.74746
582.20        20.03697
582.64         19.6238
583.07        19.68046
583.51        19.37176
583.94        19.17772
584.37        19.05126
584.81        19.02544
585.24        18.93511
585.68        19.12331
586.11          18.635
586.54        18.74613
586.98        18.60436
587.41        18.55948
587.85        18.69136
588.28        18.51356
588.71        18.64956
589.15        18.55148
589.58        18.49467
590.01        18.55461
590.45        18.41798
590.88        18.22095
591.31        18.18823
591.75        18.33495
592.18        18.47667
592.61        18.53958
593.05        18.64651
593.48        18.83092
593.91        18.60299
594.35        18.73294
594.78        18.81512
595.21        19.03788
595.65        18.97821
596.08        18.68666
596.51        19.01643
596.94        19.16595
597.38        19.39337
597.81        19.45055
598.24        19.54745
598.68        19.70324
599.11         19.8214
599.54        20.44721
599.97         20.0976
600.41        20.83611
600.84        21.01822
601.27        21.21369
601.70        21.35843
602.14        21.51622
602.57        21.89601
603.00        22.41778
603.43        22.78214
603.87        22.98508
604.30        23.21167
604.73         23.4916
605.16        23.95854
605.60        23.98201
606.03         24.3275
606.46        24.83554
606.89        24.79112
607.32        25.48981
607.76        25.76198
608.19        26.00292
608.62        26.21161
609.05         26.4318
609.48        26.75778
609.92        27.20758
610.35        27.35396
610.78        27.91072
611.21        28.21965
611.64        28.45231
612.07        28.63708
612.50        28.79444
612.94        28.95822
613.37        29.15761
613.80        29.38731
614.23         29.6425
614.66        29.90984
615.09        30.17177
615.52        30.42188
615.96        30.67188
616.39        30.89224
616.82        31.07237
617.25        31.39268
617.68        31.77285
618.11        31.65954
618.54        31.24369
618.97        31.42689
619.40          32.173
619.84        32.64632
620.27        32.74751
620.70        32.89943
621.13        33.10623
621.56        33.08969
621.99        32.93765
622.42         33.0299
622.85         33.3084
623.28         33.3959
623.71        33.30474
624.14        33.19335
624.57        33.09417
625.00        33.14443
625.43        33.00143
625.86         32.9534
626.29        32.88323
626.72        32.82042
627.15        32.76531
627.58         32.5757
628.01        32.49975
628.44        32.34698
628.87        32.18972
629.30        32.02076
629.73         31.8272
630.16        31.58496
630.59        31.29101
631.02        30.95648
631.45         30.6128
631.88         30.3108
632.31        30.06066
632.74        29.84636
633.17         29.6325
633.60        29.36059
634.03        29.01656
634.46        28.62099
634.89        28.20187
635.32        27.80228
635.75        27.43614
636.18        27.09137
636.61        26.75606
637.04        26.41238
637.47        26.05694
637.89        25.69371
638.32        25.32337
638.75        24.98776
639.18        24.70113
639.61        24.35865
640.04           24.14
640.47        23.88813
640.90        23.65569
641.33        23.44368
641.76        23.26483
642.18        23.13861
642.61        23.05915
643.04        23.02511
643.47        23.01635
643.90        23.01725
644.33        23.01664
644.76        23.02194
645.18        23.03711
645.61        23.04128
646.04        23.03368
646.47         23.0697
646.90        23.18251
647.33        23.14733
647.75        23.41242
648.18         23.6216
648.61        23.88375
649.04        24.16477
649.47        24.46562
649.89        24.74847
650.32         25.0205
650.75        25.44652
651.18        25.97414
651.61        26.28479
652.03        26.42193
652.46        26.82936
652.89        27.48619
653.32        27.84629
653.74         27.9851
654.17        28.49734
654.60        28.76742
655.03        29.49178
655.46        29.59195
655.88        30.33513
656.31        32.44292
656.74        36.10592
657.16        34.27776
657.59        32.12661
658.02        32.79789
658.45         32.8469
658.87        33.75693
659.30        33.63424
659.73         33.5421
660.15        33.59682
660.58        34.32454
661.01        34.76566
661.44        34.94985
661.86        34.96124
662.29        34.92155
662.72        35.32999
663.14        36.10136
663.57        36.37345
664.00        36.19136
664.42        36.37682
664.85        36.92699
665.27        37.22919
665.70        37.26013
666.13        37.37328
666.55        37.58061
666.98        37.71705
667.41        37.80546
667.83        37.93161
668.26        38.10249
668.69        38.31873
669.11        38.53526
669.54        38.67001
669.96        38.71093
670.39        38.68369
670.82        38.68716
671.24        38.84615
671.67        39.17694
672.09         39.6908
672.52        40.26402
672.94        40.39664
673.37        40.51735
673.80          40.314
674.22        40.07814
674.65        40.03781
675.07        40.26124
675.50        40.65945
675.92        41.11974
676.35          41.438
676.77        41.56234
677.20        41.56152
677.62        41.50589
678.05         41.5075
678.47        41.60049
678.90        41.74211
679.32        41.91521
679.75        42.13399
680.17         42.3889
680.60        42.62748
681.02        42.79971
681.45        43.08614
681.87        43.02819
682.30        43.01113
682.72        42.95762
683.15        42.95114
683.57        43.02973
684.00        43.21101
684.42        43.44991
684.85        43.63469
685.27        43.73842
685.70        43.76166
686.12        43.73409
686.54        43.84436
686.97        44.04276
687.39        44.05343
687.82        43.89295
688.24        43.85554
688.66        43.96164
689.09        44.04124
689.51        44.09894
689.94        44.25704
690.36        44.52966
690.78        44.78616
691.21        44.93565
691.63        45.46064
692.06         45.2045
692.48        45.44264
692.90        45.78736
693.33        45.97139
693.75        45.98472
694.17        45.92531
694.60        45.86411
695.02        46.19814
695.44        46.28756
695.87        46.69715
696.29          47.099
696.71         47.1826
697.14        46.98599
697.56        46.75776
697.98        46.57468
698.41        46.89301
698.83        46.72534
699.25        47.02541
699.68        47.41104
700.10        47.66569
700.52        47.70522
700.94         47.8644
701.37        47.74869
701.79        47.82738
702.21        47.98102
702.64        48.18254
703.06        48.37595
703.48        48.49285
703.90        48.52673
704.33        48.50743
704.75        48.48107
705.17        48.50659
705.59         48.6023
706.01        48.74098
706.44         48.9164
706.86        49.12951
707.28        49.34998
707.70        49.60627
708.12        49.85013
708.55        49.93344
708.97        49.87573
709.39        49.86103
709.81        49.92389
710.23         49.9867
710.66         50.0623
711.08        50.23197
711.50        50.45239
711.92        50.62729
712.34        50.73952
712.76        50.81224
713.19        50.85595
713.61        50.93332
714.03        51.03456
714.45        51.13948
714.87        51.22682
715.29        51.26889
715.71        51.26129
716.13        51.21931
716.56        51.15211
716.98         51.1258
717.40        51.14265
717.82        51.19827
718.24        51.28573
718.66        51.39315
719.08        51.51188
719.50        51.63622
719.92        51.77362
720.34        51.93637
720.76        52.12395
721.19         52.3215
721.61        52.49737
722.03         52.6001
722.45        52.64418
722.87        52.52463
723.29        52.30594
723.71        52.44753
724.13           52.98
724.55        52.62944
724.97        53.00573
725.39        52.99751
725.81         53.0832
726.23        53.09292
726.65        53.08186
727.07        53.09784
727.49        53.27759
727.91          53.493
728.33        53.72773
728.75         53.8861
729.17        53.94238
729.59        53.92069
730.01        53.88283
730.43         53.9278
730.85         54.0775
731.27        54.30274
731.69         54.5294
732.10        54.64743
732.52        54.62762
732.94        54.50228
733.36        54.35112
733.78        54.29239
734.20        54.36313
734.62          54.587
735.04        54.85671
735.46        54.95934
735.88        54.74017
736.30        54.77936
736.72        55.05147
737.13        55.23639
737.55         55.2617
737.97        55.47158
738.39        55.79222
738.81        55.58668
739.23        55.04836
739.65        55.28296
740.06        56.09601
740.48        56.30885
740.90        55.85353
741.32        55.38771
741.74        55.08788
742.16          54.949
742.57        55.04597
742.99        55.36289
743.41        55.79309
743.83        56.14888
744.25        56.36634
744.67        56.47398
745.08        56.53197
745.50        56.60967
745.92        56.73955
746.34        56.88174
746.75        56.97342
747.17        56.94288
747.59        56.78112
748.01        56.51601
748.42        56.24377
748.84        56.12852
749.26        56.17459
749.68        56.31456
750.09        56.50573
750.51        56.55593
750.93        56.52079
751.35        56.94271
751.76        57.72031
752.18        57.90891
752.60        57.39473
753.01          57.605
753.43        56.89109
753.85        56.81719
754.27        56.89991
754.68        57.20466
755.10        57.49669
755.52        57.73787
755.93        57.87849
756.35        57.98137
756.77        58.02641
757.18        58.05731
757.60        58.11714
758.02        57.91794
758.43         57.6321
758.85        58.18078
759.26        59.39151
759.68        59.70389
760.10        59.10211
760.51        58.93576
760.93        59.01478
761.34        58.63166
761.76        59.13107
762.18        58.96077
762.59        58.63178
763.01        58.48135
763.42        58.58802
763.84        58.71793
764.26        58.80127
764.67        58.57118
765.09        58.18685
765.50        58.23229
765.92        58.65899
766.33        58.72598
766.75        58.36337
767.16        58.57913
767.58        58.52425
768.00         58.9277
768.41        59.45841
768.83        59.93704
769.24        60.15809
769.66        59.92637
770.07        59.35316
770.49         58.6943
770.90        58.18111
771.32         58.3486
771.73        59.07512
772.15        59.50266
772.56        59.56532
772.97        59.75757
773.39        60.03657
773.80         60.1405
774.22        60.02178
774.63        59.78808
775.05        59.50129
775.46          59.317
775.88        59.26728
776.29        59.33117
776.70        59.46867
777.12        59.62046
777.53        59.76976
777.95         59.9045
778.36        60.02221
778.77        60.09075
779.19         60.1206
779.60        60.13155
780.02        60.11691
780.43         60.1451
780.84        60.27127
781.26        60.22953
781.67        60.11403
782.09        60.67469
782.50        61.72899
782.91         61.4067
783.33        61.20485
783.74        61.01264
784.15        61.27164
784.57        61.51073
784.98        61.60908
785.39        61.25372
785.81         60.5961
786.22        60.46214
786.63        60.82826
787.04        60.94318
787.46        60.80171
787.87        60.82615
788.28        61.03526
788.70        61.22831
789.11        61.37649
789.52        61.54895
789.93        61.70305
790.35        61.75905
790.76        61.73032
791.17        61.62744
791.58        61.52843
792.00        61.52944
792.41        61.67206
792.82        61.96999
793.23        62.34647
793.65        62.52147
794.06        62.52253
794.47        62.67173
794.88        62.88349
795.29        62.79816
795.71        62.37597
796.12        61.91612
796.53        61.53897
796.94        61.19927
797.35        61.07674
797.76        61.56363
798.18        62.39852
798.59        62.95004
799.00        63.11457
799.41        62.33666
799.82        62.41249
800.23        62.21959
800.64         62.3105
801.06        62.54866
801.47         62.8781
801.88        63.06799
802.29        63.02827
802.70        62.83753
803.11         62.5756
803.52         62.3653
803.93        62.26205
804.34         62.2443
804.75        62.26033
805.17        62.26686
805.58        62.27969
805.99        62.16183
806.40        62.02425
806.81        62.36983
807.22        63.04108
807.63        63.25225
808.04        63.00022
808.45        62.92614
808.86        63.05513
809.27        62.97441
809.68        62.72235
810.09          62.585
810.50          62.599
810.91        62.69019
811.32        62.81284
811.73        62.88527
812.14        62.88095
812.55        62.83643
812.96        62.77962
813.37        62.74922
813.78        62.76372
814.19        62.80997
814.60        62.87816
815.01         62.9591
815.42        63.04773
815.83        63.14336
816.24        63.24758
816.65        63.35615
817.05        63.46255
817.46        63.53365
817.87        63.57096
818.28        63.53387
818.69        63.42368
819.10         63.2545
819.51        63.08807
819.92        63.03763
820.33        63.12727
820.74        63.31077
821.14        63.51699
821.55        63.65419
821.96        63.68675
822.37        63.66181
822.78        63.58029
823.19        63.44554
823.60        63.28469
824.00         63.1095
824.41        62.98989
824.82        63.11438
825.23        63.50099
825.64        64.08697
826.04        64.72964
826.45        65.09068
826.86        65.10735
827.27          64.873
827.68        64.48724
828.08        64.14861
828.49        63.90089
828.90        63.70795
829.31        63.63366
829.72        63.77909
830.12        64.16803
830.53        64.73573
830.94        65.31256
831.35        65.54323
831.75        65.35129
832.16        64.78139
832.57         64.0906
832.97        63.67922
833.38        63.65835
833.79        63.91628
834.20        64.27867
834.60        64.46033
835.01        64.40337
835.42        64.20807
835.82        64.00326
836.23        63.94492
836.64        64.09593
837.04         64.4092
837.45         64.7634
837.86        65.07212
838.26         65.2963
838.67        65.42517
839.08        65.46973
839.48         65.4269
839.89        65.30157
840.29        65.06191
840.70        64.78068
841.11        64.51379
841.51        64.30084
841.92        64.16073
842.33        64.02699
842.73        63.78546
843.14        63.39558
843.54        62.91528
843.95        62.56437
844.35        62.72139
844.76        63.39499
845.17        64.47223
845.57        65.60709
845.98        66.06402
846.38        65.70318
846.79        64.75345
847.19        63.57557
847.60        62.75508
848.00        62.45619
848.41        62.49157
848.81        62.81249
849.22        63.23521
849.62        63.71264
850.03        64.25786
850.43        64.77045
850.84        64.95628
851.24        64.79817
851.65        64.32066
852.05        63.73423
852.46        63.40898
852.86        63.41199
853.27        63.66148
853.67        63.97529
854.07        64.26431
854.48        64.43929
854.88        64.60821
855.29        64.62916
855.69        64.45278
856.10         64.0027
856.50        63.37242
856.90        62.74584
857.31        62.42358
857.71        62.49697
858.12        62.85674
858.52        63.39679
858.92        63.73268
859.33        63.72723
859.73        63.50959
860.13          63.202
860.54        63.03163
860.94        63.09512
861.34        63.29838
861.75        63.51637
862.15          63.641
862.55         63.5894
862.96         63.4169
863.36        63.19646
863.76        63.05265
864.17        63.01128
864.57        63.06505
864.97        63.10857
865.38        62.96164
865.78        62.63368
866.18        62.15735
866.58        61.71582
866.99        61.61919
867.39        61.94673
867.79           62.57
868.19        63.23653
868.60        63.54063
869.00        63.39502
869.40        62.92606
869.80        62.32139
870.21        61.91916
870.61        61.86455
871.01        62.02826
871.41         62.3104
871.81        62.56608
872.22        62.72403
872.62        62.87431
873.02        63.03236
873.42        63.20333
873.82        63.38737
874.22        63.56467
874.63        63.73768
875.03        63.90302
875.43        64.06459
875.83        64.19283
876.23        64.31265
876.63        64.45504
877.03        64.62779
877.44        64.86822
877.84        65.01711
878.24        64.85041
878.64        64.34769
879.04         63.5482
879.44         62.8075
879.84        62.63808
880.24        63.09557
880.64        64.06587
881.04        65.00045
881.44        64.92237
881.84        63.67372
882.24        61.66377
882.65        59.71453
883.05        58.89876
883.45        59.46357
883.85        61.06943
884.25        63.15818
884.65        64.69154
885.05        65.25856
885.45        65.12163
885.85        64.60549
886.25        64.22516
886.65        64.13976
887.05        64.16084
887.45        64.14379
887.85        63.89639
888.25        63.38745
888.65         62.7613
889.04        62.17032
889.44        61.82706
889.84        61.77758
890.24         61.9776
890.64        62.31595
891.04        62.61515
891.44        62.81183
891.84        62.92464
892.24        63.06916
892.64        63.43087
893.04        64.03944
893.44        64.84187
893.83        65.63405
894.23        66.00025
894.63        65.87595
895.03        65.33944
895.43         64.7319
895.83        64.59568
896.23        65.03477
896.63        65.89899
897.02        66.74451
897.42        66.84781
897.82        66.08481
898.22        64.71655
898.62        63.28043
899.01        62.51464
899.41        62.58869
899.81        63.31266
900.21        64.24783
900.61        64.57587
901.00        64.06602
901.40        63.05466
901.80        62.08513
902.20        61.90186
902.59        62.66684
902.99        64.12101
903.39        65.81818
903.79        66.80326
904.18        66.72533
904.58        65.91124
904.98        64.89624
905.38        64.42101
905.77        64.63383
906.17        65.31065
906.57        66.13179
906.96        66.61472
907.36        66.55797
907.76         66.1385
908.15        65.58676
908.55        65.19603
908.95        65.10098
909.34        65.19313
909.74        65.31958
910.14        65.21916
910.53        64.84936
910.93        64.34054
911.33        63.89349
911.72        63.83099
912.12        64.20869
912.52        64.88947
912.91        65.67626
913.31        66.23687
913.70        66.49134
914.10        66.48091
914.49        66.30087
914.89        66.05303
915.29        65.81857
915.68        65.56351
916.08        65.32849
916.47        65.12543
916.87        64.99088
917.26        64.90613
917.66        64.89175
918.05        64.95287
918.45        65.04777
918.84         65.2087
919.24        65.29361
919.64        65.17831
920.03        64.84782
920.42        64.34087
920.82        63.86017
921.21        63.57625
921.61        63.53521
922.00        63.72933
922.40        64.01305
922.79         64.2373
923.19        64.30439
923.58        64.24862
923.98        64.21482
924.37        64.39577
924.77        64.82552
925.16        65.46632
925.55         66.0737
925.95         66.2144
926.34         65.8258
926.74        65.02013
927.13        64.14571
927.52        63.71692
927.92        63.85296
928.31        64.41985
928.70        65.11932
929.10        65.42787
929.49        65.23737
929.89        64.71671
930.28        64.19306
930.67        64.15691
931.07        64.69604
931.46        65.61063
931.85        66.63962
932.24        67.39567
932.64        67.71146
933.03        67.78156
933.42        67.56732
933.82        67.05553
934.21        66.35817
934.60        65.47528
934.99        64.72621
935.39        64.56795
935.78        65.05234
936.17        66.04436
936.56        67.15141
936.96        67.68491
937.35        67.49359
937.74        66.76032
938.13        65.73923
938.53        64.85213
938.92        64.25795
939.31        63.90739
939.70        63.82929
940.09        64.07958
940.49        64.57324
940.88        65.27261
941.27         66.1012
941.66        66.91145
942.05        67.56309
942.44        68.06605
942.84        68.05929
943.23        66.99499
943.62        64.99222
944.01        62.44736
944.40        60.15896
944.79        59.10181
945.18        59.40497
945.57        60.81993
945.97        62.81465
946.36        64.51254
946.75        65.35191
947.14        65.54615
947.53        65.37284
947.92         65.3514
948.31        65.63912
948.70         65.9709
949.09        66.27265
949.48        66.48257
949.87        66.55697
950.26        66.61345
950.65        66.52034
951.04        66.01714
951.43        65.12286
951.82        63.94226
952.21         62.8527
952.60        62.42044
952.99        62.73563
953.38        63.63118
953.77        64.68327
954.16        65.15363
954.55        64.82358
954.94        63.89339
955.33        62.74653
955.72        62.02137
956.11        61.91656
956.50        62.26259
956.89        62.78977
957.28        63.05871
957.66        62.95121
958.05         62.5957
958.44        62.24809
958.83         62.2919
959.22        62.80424
959.61        63.63397
960.00        64.47263
960.39        64.80896
960.78        64.50219
961.16        63.72105
961.55        62.77771
961.94        62.14043
962.33        61.95577
962.72        62.10242
963.11        62.43209
963.49        62.71525
963.88         62.8362
964.27        62.90546
964.66        62.99895
965.04        63.24737
965.43        63.62256
965.82        64.06532
966.21         64.5074
966.60        64.86874
966.98        65.12186
967.37        65.26285
967.76        65.28506
968.15        65.16191
968.53        64.92419
968.92         64.5538
969.31        64.14751
969.69        63.85725
970.08        63.69617
970.47         63.6432
970.86        63.64838
971.24         63.6059
971.63        63.50047
972.02        63.45023
972.40        63.45951
972.79        63.48871
973.17        63.60832
973.56        63.69611
973.95        64.03495
974.33        65.09551
974.72        66.85576
975.11        69.26603
975.49        71.73368
975.88        72.88358
976.26        72.30296
976.65        70.32998
977.04        67.86591
977.42        66.15032
977.81        65.48335
978.19        65.46649
978.58         65.7199
978.96         65.4604
979.35         64.5235
979.74         63.1565
980.12        61.73782
980.51        60.74501
980.89        60.43046
981.28         60.6676
981.66        61.18001
982.05        61.43665
982.43        61.31718
982.82        60.92674
983.20        60.77277
983.59        61.64891
983.97        63.74997
984.35        66.83081
984.74        69.88084
985.12        71.28974
985.51        70.42172
985.89        67.92413
986.28        64.98107
986.66        62.94472
987.04        62.23655
987.43        62.35138
987.81        63.07068
988.20        63.82952
988.58        64.41483
988.96        65.09599
989.35        65.47779
989.73        65.02704
990.12        63.70754
990.50        61.60311
990.88        59.63843
991.27        59.22187
991.65        60.63658
992.03        63.71962
992.42        67.19729
992.80         68.6176
993.18        67.01042
993.56        63.42602
993.95        59.84441
994.33        58.31059
994.71        59.27002
995.10        62.00493
995.48        65.74276
995.86        68.22527
996.24        68.40107
996.63        67.11156
997.01        65.15024
997.39        63.53034
997.77         62.5844
998.15        61.82627
998.54        61.56159
998.92        62.45509
999.30         64.5584
999.68        67.87112
1000.06        71.13697
1000.45        71.92522
1000.83        69.87893
1001.21        65.73997
1001.59        61.34029
1001.97        59.20265
1002.35        59.78557
1002.73        62.35644
1003.12        65.86449
1003.50        68.36104
1003.88        69.03321
1004.26        68.57638
1004.64        67.46318
1005.02        66.46618
1005.40        65.85334
1005.78        65.09985
1006.16        64.55005
1006.54         64.8719
1006.92        66.12538
1007.30        68.42501
1007.69        70.39172
1008.07        69.47142
1008.45        65.50439
1008.83        59.83445
1009.21        54.88846
1009.59        53.23961
1009.97        55.09578
1010.35        59.94311
1010.73         66.3113
1011.11        70.42426
1011.49        70.39722
1011.86         66.8574
1012.24        62.33005
1012.62        60.78234
1013.00        63.42751
1013.38        69.76382
1013.76          77.338
1014.14        79.69571
1014.52        75.05502
1014.90        66.95175
1015.28          59.718
1015.66        57.05442
1016.04        59.10053
1016.41        65.08763
1016.79        73.41203
1017.17        79.94102
1017.55        81.62418
1017.93        79.02492
1018.31        73.18259
1018.69        67.25454
1019.06         63.0871
1019.44        60.35252
1019.82        58.72173
1020.20        57.74971
1020.58        57.13083
1020.95        57.15129
1021.33        57.67821
1021.71        58.25075
1022.09        58.61736
1022.46         58.4687
1022.84        58.46239
1023.22        59.46718
1023.60        61.79516
1023.97        65.89158
1024.35        70.30573
1024.73         70.6591
