SpectraSmart Spectrum 2.9.0.0
--------- Device Information -----------
Spectrum Name :  反射率_0
Saving Time :  2024/05/03 20:49:02
Spectro-Module Model Name : SE2030-DUVN
Spectro-Module Serial Number : OS361AC55029948
Wavelength Start : 200
Wavelength End : 1025
Wavelength Unit : Wavelength(nm)
Spectrum Unit : Reflectance(%)
-----------Spectrum Setting ------------
Integration Time : 20ms
Average : 10
Boxcar : 0
Background removal :  enabled
linearity correction :  enabled
SC :  disabled
Intensity correction :  disabled
DWT denoise :  enabled
savitzky-golay :  disabled
FFT :  disabled
Running average :  disabled
Kalman :  disabled
High pass :  disabled
---------------BEGIN--------------------
Wavelength(nm)             Reflectance(%)
200.29               0
200.75        8.831721
201.21       -4.020751
201.67        770.6617
202.13        41.01639
202.58        26.53034
203.04        19.35115
203.50         15.7061
203.96        17.27099
204.42        26.68437
204.88        64.06326
205.34       -1299.388
205.80       -129.3584
206.26       -143.9809
206.72       -32014.59
207.18        100.6773
207.64        51.70743
208.10          32.456
208.55        5.281543
209.01       -207.4098
209.47       -265.2917
209.93        7.669214
210.39         33.9769
210.85        41.87758
211.31        46.67014
211.77        52.12774
212.23        62.69242
212.69        83.45909
213.14        78.44952
213.60        32.56945
214.06        12.74164
214.52        6.354087
214.98        2.829537
215.44       -1.653602
215.90       -14.25819
216.36        110.8694
216.81        3.686333
217.27       -28.46013
217.73       -105.9598
218.19       -534.8782
218.65       -12292.94
219.11       -929.0638
219.57       -241.6444
220.02       -129.1198
220.48       -209.9959
220.94        255.5395
221.40        87.51604
221.86        63.63684
222.32        57.63578
222.77        57.74757
223.23         62.9769
223.69        73.68903
224.15        82.57081
224.61        82.12841
225.06        76.67924
225.52        73.48487
225.98        76.16343
226.44        84.84683
226.90        99.00188
227.36        116.5679
227.81        127.4852
228.27        125.1265
228.73        115.0704
229.19        103.2185
229.65        93.91831
230.10        87.38583
230.56        82.90618
231.02        79.92168
231.48        78.26144
231.93        77.57289
232.39        78.01576
232.85        79.00395
233.31        79.89102
233.77        80.46739
234.22        80.58768
234.68        80.77842
235.14        82.00458
235.60        84.40475
236.05        87.96496
236.51        90.91616
236.97        90.15102
237.43        85.22646
237.88        77.76677
238.34        70.63846
238.80        66.91242
239.26        67.19859
239.71        73.09586
240.17        84.42724
240.63        99.72133
241.08        110.1839
241.54        111.2387
242.00        105.8901
242.46        101.0546
242.91        98.26226
243.37        92.89532
243.83        84.93066
244.28        82.86752
244.74        95.58908
245.20         121.114
245.66        137.4843
246.11        126.5574
246.57        96.65479
247.03        58.16344
247.48        24.58359
247.94        7.083073
248.40        4.739544
248.85        11.54648
249.31        24.06232
249.77        33.22286
250.22        35.16821
250.68        34.30855
251.14         32.9286
251.59        32.94955
252.05        35.13965
252.51        38.94696
252.96        46.29239
253.42        59.27834
253.88        74.07656
254.33        85.90833
254.79        89.78938
255.25        84.18283
255.70        74.84232
256.16        66.49842
256.62        61.22412
257.07        60.25178
257.53        62.64138
257.99        66.38103
258.44        69.61021
258.90        70.86338
259.35        69.79665
259.81        67.97754
260.27        65.92219
260.72         64.1544
261.18        63.15541
261.63        62.37136
262.09        61.95175
262.55        61.64526
263.00        61.29169
263.46         61.0059
263.91        60.71663
264.37        60.65194
264.83        60.70507
265.28        60.76733
265.74        60.66347
266.19        59.86049
266.65        58.51348
267.11        56.75423
267.56        55.01695
268.02        54.02738
268.47        53.81797
268.93        54.19208
269.38        54.70767
269.84        54.60967
270.30        53.75714
270.75        52.43291
271.21          51.091
271.66         50.2525
272.12        50.02988
272.57        50.13273
273.03        50.36537
273.48        50.44505
273.94        50.27398
274.39        49.96722
274.85        49.43728
275.31        48.42048
275.76        46.96356
276.22        45.26725
276.67        43.72533
277.13         43.0307
277.58        43.12956
278.04        43.82269
278.49        44.53198
278.95        44.41072
279.40         43.2861
279.86        41.63685
280.31        39.89455
280.77        38.75655
281.22        38.22571
281.68        38.10681
282.13        38.14355
282.59        38.07625
283.04        37.77946
283.50        37.38497
283.95        36.90189
284.41        36.38698
284.86        35.83876
285.32        35.27435
285.77        34.69097
286.22        34.17551
286.68        33.76696
287.13        33.42531
287.59        33.17195
288.04         32.9535
288.50        32.77542
288.95        32.60528
289.41         32.4451
289.86        32.24554
290.32         32.0256
290.77        31.77384
291.22        31.51213
291.68        31.25657
292.13        31.00469
292.59        30.78568
293.04        30.61662
293.50         30.5502
293.95        30.58839
294.40        30.71483
294.86        30.92943
295.31         31.2176
295.77         31.5641
296.22        31.95391
296.68        32.32341
297.13        32.57378
297.58        32.67729
298.04        32.68335
298.49        32.63758
298.95        32.65489
299.40        32.74847
299.85        32.89758
300.31         33.1166
300.76        33.39306
301.21         33.7206
301.67        34.10034
302.12        34.44925
302.58         34.6646
303.03        34.71178
303.48        34.62796
303.94        34.52829
304.39        34.52691
304.84        34.66712
305.30        34.90839
305.75        35.14454
306.20        35.24564
306.66        35.19767
307.11        35.02842
307.57        34.83801
308.02         34.7046
308.47        34.66885
308.93        34.70313
309.38        34.74475
309.83        34.73971
310.29        34.67066
310.74        34.54628
311.19         34.3989
311.65        34.27438
312.10        34.17562
312.55         34.0886
313.00        33.97868
313.46        33.79838
313.91        33.53167
314.36        33.21291
314.82        32.89488
315.27        32.64584
315.72        32.49167
316.18        32.41292
316.63        32.37391
317.08        32.32131
317.53        32.23596
317.99        32.12527
318.44         32.0128
318.89        31.92292
319.35        31.85897
319.80        31.80598
320.25        31.73888
320.70        31.62725
321.16        31.45712
321.61        31.24391
322.06        31.00274
322.51         30.7622
322.97        30.53468
323.42        30.32785
323.87        30.13062
324.32         29.9265
324.78        29.71108
325.23        29.50003
325.68        29.31495
326.13        29.19435
326.59        29.13245
327.04        29.12924
327.49        29.13842
327.94        29.09469
328.39        28.97912
328.85        28.80246
329.30          28.604
329.75        28.42494
330.20        28.28261
330.66         28.1495
331.11        28.04428
331.56        27.95873
332.01        27.88887
332.46        27.84652
332.92        27.78634
333.37        27.66431
333.82        27.46193
334.27         27.1911
334.72        26.93303
335.17        26.82864
335.63        26.89963
336.08        27.12039
336.53        27.37006
336.98        27.45877
337.43        27.33726
337.88        27.06169
338.34        26.73401
338.79        26.52598
339.24        26.48799
339.69        26.57252
340.14        26.71145
340.59        26.79548
341.05         26.7901
341.50        26.73181
341.95        26.66625
342.40        26.66693
342.85        26.74866
343.30        26.87938
343.75        27.00248
344.20        27.03378
344.66        26.96486
345.11        26.82553
345.56        26.67602
346.01         26.6038
346.46        26.63135
346.91        26.72534
347.36        26.85657
347.81        26.98039
348.26         27.0754
348.72        27.15492
349.17        27.19858
349.62        27.18198
350.07        27.10538
350.52        26.97372
350.97        26.82202
351.42        26.71018
351.87        26.65169
352.32        26.63136
352.77        26.62059
353.22         26.5699
353.67         26.4695
354.13        26.34822
354.58        26.21258
355.03        26.09303
355.48        26.00093
355.93        25.92734
356.38        25.87778
356.83        25.86273
357.28        25.87685
357.73        25.91119
358.18        25.94285
358.63        25.93427
359.08        25.87501
359.53        25.77479
359.98        25.64125
360.43        25.49164
360.88         25.3314
361.33           25.15
361.78        24.96445
362.23        24.79841
362.68        24.65643
363.13        24.54586
363.58        24.42328
364.03        24.21714
364.48        23.92571
364.93        23.57581
365.38        23.26181
365.83        23.12739
366.28        23.19381
366.73        23.41132
367.18        23.66192
367.63        23.75314
368.08        23.63262
368.53        23.35366
368.98        23.01559
369.43         22.7735
369.88        22.66682
370.33        22.64882
370.78        22.64935
371.23        22.55355
371.68         22.3353
372.13        22.04546
372.58        21.75338
373.03         21.5546
373.48        21.47167
373.93        21.47011
374.38        21.50229
374.83        21.49351
375.28        21.41705
375.72        21.28396
376.17        21.13848
376.62        21.01007
377.07        20.90497
377.52         20.8081
377.97        20.70068
378.42        20.55797
378.87        20.38399
379.32        20.20174
379.77        20.03409
380.22         19.9073
380.67         19.8229
381.11        19.76761
381.56        19.73108
382.01        19.71209
382.46         19.7025
382.91        19.70413
383.36        19.68231
383.81        19.58391
384.26        19.40754
384.71        19.17376
385.15        18.93985
385.60        18.81772
386.05        18.82216
386.50        18.91161
386.95         19.0306
387.40        19.09258
387.85        19.07403
388.29        18.99839
388.74        18.89382
389.19        18.75589
389.64        18.59444
390.09        18.40477
390.54         18.2345
390.98        18.14565
391.43        18.15393
391.88        18.27051
392.33        18.41808
392.78        18.39139
393.23        18.22063
393.67        18.12137
394.12        18.11765
394.57        18.05572
395.02        17.93966
395.47        17.85586
395.91        17.80313
396.36        17.72524
396.81        17.63286
397.26        17.55126
397.71        17.47819
398.15        17.42804
398.60          17.425
399.05        17.35774
399.50          17.259
399.95        17.37725
400.39        17.62729
400.84        17.50997
401.29        17.09309
401.74        16.90403
402.18         16.9828
402.63        17.06066
403.08        17.11419
403.53        17.08282
403.97        17.19358
404.42        17.22504
404.87        17.24514
405.32        17.24126
405.76         17.2101
406.21        17.15852
406.66        17.08451
407.11        16.99251
407.55        16.89286
408.00        16.78699
408.45        16.69005
408.90        16.62307
409.34        16.59162
409.79        16.58549
410.24        16.60438
410.68        16.64459
411.13        16.70122
411.58        16.77492
412.03        16.82742
412.47        16.79684
412.92        16.67183
413.37        16.47911
413.81        16.28639
414.26        16.20688
414.71        16.25002
415.15        16.39318
415.60        16.55957
416.05        16.62607
416.49        16.55716
416.94        16.39829
417.39        16.21624
417.83        16.10734
418.28        16.09493
418.73        16.13981
419.17         16.2167
419.62        16.27522
420.07        16.29779
420.51         16.3022
420.96        16.28255
421.41         16.2148
421.85        16.09744
422.30        15.94606
422.74        15.80022
423.19         15.7672
423.64        15.84592
424.08        15.99144
424.53        16.13189
424.98        16.20731
425.42        16.19898
425.87        16.07266
426.31        15.90393
426.76        15.90977
427.21        16.06833
427.65        16.12458
428.10        16.07242
428.54        16.06842
428.99        16.11663
429.44        16.21395
429.88        16.28208
430.33        16.10676
430.77        15.77267
431.22        15.63025
431.66        15.71133
432.11        15.87232
432.56         16.0477
433.00         16.2252
433.45         16.2502
433.89         16.1049
434.34        15.34836
434.78          15.316
435.23        15.86412
435.67        16.04157
436.12        15.84284
436.57        15.80322
437.01        15.94007
437.46        15.98749
437.90        15.93628
438.35        15.86546
438.79        15.79203
439.24        15.72937
439.68        15.69436
440.13        15.72116
440.57        15.77441
441.02        15.77754
441.46        15.71657
441.91        15.61146
442.35        15.49335
442.80        15.51526
443.24        15.63376
443.69          15.657
444.13        15.58114
444.58        15.56496
445.02        15.60845
445.47        15.61501
445.91         15.5883
446.36        15.59218
446.80        15.62428
447.24        15.66805
447.69        15.70933
448.13        15.72561
448.58        15.71401
449.02        15.68105
449.47        15.64112
449.91        15.60582
450.36        15.58421
450.80        15.56908
451.25        15.56077
451.69        15.55288
452.13        15.54423
452.58        15.53766
453.02         15.5295
453.47        15.52069
453.91        15.51104
454.36        15.50076
454.80        15.48589
455.24        15.48396
455.69        15.50342
456.13        15.48441
456.58        15.43423
457.02        15.54654
457.46        15.56944
457.91        15.55214
458.35        15.43986
458.79         15.4224
459.24        15.48345
459.68        15.44083
460.13        15.32978
460.57        15.28137
461.01        15.31213
461.46        15.34966
461.90        15.37662
462.34         15.3841
462.79        15.36237
463.23        15.31432
463.68        15.26666
464.12        15.24931
464.56        15.26639
465.01        15.34907
465.45        15.44211
465.89        15.42101
466.34        15.32299
466.78        15.31465
467.22        15.40319
467.67          15.459
468.11        15.46718
468.55        15.43966
468.99        15.39564
469.44        15.38595
469.88        15.41856
470.32        15.45388
470.77        15.48265
471.21        15.51458
471.65        15.54339
472.10        15.56523
472.54        15.57819
472.98        15.58855
473.42        15.59746
473.87        15.60919
474.31         15.6103
474.75        15.59583
475.20        15.57245
475.64        15.53518
476.08        15.49636
476.52        15.49638
476.97        15.54251
477.41         15.5814
477.85        15.58094
478.29        15.78694
478.74        15.66711
479.18        15.76466
479.62         15.9011
480.06        15.96374
480.50        15.94207
480.95        15.91224
481.39        15.89605
481.83        15.90649
482.27         15.9606
482.72        16.06998
483.16        16.20476
483.60         16.3176
484.04        16.39202
484.48        16.40654
484.93         16.4549
485.37         16.6468
485.81         16.9038
486.25        17.27973
486.69        17.02024
487.14         16.8654
487.58        17.16701
488.02        16.97088
488.46        17.29026
488.90        17.07199
489.34        16.85887
489.79        16.82974
490.23         17.0566
490.67        17.43073
491.11        17.80368
491.55        17.79248
491.99        17.48568
492.43        17.47143
492.88        17.78581
493.32        18.06719
493.76        18.24253
494.20        18.38503
494.64        18.48203
495.08        18.51759
495.52        18.52234
495.96        18.56101
496.41        18.65013
496.85        18.74099
497.29        18.84283
497.73        19.03481
498.17        19.27623
498.61        19.42926
499.05        19.47601
499.49        19.46194
499.93        19.43355
500.37        19.49126
500.82        19.62665
501.26        19.71124
501.70        19.73955
502.14        19.80867
502.58        19.91793
503.02        20.01098
503.46        20.08389
503.90         20.1543
504.34        20.22371
504.78        20.29366
505.22        20.36489
505.66        20.42723
506.10        20.47193
506.54        20.53424
506.98        20.62336
507.42        20.65119
507.86        20.58995
508.30        20.84288
508.74        20.68239
509.18        20.70156
509.62         20.7053
510.06        20.74902
510.50        20.83351
510.94        20.95219
511.38        21.08384
511.82        21.17083
512.26         21.2023
512.70        21.19806
513.14        21.17446
513.58        21.15945
514.02         21.1625
514.46        21.16858
514.90        21.19042
515.34        21.24865
515.78        21.34105
516.22        21.46614
516.66        21.57427
517.10        21.58525
517.54        21.48964
517.98        21.31263
518.42        21.13262
518.86         21.0754
519.30        21.16705
519.74        21.36868
520.18        21.59892
520.62        21.72334
521.06        21.70482
521.50        21.58319
521.93        21.42049
522.37        21.31913
522.81        21.30477
523.25        21.34294
523.69         21.3932
524.13        21.39329
524.57        21.32999
525.01        21.23453
525.45        21.13341
525.89        21.06406
526.32        21.03739
526.76        21.03766
527.20        21.06274
527.64        21.11363
528.08        21.18146
528.52        21.26362
528.96        21.32838
529.40        21.32565
529.83        21.24495
530.27        21.10586
530.71        20.94877
531.15        20.84064
531.59         20.7983
532.03        20.80651
532.46        20.83296
532.90        20.82401
533.34        20.77005
533.78        20.69519
534.22        20.62642
534.66        20.60121
535.09        20.62273
535.53        20.67422
535.97        20.74105
536.41        20.78683
536.85        20.79807
537.28        20.84021
537.72        20.89503
538.16        20.80124
538.60        20.62746
539.04        20.66759
539.47        20.88659
539.91        20.99142
540.35        20.96635
540.79        20.98419
541.22        21.05161
541.66        21.11421
542.10        21.17465
542.54        21.21742
542.97        21.25056
543.41        21.37129
543.85        21.54414
544.29        21.60516
544.72         21.5717
545.16        21.62311
545.60        21.76414
546.04        21.90391
546.47        22.02583
546.91        22.14292
547.35        22.24998
547.79        22.35457
548.22        22.46719
548.66        22.60132
549.10        22.76708
549.53        23.01101
549.97         23.2971
550.41        23.51415
550.84        23.63902
551.28        23.72471
551.72        23.78705
552.15        23.83434
552.59         23.8913
553.03        23.94739
553.46        24.00759
553.90        24.11165
554.34        24.24993
554.77        24.39026
555.21        24.52897
555.65        24.67806
556.08        24.82733
556.52        24.96636
556.96        25.08191
557.39        25.17896
557.83        25.26501
558.27         25.3029
558.70        25.31479
559.14        25.39755
559.57        25.53007
560.01        25.60392
560.45        25.61432
560.88        25.64469
561.32        25.71098
561.75        25.74693
562.19        25.78656
562.63         25.8581
563.06        25.95581
563.50        26.14776
563.93        26.37189
564.37        26.36211
564.80        26.18366
565.24        26.26535
565.68        26.56414
566.11        26.70272
566.55        26.67746
566.98        26.68335
567.42        26.74355
567.85         26.8841
568.29        26.92402
568.72        27.03087
569.16        27.19196
569.60        27.36404
570.03        27.40204
570.47        27.79334
570.90        28.06378
571.34        27.86379
571.77        28.51134
572.21         28.2668
572.64        28.37287
573.08         28.3454
573.51        28.91586
573.95           28.91
574.38        28.58369
574.82        28.57543
575.25        29.07243
575.69        29.21302
576.12        29.11337
576.56        29.08831
576.99        29.12073
577.42         29.6159
577.86        29.49204
578.29        29.31558
578.73        29.23336
579.16        29.18988
579.60        29.19872
580.03        29.22244
580.47         29.2741
580.90        28.93298
581.33        28.66142
581.77        29.10999
582.20        29.19339
582.64        28.64894
583.07        28.85123
583.51         28.5754
583.94         28.4226
584.37        28.21335
584.81        28.05475
585.24        27.94137
585.68        28.33422
586.11        27.92385
586.54        27.94397
586.98        27.75443
587.41        27.66288
587.85        27.91484
588.28        27.68606
588.71        27.60318
589.15        27.54575
589.58        27.50649
590.01          27.443
590.45        27.34733
590.88        27.26512
591.31         27.3842
591.75         27.6415
592.18        27.69007
592.61        27.58726
593.05        27.45807
593.48        28.31805
593.91        27.96808
594.35         28.0748
594.78        27.95414
595.21        28.04267
595.65        28.03929
596.08        27.93256
596.51        28.39611
596.94        28.45968
597.38        28.69625
597.81        28.80242
598.24        28.95451
598.68        29.15105
599.11         29.0932
599.54        29.86702
599.97        29.60254
600.41        30.37263
600.84         30.6124
601.27        30.84445
601.70        31.02465
602.14        31.20544
602.57        31.57953
603.00        32.08638
603.43        32.45709
603.87        32.67743
604.30        32.94406
604.73        33.30922
605.16        33.55556
605.60        33.71154
606.03         34.0688
606.46        34.61163
606.89         34.6534
607.32         35.2168
607.76        35.41385
608.19        35.76183
608.62        36.03443
609.05        36.33086
609.48        36.67463
609.92        37.06887
610.35        37.46403
610.78        37.92514
611.21        38.33695
611.64        38.57761
612.07        38.78674
612.50         38.9535
612.94        39.11301
613.37        39.30682
613.80        39.53822
614.23         39.7637
614.66        40.03021
615.09        40.32313
615.52        40.56252
615.96        40.72674
616.39        41.14026
616.82         41.2346
617.25         41.4759
617.68        41.83228
618.11        41.82995
618.54        41.63554
618.97        41.75892
619.40        42.22409
619.84        42.62397
620.27        42.88646
620.70        43.18839
621.13        43.47415
621.56        43.37167
621.99        42.99138
622.42        43.05221
622.85        43.54251
623.28        43.48006
623.71        43.36077
624.14         43.5202
624.57        43.20624
625.00        43.29319
625.43         43.3521
625.86        43.46387
626.29        43.53676
626.72         43.5806
627.15        43.55357
627.58        43.49382
628.01        43.38095
628.44        43.13751
628.87        42.80444
629.30        42.52509
629.73        42.31933
630.16        42.12502
630.59        41.92607
631.02        41.70603
631.45         41.4678
631.88         41.2555
632.31        41.06277
632.74         40.8399
633.17        40.57457
633.60        40.27795
634.03         39.9497
634.46        39.58801
634.89        39.19781
635.32        38.78818
635.75        38.36706
636.18        37.93911
636.61        37.51933
637.04        37.12986
637.47        36.77806
637.89        36.45286
638.32        36.12913
638.75        35.82355
639.18        35.54216
639.61        35.14592
640.04        34.90747
640.47        34.62413
640.90        34.37867
641.33        34.16034
641.76        33.98233
642.18        33.86745
642.61        33.80318
643.04        33.78797
643.47        33.79528
643.90        33.78138
644.33        33.73466
644.76        33.67229
645.18         33.6235
645.61        33.59312
646.04         33.5896
646.47        33.68525
646.90         33.9009
647.33        33.86836
647.75        34.22409
648.18        34.42784
648.61         34.6673
649.04        34.96465
649.47        35.30136
649.89        35.57698
650.32        35.77452
650.75        36.02364
651.18        36.33462
651.61         36.5706
652.03        36.75937
652.46        37.19154
652.89        37.79171
653.32        38.04536
653.74        38.05424
654.17        38.57211
654.60        38.36569
655.03        39.55511
655.46        39.33171
655.88        39.63383
656.31        41.86337
656.74        45.04424
657.16        42.99445
657.59        40.84404
658.02        41.89431
658.45        42.57457
658.87        43.03503
659.30        42.96216
659.73        42.79865
660.15         43.2673
660.58        43.32184
661.01         43.6167
661.44         43.7802
661.86        43.83404
662.29        43.84438
662.72        44.19934
663.14        44.83273
663.57        45.00912
664.00        44.80272
664.42         44.9763
664.85        45.52454
665.27        45.83518
665.70        45.89388
666.13        46.08463
666.55         46.4143
666.98        46.68793
667.41        46.89228
667.83        47.06768
668.26        47.20869
668.69        47.33269
669.11        47.43157
669.54        47.47458
669.96        47.46851
670.39        47.45737
670.82        47.53032
671.24        47.71322
671.67        48.04638
672.09        48.72439
672.52        49.57161
672.94        49.78532
673.37        49.88092
673.80        49.57232
674.22        49.23548
674.65         49.1365
675.07        49.36801
675.50        49.82827
675.92        50.37328
676.35        50.74256
676.77         50.8689
677.20        50.83661
677.62        50.74218
678.05        50.73868
678.47        50.86952
678.90        51.08055
679.32        51.32331
679.75        51.57198
680.17        51.80892
680.60        51.98269
681.02        52.08335
681.45        52.40467
681.87        52.39612
682.30        52.53172
682.72         52.6556
683.15        52.67301
683.57         52.6159
684.00         52.8421
684.42        52.98093
684.85        53.12937
685.27        53.17575
685.70        53.15094
686.12         53.0839
686.54        53.23773
686.97          53.564
687.39        53.47004
687.82        53.41396
688.24        53.35391
688.66        53.44357
689.09        53.46762
689.51        53.46388
689.94         53.6291
690.36        53.98492
690.78        54.36573
691.21        54.63255
691.63        55.30778
692.06        54.98158
692.48        55.26431
692.90        55.68309
693.33        55.87357
693.75        55.82207
694.17        55.66885
694.60        55.53193
695.02        55.89415
695.44         55.9856
695.87        56.60367
696.29        57.29219
696.71        57.27501
697.14        56.65347
697.56        56.37233
697.98        56.54276
698.41        56.62799
698.83          56.639
699.25        56.97104
699.68        57.49123
700.10        57.82484
700.52        57.88346
700.94        57.78298
701.37        57.62777
701.79        57.60894
702.21        57.76588
702.64        58.03044
703.06        58.31953
703.48        58.51554
703.90        58.59219
704.33        58.59843
704.75        58.59153
705.17        58.64502
705.59        58.78125
706.01        58.96421
706.44        59.18233
706.86        59.42408
707.28        59.65079
707.70        59.92651
708.12          60.207
708.55          60.257
708.97        60.13102
709.39        60.21807
709.81        60.50677
710.23        60.55543
710.66        60.53859
711.08        60.52205
711.50        60.58921
711.92        60.70048
712.34        60.86509
712.76        61.08921
713.19        61.31569
713.61        61.50507
714.03        61.61083
714.45        61.63832
714.87        61.62803
715.29        61.64805
715.71        61.71312
716.13        61.80816
716.56        61.87329
716.98        61.87196
717.40        61.77936
717.82        61.63165
718.24        61.50213
718.66        61.50446
719.08        61.65952
719.50        61.91896
719.92        62.22804
720.34        62.49712
720.76        62.69748
721.19        62.85202
721.61        62.95796
722.03         63.0041
722.45        63.01763
722.87        62.88012
723.29        62.68502
723.71        62.90066
724.13        63.53036
724.55        63.50407
724.97        63.90062
725.39        63.94335
725.81        63.95999
726.23        63.77984
726.65        63.52684
727.07        63.46642
727.49        63.63649
727.91        63.97067
728.33        64.37599
728.75        64.69149
729.17         64.8608
729.59        64.93358
730.01        64.95994
730.43        65.01814
730.85        65.13192
731.27        65.26462
731.69        65.39654
732.10        65.51032
732.52        65.59548
732.94        65.66863
733.36        65.72201
733.78        65.73677
734.20        65.73272
734.62        65.70689
735.04        65.67531
735.46         65.7523
735.88        65.95043
736.30        65.86708
736.72        66.17051
737.13        66.29933
737.55        66.37293
737.97        66.66989
738.39        67.06228
738.81        66.65215
739.23        65.72729
739.65        65.94165
740.06        67.07488
740.48        67.45199
740.90        66.97926
741.32        66.60273
741.74        66.49432
742.16        66.46085
742.57        66.55353
742.99        66.89066
743.41        67.36283
743.83        67.54574
744.25        67.49191
744.67        67.75716
745.08        68.29761
745.50        68.51592
745.92        68.39182
746.34        68.24603
746.75        68.12926
747.17        67.99107
747.59        67.85459
748.01        67.76304
748.42        67.73068
748.84        67.70812
749.26        67.69624
749.68        67.84698
750.09        68.11877
750.51        68.15075
750.93          68.053
751.35         68.4757
751.76        69.28189
752.18        69.58805
752.60        69.32965
753.01        68.95959
753.43         68.6581
753.85        68.55511
754.27        68.70709
754.68        69.06355
755.10         69.4663
755.52         69.7464
755.93         69.8642
756.35        69.90453
756.77        69.81963
757.18        69.80665
757.60        69.99341
758.02        69.62395
758.43        68.81505
758.85        70.30393
759.26        71.73592
759.68         71.3448
760.10        70.43337
760.51         70.2917
760.93        70.48387
761.34        70.34066
761.76        70.83698
762.18        70.01853
762.59        68.71962
763.01        68.97482
763.42        70.64138
763.84        71.24464
764.26        70.63642
764.67        69.97878
765.09         69.6454
765.50        70.07909
765.92        71.04655
766.33        71.11055
766.75        70.30161
767.16        70.16704
767.58        70.78657
768.00        71.37964
768.41        71.80216
768.83        72.12165
769.24        72.21074
769.66        71.89558
770.07        71.29425
770.49        70.70921
770.90        70.29369
771.32        70.32629
771.73         70.7555
772.15        71.11292
772.56        71.37139
772.97         71.7505
773.39        72.17474
773.80        72.56525
774.22        72.79296
774.63        72.69218
775.05        72.33072
775.46        72.11179
775.88        72.08468
776.29        72.09876
776.70        72.11672
777.12        72.15456
777.53        72.20742
777.95         72.2432
778.36        72.29328
778.77        72.33169
779.19        72.37011
779.60        72.52884
780.02        72.71628
780.43        72.66344
780.84        72.52323
781.26        72.46193
781.67        72.58146
782.09        73.41472
782.50        74.73528
782.91        74.17323
783.33        74.12051
783.74        73.79844
784.15        73.92851
784.57        73.85117
784.98        73.60883
785.39        73.32964
785.81        73.12595
786.22        73.47359
786.63        74.15498
787.04        74.28659
787.46        73.85786
787.87        73.43489
788.28        73.23943
788.70         73.2156
789.11        73.38363
789.52        73.98851
789.93        74.76976
790.35        74.83192
790.76        74.28024
791.17        74.13712
791.58        74.48133
792.00        74.59918
792.41        74.51839
792.82         74.7636
793.23         75.2638
793.65        75.41618
794.06        75.29091
794.47        75.48272
794.88        75.85329
795.29        75.83323
795.71        75.37367
796.12        74.79993
796.53        74.30526
796.94        74.12373
797.35        74.34965
797.76        74.94113
798.18        75.63703
798.59        76.04259
799.00        76.01231
799.41        75.65828
799.82        75.19002
800.23        74.94981
800.64        75.02959
801.06        75.28973
801.47         75.6487
801.88        75.83924
802.29        75.77768
802.70        75.54607
803.11        75.26343
803.52        75.10694
803.93        75.13348
804.34        75.29228
804.75        75.48918
805.17        75.58161
805.58        75.55956
805.99        75.40182
806.40        75.22126
806.81        75.30421
807.22        75.61949
807.63        75.86777
808.04        75.98339
808.45        76.04616
808.86        76.02668
809.27        75.83974
809.68        75.57539
810.09        75.45619
810.50        75.53103
810.91        75.72927
811.32        75.98423
811.73        76.17875
812.14        76.26982
812.55        76.31868
812.96        76.32869
813.37        76.25635
813.78        76.14254
814.19        76.08792
814.60        76.11834
815.01        76.19209
815.42        76.31505
815.83        76.53276
816.24        76.80988
816.65        77.03437
817.05        77.16569
817.46        77.18577
817.87        77.14771
818.28         77.0844
818.69         77.0188
819.10        76.94559
819.51        76.87222
819.92        76.84607
820.33        76.87355
820.74        76.85172
821.14        76.79897
821.55        76.94398
821.96         77.1908
822.37        77.13741
822.78        76.76844
823.19        76.46152
823.60         76.2702
824.00        75.97878
824.41        75.70046
824.82        75.83596
825.23        76.42512
825.64        77.33931
826.04        78.36646
826.45        79.02943
826.86        79.21887
827.27        79.05474
827.68        78.66476
828.08        78.30343
828.49        78.03069
828.90        77.79581
829.31        77.66115
829.72        77.72731
830.12        78.02565
830.53        78.49305
830.94        78.96845
831.35        79.09506
831.75        78.80141
832.16        78.12318
832.57        77.32813
832.97        76.82491
833.38        76.72792
833.79        76.93048
834.20        77.24165
834.60        77.34675
835.01        77.19234
835.42        76.89049
835.82        76.61388
836.23        76.58321
836.64        76.87646
837.04        77.42892
837.45         78.0582
837.86        78.59562
838.26        78.96535
838.67        79.15657
839.08         79.2026
839.48        79.13866
839.89        78.98712
840.29        78.71083
840.70        78.37823
841.11        78.02805
841.51        77.71166
841.92        77.46754
842.33         77.2737
842.73        77.08585
843.14        76.86446
843.54        76.63389
843.95        76.57008
844.35        76.99603
844.76        77.88567
845.17         79.1433
845.57        80.39211
845.98        80.82196
846.38        80.30924
846.79        79.11445
847.19        77.69703
847.60        76.79888
848.00        76.60944
848.41        76.88241
848.81        77.50681
849.22        78.17428
849.62        78.78801
850.03        79.36941
850.43        79.79449
850.84        79.70604
851.24        79.11423
851.65        78.07635
852.05        76.91837
852.46        76.19567
852.86        76.03769
853.27        76.33456
853.67        76.83611
854.07         77.3975
854.48         77.8861
854.88        78.42747
855.29        78.81937
855.69        78.93849
856.10        78.63121
856.50        78.00031
856.90        77.24077
857.31        76.69827
857.71        76.49835
858.12        76.52782
858.52        76.74829
858.92        76.86018
859.33        76.76231
859.73        76.58109
860.13        76.40017
860.54        76.37775
860.94        76.57487
861.34         76.8908
861.75        77.17107
862.15        77.27788
862.55        77.12454
862.96        76.79276
863.36        76.37025
863.76        76.00384
864.17        75.75074
864.57        75.60863
864.97        75.56329
865.38        75.57222
865.78        75.65279
866.18        75.77893
866.58        75.96193
866.99        76.21133
867.39        76.52164
867.79        76.83844
868.19        77.04745
868.60         76.9622
869.00        76.58156
869.40        75.99618
869.80        75.36586
870.21        74.98269
870.61        74.96754
871.01        75.18936
871.41        75.58792
871.81        76.06836
872.22        76.55219
872.62        77.13696
873.02        77.67309
873.42        77.87271
873.82        77.68438
874.22        77.18315
874.63        76.69968
875.03        76.70913
875.43        77.29395
875.83        78.26609
876.23        79.31556
876.63        79.89348
877.03        79.85304
877.44        79.44106
877.84        78.74912
878.24        77.95701
878.64        77.19229
879.04        76.36343
879.44         75.7907
879.84        75.94842
880.24        76.84144
880.64        78.36999
881.04        79.85484
881.44        80.06029
881.84        78.75141
882.24        76.39505
882.65        73.96045
883.05        72.72523
883.45        73.00707
883.85         74.4283
884.25        76.39315
884.65        77.79298
885.05        78.20667
885.45        77.94044
885.85        77.37199
886.25        77.07993
886.65        77.22359
887.05        77.57358
887.45        77.89989
887.85        77.87762
888.25        77.43335
888.65        76.74228
889.04        76.02019
889.44        75.59236
889.84        75.53304
890.24        75.76847
890.64        76.15467
891.04        76.45798
891.44        76.60548
891.84        76.65191
892.24         76.7392
892.64        77.08499
893.04        77.73149
893.44           78.61
893.83        79.51983
894.23         80.0426
894.63        80.09737
895.03        79.73626
895.43        79.26505
895.83        79.17609
896.23        79.56185
896.63         80.2989
897.02        80.94179
897.42        80.76937
897.82         79.6967
898.22        78.01848
898.62        76.35335
899.01        75.54835
899.41        75.78642
899.81        76.83067
900.21        78.17645
900.61         78.8623
901.00        78.56903
901.40        77.65819
901.80        76.66451
902.20        76.33434
902.59        76.85259
902.99        77.95065
903.39        79.25421
903.79         79.9601
904.18        79.79478
904.58        79.07619
904.98        78.28405
905.38        78.07289
905.77        78.55276
906.17        79.49635
906.57        80.59356
906.96        81.38377
907.36        81.64086
907.76        81.53033
908.15        81.17215
908.55        80.68032
908.95        80.18018
909.34         79.6276
909.74        79.10311
910.14        78.68243
910.53        78.39256
910.93         78.2832
911.33        78.32459
911.72        78.45683
912.12        78.63896
912.52        78.83926
912.91        79.09473
913.31        79.44462
913.70        79.90209
914.10        80.39688
914.49        80.78561
914.89        80.74889
915.29         80.2756
915.68        79.47722
916.08         78.6737
916.47        78.31247
916.87        78.51751
917.26        79.08454
917.66        79.80202
918.05        80.32703
918.45        80.52065
918.84        80.54962
919.24        80.32433
919.64        79.86521
920.03        79.24202
920.42        78.43377
920.82        77.74825
921.21        77.47256
921.61        77.65615
922.00        78.30033
922.40        79.05606
922.79        79.41359
923.19        79.18563
923.58        78.52473
923.98        77.88231
924.37        77.89438
924.77        78.68819
925.16        80.10493
925.55         81.6396
925.95        82.36221
926.34        82.04991
926.74        80.95261
927.13        79.63366
927.52        78.94478
927.92        79.09091
928.31        79.81504
928.70        80.70602
929.10        81.06454
929.49        80.73492
929.89        79.97318
930.28        79.15663
930.67         78.8308
931.07        79.12351
931.46        79.83081
931.85        80.73598
932.24        81.52844
932.64        82.04733
933.03        82.47712
933.42        82.71013
933.82        82.60865
934.21         82.2298
934.60        81.56713
934.99        80.95462
935.39        80.89043
935.78        81.43489
936.17        82.43051
936.56        83.46521
936.96         83.8259
937.35        83.37938
937.74        82.34589
938.13        81.01466
938.53        79.85011
938.92        79.03605
939.31        78.52647
939.70        78.37216
940.09        78.66035
940.49        79.28329
940.88        80.17912
941.27        81.22035
941.66        82.16605
942.05        82.84988
942.44        83.33983
942.84         83.2411
943.23        81.96909
943.62        79.67876
944.01        76.78116
944.40        74.28903
944.79        73.47767
945.18        74.49324
945.57        77.01643
945.97        80.17152
946.36        82.41764
946.75        82.93398
947.14        82.14845
947.53        80.75298
947.92        79.92592
948.31        80.02099
948.70        80.58213
949.09         81.4066
949.48        82.19604
949.87        82.77779
950.26        83.35515
950.65        83.67502
951.04        83.26051
951.43        82.12272
951.82        80.42036
952.21        78.76056
952.60        78.09071
952.99        78.57901
953.38        79.94106
953.77        81.58785
954.16        82.48007
954.55         82.2795
954.94        81.26891
955.33        79.86028
955.72        78.74248
956.11         78.1674
956.50        77.96657
956.89        77.96275
957.28        77.86773
957.66        77.62587
958.05        77.36823
958.44        77.29623
958.83        77.68492
959.22        78.55141
959.61         79.7067
960.00        80.88683
960.39        81.66109
960.78        81.86761
961.16        81.64405
961.55        81.03973
961.94         80.1408
962.33        79.06744
962.72         77.8252
963.11        76.75584
963.49        76.42748
963.88         76.8956
964.27        78.05812
964.66        79.43131
965.04        80.19018
965.43        80.04425
965.82        79.22978
966.21        78.18819
966.60        77.68208
966.98        77.94162
967.37        78.70397
967.76        79.62135
968.15        80.11366
968.53        80.02731
968.92        79.49693
969.31        78.83083
969.69        78.51177
970.08        78.63425
970.47        79.05249
970.86        79.49364
971.24        79.52969
971.63        79.07533
972.02        78.37267
972.40        77.70553
972.79         77.4743
973.17        77.88423
973.56        78.67962
973.95        79.85302
974.33        81.45798
974.72        83.31835
975.11        85.42538
975.49        87.41094
975.88        88.30827
976.26        87.84909
976.65        86.25533
977.04         84.0102
977.42        81.73773
977.81        79.75793
978.19        77.97165
978.58         76.5897
978.96        75.71391
979.35        75.35355
979.74        75.40825
980.12        75.82081
980.51        76.31418
980.89        76.85596
981.28        77.51862
981.66        78.01492
982.05         77.8048
982.43        76.87952
982.82        75.30285
983.20         74.0145
983.59        74.47973
983.97        77.04861
984.35        81.44057
984.74        86.09486
985.12        88.25581
985.51        86.90915
985.89        83.03896
986.28        78.64296
986.66        76.18912
987.04        76.31709
987.43        78.18817
987.81         80.9294
988.20        82.62386
988.58        82.63789
988.96         81.6666
989.35        80.06258
989.73        78.46163
990.12        77.14143
990.50        75.77174
990.88        74.83434
991.27         75.1059
991.65        76.69287
992.03        79.67184
992.42        82.81635
992.80        83.87084
993.18        81.95477
993.56        78.01846
993.95        74.19892
994.33        72.70409
994.71         74.0117
995.10        77.40897
995.48        81.88346
995.86        84.50627
996.24        84.01251
996.63        81.45185
997.01        78.19951
997.39        76.07693
997.77        75.55804
998.15        75.98176
998.54        77.09411
998.92        78.55304
999.30        80.06939
999.68        81.89389
1000.06         83.4636
1000.45        83.65182
1000.83        82.45525
1001.21        80.10711
1001.59        77.65501
1001.97        76.59914
1002.35        77.19666
1002.73        79.05493
1003.12        81.48044
1003.50        83.24902
1003.88        83.81267
1004.26        83.60793
1004.64        82.95691
1005.02        82.41226
1005.40        82.13605
1005.78        81.72403
1006.16        81.39902
1006.54        81.58692
1006.92         82.3082
1007.30        83.67033
1007.69        84.58422
1008.07        83.17145
1008.45         79.3881
1008.83        74.30081
1009.21        69.91682
1009.59         68.3113
1009.97         69.6209
1010.35        73.48414
1010.73        78.54845
1011.11        81.42558
1011.49        80.56776
1011.86        76.62109
1012.24        72.14672
1012.62        71.14651
1013.00        74.82092
1013.38        82.68331
1013.76        92.27697
1014.14        96.65366
1014.52         93.4689
1014.90        86.29993
1015.28         79.3194
1015.66        76.13377
1016.04        76.95796
1016.41        80.85587
1016.79        86.87968
1017.17        93.01544
1017.55        97.28789
1017.93        100.0877
1018.31        100.0978
1018.69        95.82163
1019.06        88.37705
1019.44        79.91314
1019.82        72.92525
1020.20        69.22756
1020.58        68.46455
1020.95        70.21758
1021.33        73.57837
1021.71        76.18717
1022.09        76.78029
1022.46        75.51315
1022.84        74.26085
1023.22        75.59284
1023.60        80.32668
1023.97        88.94833
1024.35        98.49361
1024.73        99.74348
