SpectraSmart Spectrum 2.9.0.0
--------- Device Information -----------
Spectrum Name :  反射率_0
Saving Time :  2024/05/03 20:54:57
Spectro-Module Model Name : SE2030-DUVN
Spectro-Module Serial Number : OS361AC55029948
Wavelength Start : 200
Wavelength End : 1025
Wavelength Unit : Wavelength(nm)
Spectrum Unit : Reflectance(%)
-----------Spectrum Setting ------------
Integration Time : 20ms
Average : 10
Boxcar : 0
Background removal :  enabled
linearity correction :  enabled
SC :  disabled
Intensity correction :  disabled
DWT denoise :  enabled
savitzky-golay :  disabled
FFT :  disabled
Running average :  disabled
Kalman :  disabled
High pass :  disabled
---------------BEGIN--------------------
Wavelength(nm)             Reflectance(%)
200.29               0
200.75        112.9345
201.21         238.808
201.67       -7721.201
202.13       -252.8213
202.58       -120.9206
203.04       -64.13237
203.50       -31.52883
203.96       -16.01748
204.42       -14.12531
204.88       -39.46457
205.34        1109.401
205.80        129.4722
206.26        149.3549
206.72        31828.38
207.18       -98.90868
207.64       -65.38803
208.10        -80.3212
208.55       -162.4396
209.01       -953.7635
209.47       -1126.034
209.93       -118.8153
210.39         -25.929
210.85        -1.84888
211.31        7.089931
211.77        11.61792
212.23        15.10465
212.69        15.37766
213.14        -3.36519
213.60       -21.92403
214.06       -24.15939
214.52       -24.74773
214.98       -29.42438
215.44       -42.83637
215.90       -94.36677
216.36        585.4592
216.81         90.5504
217.27        56.48773
217.73        36.31551
218.19       -25.45451
218.65       -1812.463
219.11       -123.2913
219.57       -7.009328
220.02        16.86753
220.48        19.75589
220.94        37.68919
221.40        32.70692
221.86        32.72958
222.32        33.57962
222.77        35.10539
223.23         38.2443
223.69        42.41424
224.15        42.26682
224.61        36.23218
225.06        29.17871
225.52        25.06651
225.98        24.88021
226.44        28.03114
226.90        34.36953
227.36        43.12591
227.81        49.55146
228.27        50.28572
228.73        47.55944
229.19        43.73689
229.65        40.78119
230.10        38.88243
230.56        37.63382
231.02         37.0827
231.48        37.53143
231.93        38.74987
232.39        40.64053
232.85        42.59438
233.31        43.74166
233.77        43.95676
234.22        43.45434
234.68         42.8234
235.14        43.07268
235.60        44.49588
236.05         46.9216
236.51        49.59531
236.97        51.06345
237.43        50.75903
237.88        49.28464
238.34        47.56922
238.80        46.56821
239.26        46.51297
239.71        49.34467
240.17        52.30734
240.63        56.09005
241.08        56.66279
241.54        53.16924
242.00         49.2956
242.46        49.27645
242.91        54.34755
243.37        65.61327
243.83         85.0071
244.28        101.5418
244.74        92.32373
245.20        61.51096
245.66        28.31416
246.11        6.129316
246.57       -5.469461
247.03       -10.32481
247.48       -10.98248
247.94       -10.57241
248.40       -9.608675
248.85       -7.704185
249.31       -3.944132
249.77        1.506983
250.22        7.029218
250.68        11.28075
251.14        14.81157
251.59        19.31666
252.05        26.09424
252.51        36.47995
252.96        50.72946
253.42        62.56779
253.88        64.76765
254.33        59.44839
254.79        52.33332
255.25        47.63643
255.70        45.67271
256.16        45.40157
256.62        46.33829
257.07        48.44317
257.53         51.5434
257.99        54.86513
258.44         57.5117
258.90        58.89766
259.35        58.69938
259.81        57.94358
260.27        56.65395
260.72        54.89886
261.18        53.25947
261.63        51.57284
262.09        50.38057
262.55        49.88869
263.00        49.90903
263.46        50.32452
263.91        50.70225
264.37         50.7133
264.83        50.23653
265.28        49.41549
265.74         48.4659
266.19        47.41605
266.65        46.42421
267.11        45.39934
267.56         44.4179
268.02        43.68739
268.47        43.16738
268.93        42.84053
269.38         42.5337
269.84        41.95199
270.30        41.08181
270.75         40.0299
271.21        39.05837
271.66        38.44423
272.12        38.22128
272.57        38.21145
273.03        38.23718
273.48        38.03889
273.94        37.56789
274.39        36.95713
274.85        36.22202
275.31        35.28059
275.76        34.18631
276.22        33.03274
276.67        32.10009
277.13          31.887
277.58        32.33246
278.04        33.29403
278.49        34.23137
278.95        34.33517
279.40        33.44731
279.86        31.98601
280.31        30.44192
280.77        29.56613
281.22        29.37506
281.68        29.64227
282.13        30.01958
282.59        30.07432
283.04        29.68007
283.50        29.04134
283.95         28.3119
284.41        27.73542
284.86        27.35805
285.32        27.11966
285.77        26.94115
286.22        26.77971
286.68         26.6247
287.13        26.47522
287.59        26.36524
288.04        26.27666
288.50        26.22466
288.95        26.17431
289.41        26.11942
289.86        26.00986
290.32        25.86737
290.77          25.696
291.22        25.54739
291.68        25.48141
292.13        25.50406
292.59        25.62659
293.04        25.82026
293.50        26.05489
293.95         26.3065
294.40          26.577
294.86        26.90299
295.31        27.33683
295.77        27.88158
296.22        28.50461
296.68        29.11768
297.13         29.5758
297.58         29.8388
298.04        29.97489
298.49        30.05215
298.95        30.21546
299.40        30.48791
299.85        30.83154
300.31        31.25609
300.76        31.74398
301.21         32.2819
301.67        32.87624
302.12        33.42231
302.58        33.77931
303.03        33.91366
303.48        33.87778
303.94        33.83118
304.39        33.95775
304.84        34.30919
305.30        34.81655
305.75        35.33447
306.20        35.66674
306.66        35.78115
307.11        35.73254
307.57         35.6271
308.02        35.55287
308.47        35.56121
308.93        35.61357
309.38        35.68691
309.83        35.79267
310.29        35.91464
310.74        36.03976
311.19        36.11773
311.65        36.05944
312.10        35.84581
312.55        35.51461
313.00        35.12811
313.46        34.78667
313.91        34.51538
314.36        34.30991
314.82        34.16726
315.27        34.06485
315.72         33.9977
316.18        33.96775
316.63         33.9694
317.08        33.99698
317.53        34.03704
317.99        34.07139
318.44        34.07588
318.89        34.00191
319.35        33.84213
319.80        33.61649
320.25        33.36084
320.70        33.13655
321.16        32.95806
321.61        32.81834
322.06        32.70286
322.51        32.58822
322.97         32.4607
323.42        32.33338
323.87        32.19618
324.32        32.03612
324.78        31.84739
325.23        31.64137
325.68        31.42174
326.13        31.20354
326.59        30.98503
327.04        30.78351
327.49        30.60152
327.94        30.45346
328.39        30.33885
328.85        30.24361
329.30        30.16382
329.75        30.05796
330.20        29.91644
330.66        29.74132
331.11        29.55627
331.56        29.36335
332.01        29.17193
332.46        28.98045
332.92        28.80022
333.37        28.68765
333.82        28.63669
334.27        28.63459
334.72        28.64841
335.17        28.61931
335.63        28.52052
336.08        28.38544
336.53        28.21938
336.98        28.04899
337.43        27.88695
337.88        27.72211
338.34        27.57446
338.79        27.47912
339.24        27.43969
339.69        27.45842
340.14        27.48374
340.59        27.42884
341.05        27.27869
341.50        27.05643
341.95        26.84345
342.40        26.77872
342.85        26.88431
343.30        27.10924
343.75         27.3442
344.20        27.41349
344.66        27.28592
345.11        27.02237
345.56        26.71605
346.01        26.50683
346.46        26.43921
346.91        26.46629
347.36        26.56639
347.81        26.70728
348.26        26.86299
348.72        27.04112
349.17        27.19613
349.62        27.26046
350.07        27.22084
350.52        27.08989
350.97        26.91193
351.42        26.76634
351.87        26.67487
352.32        26.61638
352.77        26.56768
353.22        26.48899
353.67        26.37057
354.13        26.23915
354.58        26.09159
355.03         25.9407
355.48        25.79482
355.93        25.65332
356.38        25.52699
356.83         25.4342
357.28        25.37611
357.73        25.34438
358.18        25.32689
358.63        25.30302
359.08        25.26379
359.53         25.2119
359.98         25.1411
360.43         25.0452
360.88        24.92262
361.33        24.76989
361.78        24.60433
362.23        24.45218
362.68        24.32045
363.13        24.21125
363.58        24.09502
364.03        23.92397
364.48        23.69591
364.93        23.42816
365.38        23.18342
365.83        23.05566
366.28        23.05758
366.73        23.15653
367.18        23.26856
367.63        23.25856
368.08        23.09321
368.53        22.81247
368.98        22.49672
369.43        22.26848
369.88        22.15901
370.33        22.13585
370.78         22.1382
371.23        22.06464
371.68        21.89198
372.13        21.65856
372.58         21.4313
373.03        21.30775
373.48        21.30392
373.93        21.37869
374.38        21.46626
374.83        21.46159
375.28        21.33528
375.72        21.11779
376.17         20.8703
376.62         20.6447
377.07        20.45933
377.52        20.29474
377.97        20.15273
378.42         20.0412
378.87        19.95796
379.32        19.90319
379.77        19.85439
380.22        19.77308
380.67        19.64815
381.11        19.48856
381.56        19.30361
382.01        19.13185
382.46         18.9913
382.91        18.87954
383.36        18.78354
383.81        18.67958
384.26        18.56212
384.71        18.43847
385.15        18.32706
385.60        18.27269
386.05        18.27336
386.50        18.31087
386.95        18.34833
387.40         18.3306
387.85        18.25121
388.29        18.12626
388.74        18.00328
389.19        17.90896
389.64         17.8501
390.09        17.80799
390.54        17.78875
390.98        17.78554
391.43        17.79669
391.88         17.8548
392.33        17.91186
392.78        17.81051
393.23        17.59596
393.67        17.46669
394.12        17.44395
394.57        17.37786
395.02        17.26978
395.47         17.2043
395.91        17.17811
396.36        17.12923
396.81        17.06444
397.26        17.00964
397.71        16.95428
398.15        16.90268
398.60        16.87861
399.05        16.77502
399.50        16.64434
399.95        16.75552
400.39        17.03016
400.84        16.98025
401.29        16.63544
401.74        16.45027
402.18        16.45127
402.63        16.39348
403.08        16.30302
403.53        16.19955
403.97        16.31648
404.42         16.4226
404.87        16.53518
405.32        16.56691
405.76         16.4974
406.21        16.35716
406.66        16.18676
407.11        16.05579
407.55        15.98814
408.00          15.962
408.45        15.95448
408.90         15.9215
409.34        15.85083
409.79         15.7589
410.24        15.67684
410.68        15.64302
411.13        15.66532
411.58         15.7312
412.03        15.79861
412.47        15.79957
412.92        15.71418
413.37        15.56678
413.81        15.41555
414.26        15.35884
414.71        15.40405
415.15        15.53199
415.60        15.66503
416.05        15.68183
416.49        15.55333
416.94        15.32664
417.39        15.08749
417.83        14.95842
418.28        14.96348
418.73        15.05544
419.17        15.18067
419.62        15.23955
420.07         15.2038
420.51        15.11129
420.96        14.98399
421.41        14.83969
421.85        14.69024
422.30        14.53882
422.74        14.41625
423.19        14.41455
423.64         14.5264
424.08        14.70928
424.53        14.89167
424.98        15.00667
425.42        15.03154
425.87        14.93789
426.31        14.78524
426.76        14.76191
427.21        14.84984
427.65        14.81825
428.10        14.70064
428.54            14.7
428.99        14.82426
429.44         15.0459
429.88        15.24237
430.33         15.1377
430.77        14.79614
431.22         14.5725
431.66        14.52507
432.11        14.56297
432.56         14.6425
433.00        14.75262
433.45        14.74526
433.89        14.56298
434.34        13.82133
434.78        13.79165
435.23        14.33455
435.67        14.52841
436.12          14.359
436.57        14.33902
437.01         14.4841
437.46        14.53922
437.90        14.49407
438.35        14.42423
438.79        14.34092
439.24        14.24975
439.68        14.16907
440.13        14.13515
440.57        14.13109
441.02        14.11347
441.46        14.07276
441.91        14.01319
442.35        13.94912
442.80        14.00046
443.24        14.12253
443.69        14.14923
444.13        14.06888
444.58        14.01249
445.02        13.98373
445.47        13.90228
445.91        13.80109
446.36        13.78122
446.80        13.84718
447.24        13.96997
447.69        14.10591
448.13        14.18316
448.58        14.18399
449.02        14.12836
449.47        14.04778
449.91        13.98309
450.36        13.95171
450.80        13.93742
451.25        13.93293
451.69        13.92177
452.13        13.90025
452.58        13.87732
453.02        13.85455
453.47        13.83854
453.91        13.83004
454.36        13.82497
454.80         13.8168
455.24        13.81675
455.69        13.83103
456.13        13.80912
456.58        13.75603
457.02        13.84144
457.46        13.84242
457.91        13.80406
458.35        13.68678
458.79        13.67251
459.24        13.74711
459.68        13.74189
460.13        13.67575
460.57        13.64655
461.01         13.6656
461.46        13.67504
461.90        13.66531
462.34        13.63805
462.79        13.58918
463.23        13.51757
463.68        13.45429
464.12        13.43683
464.56        13.46925
465.01        13.57685
465.45        13.69312
465.89        13.68134
466.34        13.57159
466.78        13.51787
467.22        13.54805
467.67        13.58729
468.11        13.63142
468.55        13.67746
468.99        13.71302
469.44        13.73752
469.88        13.74694
470.32         13.7199
470.77         13.6721
471.21        13.65163
471.65        13.66469
472.10        13.69531
472.54        13.72708
472.98         13.7429
473.42         13.7379
473.87        13.72612
474.31         13.7027
474.75        13.67207
475.20        13.64413
475.64        13.61109
476.08        13.58422
476.52        13.60085
476.97        13.66626
477.41        13.73175
477.85        13.76587
478.29        13.98012
478.74        13.90059
479.18        14.00954
479.62        14.14527
480.06        14.20359
480.50        14.17505
480.95        14.12716
481.39        14.09106
481.83        14.09608
482.27        14.16148
482.72        14.29739
483.16         14.4581
483.60         14.5688
484.04         14.6043
484.48        14.56567
484.93        14.57494
485.37         14.7527
485.81        15.00603
486.25        15.57584
486.69        15.23642
487.14        15.18816
487.58        15.41006
488.02        15.47572
488.46        15.71487
488.90        15.66103
489.34        15.29407
489.79         15.2112
490.23        15.40199
490.67        15.74657
491.11        16.12075
491.55        16.20582
491.99        16.05128
492.43        16.11046
492.88        16.40095
493.32        16.61544
493.76        16.71799
494.20        16.82706
494.64        16.94547
495.08        17.03927
495.52        17.12247
495.96        17.23372
496.41        17.37812
496.85        17.51715
497.29        17.65598
497.73         17.8633
498.17        18.10122
498.61        18.23847
499.05         18.2686
499.49        18.25325
499.93        18.24131
500.37        18.32575
500.82        18.48598
501.26        18.57869
501.70        18.59453
502.14        18.63069
502.58        18.70707
503.02        18.80326
503.46        18.92026
503.90         19.0635
504.34        19.20512
504.78        19.29772
505.22        19.33228
505.66        19.31823
506.10        19.27843
506.54         19.2953
506.98        19.39095
507.42        19.46523
507.86        19.47775
508.30         19.7877
508.74        19.69342
509.18        19.76434
509.62        19.80439
510.06        19.84909
510.50        19.89873
510.94        19.95033
511.38         20.0057
511.82        20.04937
512.26        20.07973
512.70        20.10367
513.14         20.1167
513.58        20.11158
514.02        20.08894
514.46        20.04846
514.90        20.00998
515.34        20.00567
515.78        20.04121
516.22        20.11037
516.66        20.17825
517.10        20.18849
517.54        20.13218
517.98        20.02698
518.42        19.92086
518.86         19.8903
519.30        19.95051
519.74        20.07587
520.18        20.21529
520.62        20.28549
521.06         20.2638
521.50        20.17549
521.93        20.05916
522.37        19.97947
522.81        19.95211
523.25        19.95453
523.69        19.96356
524.13        19.94328
524.57        19.88564
525.01        19.81034
525.45        19.72708
525.89        19.64856
526.32        19.58037
526.76        19.51706
527.20        19.47104
527.64        19.46436
528.08        19.49622
528.52        19.56045
528.96        19.61973
529.40        19.61465
529.83        19.53164
530.27        19.39119
530.71        19.23961
531.15        19.15233
531.59        19.14501
532.03        19.19652
532.46        19.25818
532.90         19.2518
533.34        19.16325
533.78        19.02453
534.22        18.88269
534.66        18.80471
535.09        18.80079
535.53        18.84725
535.97        18.91361
536.41        18.93796
536.85        18.90281
537.28        18.87972
537.72        18.87024
538.16        18.75716
538.60          18.608
539.04         18.6745
539.47        18.91317
539.91        19.04055
540.35        19.03603
540.79        19.06462
541.22        19.13014
541.66        19.17922
542.10        19.21741
542.54        19.23144
542.97        19.24744
543.41        19.38313
543.85        19.61032
544.29        19.77083
544.72        19.85142
545.16        19.97277
545.60        20.13031
546.04         20.2522
546.47        20.34744
546.91        20.46843
547.35        20.61851
547.79        20.78813
548.22        20.96651
548.66        21.13653
549.10         21.3008
549.53        21.51551
549.97        21.75669
550.41        21.93529
550.84        22.03756
551.28        22.10954
551.72        22.17018
552.15         22.2335
552.59        22.32227
553.03        22.42535
553.46        22.53779
553.90        22.68185
554.34        22.84423
554.77        22.99594
555.21        23.14061
555.65        23.30235
556.08         23.4733
556.52        23.63914
556.96        23.77744
557.39         23.8776
557.83        23.94652
558.27        23.95842
558.70        23.94662
559.14        24.02122
559.57         24.1662
560.01        24.27033
560.45        24.32511
560.88        24.39951
561.32        24.50189
561.75        24.58482
562.19        24.66758
562.63        24.71799
563.06        24.74818
563.50        24.92048
563.93        25.17118
564.37        25.15596
564.80        24.94488
565.24        25.01888
565.68        25.34672
566.11        25.54003
566.55        25.59229
566.98        25.70305
567.42        25.86959
567.85        26.06916
568.29        26.12251
568.72        26.19524
569.16        26.29917
569.60        26.43751
570.03        26.60095
570.47         26.8927
570.90        27.27429
571.34        27.13086
571.77        27.66998
572.21        27.37836
572.64        27.45621
573.08        27.37146
573.51        27.99102
573.95        28.08789
574.38        27.93996
574.82        27.77708
575.25        28.50831
575.69        28.50874
576.12        28.15143
576.56        28.03925
576.99        28.29033
577.42        28.70572
577.86        28.42532
578.29        28.58267
578.73        28.40243
579.16        28.32783
579.60        28.13021
580.03        28.03023
580.47        28.06933
580.90        27.77976
581.33        27.64091
581.77        27.93612
582.20        27.99985
582.64        27.72738
583.07        27.76104
583.51         27.4419
583.94        27.13816
584.37        27.04596
584.81         27.1843
585.24         26.9402
585.68        26.88905
586.11        26.41356
586.54         26.6382
586.98        26.52163
587.41        26.33571
587.85        26.37955
588.28        26.37291
588.71        26.33625
589.15        25.97208
589.58        26.44122
590.01        26.13986
590.45         25.9684
590.88        26.11309
591.31        26.15514
591.75        26.26066
592.18        26.20847
592.61        26.03823
593.05        26.25291
593.48        26.70115
593.91        26.48288
594.35        26.56571
594.78        26.61697
595.21        26.91699
595.65        26.95913
596.08        26.73865
596.51        27.19684
596.94        27.20996
597.38        27.47506
597.81        27.65089
598.24        27.83794
598.68        28.03428
599.11        28.34699
599.54        28.73956
599.97         28.7486
600.41        29.42213
600.84        29.73309
601.27        29.99979
601.70        30.20973
602.14        30.43079
602.57        30.91246
603.00        31.57833
603.43        31.98926
603.87        32.14088
604.30         32.4285
604.73        32.92656
605.16        33.11455
605.60        33.38059
606.03        33.77823
606.46        34.40194
606.89        34.41939
607.32        35.09418
607.76        35.28767
608.19        35.63614
608.62        35.91676
609.05        36.21369
609.48        36.46582
609.92        36.77405
610.35        36.94679
610.78        37.83474
611.21        38.37176
611.64        38.48925
612.07        38.66219
612.50        38.85397
612.94        38.98917
613.37        39.09537
613.80        39.35344
614.23        39.48756
614.66        39.74526
615.09        40.04002
615.52        40.33272
615.96        40.58625
616.39        40.83197
616.82        41.07658
617.25        41.01053
617.68        41.39426
618.11        41.25877
618.54        40.99397
618.97        41.13512
619.40        41.67699
619.84        42.14132
620.27        42.43369
620.70        42.61418
621.13        43.00197
621.56        42.83678
621.99        42.34895
622.42        42.56049
622.85        43.00981
623.28        43.07346
623.71        42.69706
624.14        42.85186
624.57        42.58854
625.00        42.54895
625.43        42.70717
625.86        42.63927
626.29        42.39384
626.72        42.60042
627.15         42.3998
627.58        42.40043
628.01        42.29596
628.44         42.0897
628.87         41.7878
629.30         41.4094
629.73        41.00441
630.16        40.83526
630.59        40.51931
631.02        40.39109
631.45        40.28922
631.88        40.10617
632.31         39.8037
632.74         39.5355
633.17        39.10207
633.60        38.71081
634.03        38.31254
634.46        37.91373
634.89        37.50654
635.32        37.06913
635.75        36.61328
636.18        36.17973
636.61        35.78361
637.04        35.41884
637.47        35.09056
637.89         34.7957
638.32        34.50378
638.75        34.23069
639.18        33.97111
639.61        33.55729
640.04        33.26903
640.47        32.97613
640.90        32.76557
641.33        32.60133
641.76          32.471
642.18        32.36525
642.61        32.26434
643.04        32.17511
643.47        32.10983
643.90        32.08715
644.33        32.10839
644.76        32.17336
645.18        32.26205
645.61        32.30026
646.04        32.28074
646.47        32.30233
646.90        32.43613
647.33        32.40669
647.75        32.84118
648.18         33.2103
648.61        33.65476
649.04        34.08368
649.47         34.4753
649.89        34.87467
650.32        35.24288
650.75          35.506
651.18        35.69373
651.61        35.91311
652.03         36.2136
652.46        36.62292
652.89        37.09626
653.32        37.54422
653.74        38.08256
654.17        38.46452
654.60        38.44279
655.03        39.77969
655.46        39.79873
655.88         39.7739
656.31         42.1382
656.74        46.15328
657.16        43.77285
657.59         41.6319
658.02        42.46071
658.45        43.25798
658.87        43.51044
659.30        43.00777
659.73        43.05996
660.15        43.91831
660.58        43.54881
661.01        43.90685
661.44        44.21099
661.86        44.24867
662.29        44.09058
662.72        44.38391
663.14        45.07183
663.57        45.22877
664.00         44.9373
664.42        45.07322
664.85         45.6299
665.27         45.9451
665.70        45.98428
666.13        46.11821
666.55        46.35107
666.98         46.4955
667.41        46.56854
667.83        46.66074
668.26        46.77538
668.69        46.90825
669.11        47.02819
669.54        47.06499
669.96        47.01255
670.39        46.93521
670.82        46.91187
671.24        46.94959
671.67        47.09985
672.09        47.56358
672.52        48.21133
672.94        48.35535
673.37        48.50294
673.80         48.2821
674.22        47.99131
674.65        48.01768
675.07        48.10178
675.50        48.40933
675.92         48.7573
676.35        49.00571
676.77        49.11303
677.20        49.13118
677.62        49.10875
678.05        49.11501
678.47        49.17286
678.90        49.25587
679.32        49.35266
679.75        49.49183
680.17        49.66954
680.60         49.8179
681.02        49.90052
681.45        50.15117
681.87        50.03703
682.30        50.04293
682.72        50.03724
683.15        49.94478
683.57        49.84515
684.00        50.00673
684.42        50.36103
684.85        50.57149
685.27        50.56137
685.70         50.5024
686.12         50.4308
686.54        50.52737
686.97        50.73512
687.39        50.74086
687.82        50.56207
688.24        50.53371
688.66        50.67481
689.09        50.78949
689.51        50.85785
689.94        50.99054
690.36        51.20338
690.78        51.33591
691.21        51.33482
691.63        51.88706
692.06        51.66144
692.48        51.96686
692.90        52.34288
693.33        52.55042
693.75        52.56253
694.17         52.4677
694.60        52.35262
695.02        52.60846
695.44        52.54591
695.87        53.05534
696.29        53.72345
696.71        53.74247
697.14        53.18317
697.56        52.91899
697.98        53.04189
698.41        53.07211
698.83        53.01698
699.25          53.207
699.68         53.5581
700.10        53.81772
700.52        53.91895
700.94        53.93768
701.37        53.90966
701.79        53.91496
702.21         53.9669
702.64        54.03543
703.06        54.09966
703.48        54.13916
703.90        54.15562
704.33        54.16866
704.75        54.20015
705.17         54.2681
705.59        54.37771
706.01         54.5116
706.44        54.67363
706.86        54.88563
707.28        55.11891
707.70        55.38734
708.12        55.63637
708.55        55.71143
708.97        55.62836
709.39        55.57554
709.81        55.58243
710.23         55.5681
710.66        55.55086
711.08        55.61472
711.50        55.74617
711.92        55.89651
712.34        56.05458
712.76        56.22969
713.19        56.38525
713.61        56.50846
714.03         56.5658
714.45        56.55677
714.87        56.50701
715.29        56.46052
715.71        56.43112
716.13        56.41658
716.56        56.38397
716.98        56.33899
717.40        56.26699
717.82        56.17085
718.24        56.09844
718.66        56.15166
719.08        56.32083
719.50        56.50959
719.92        56.67726
720.34        56.79835
720.76        56.87011
721.19        56.92434
721.61         56.9616
722.03        56.95109
722.45        56.92862
722.87        56.78975
723.29        56.59273
723.71        56.80057
724.13         57.4327
724.55        57.11363
724.97        57.57378
725.39         57.5876
725.81         57.6734
726.23        57.64211
726.65        57.55769
727.07        57.56403
727.49        57.67586
727.91        57.88609
728.33        58.15282
728.75        58.38468
729.17        58.55143
729.59        58.68606
730.01        58.79726
730.43        58.89059
730.85        58.97105
731.27        59.02861
731.69        59.06543
732.10        59.09645
732.52        59.11992
732.94        59.13358
733.36        59.13014
733.78         59.0918
734.20        59.02746
734.62        58.96664
735.04        58.91188
735.46        58.86621
735.88        58.82824
736.30        58.77156
736.72        58.75871
737.13        58.88653
737.55        59.08941
737.97         59.4544
738.39        59.85184
738.81        59.66938
739.23        59.10237
739.65        59.30333
740.06        60.10409
740.48        60.31556
740.90        59.87701
741.32        59.47176
741.74        59.25631
742.16        59.16255
742.57        59.25195
742.99        59.54169
743.41         59.9271
743.83         60.1974
744.25        60.30646
744.67        60.33118
745.08        60.35143
745.50        60.42205
745.92         60.5779
746.34        60.79736
746.75         60.9813
747.17        60.98669
747.59        60.79278
748.01        60.44804
748.42        60.08018
748.84        59.91633
749.26        59.97611
749.68        60.14232
750.09        60.35966
750.51        60.48177
750.93        60.54949
751.35        60.95134
751.76        61.58023
752.18        61.76678
752.60         61.4547
753.01        61.20921
753.43         60.7546
753.85         60.6089
754.27        60.70287
754.68         60.9847
755.10        61.34357
755.52        61.61325
755.93        61.76896
756.35        61.84684
756.77        61.79344
757.18        61.81152
757.60        62.01083
758.02        61.49323
758.43        60.93588
758.85        61.92983
759.26        62.72596
759.68        62.38552
760.10        62.35633
760.51        61.97155
760.93        61.97155
761.34        61.86389
761.76        62.57655
762.18        62.35074
762.59        61.64867
763.01        61.57332
763.42        62.15051
763.84         62.4262
764.26         62.2955
764.67        61.87354
765.09        61.42075
765.50        61.52274
765.92        62.06635
766.33        62.19729
766.75        61.83365
767.16         61.5677
767.58        61.54823
768.00        61.82122
768.41        62.34524
768.83         63.0475
769.24        63.59225
769.66        63.17302
770.07        62.05477
770.49        61.43202
770.90        61.46033
771.32        61.74652
771.73        62.16121
772.15        62.54036
772.56        62.84518
772.97        63.11855
773.39        63.33318
773.80        63.63141
774.22        63.87892
774.63        63.67929
775.05        63.11876
775.46        62.80036
775.88        62.78278
776.29        62.79797
776.70        62.80568
777.12        62.86777
777.53        62.97622
777.95        63.08796
778.36        63.20202
778.77        63.28117
779.19        63.33523
779.60         63.3932
780.02        63.42685
780.43        63.48108
780.84        63.58355
781.26        63.45307
781.67        63.25978
782.09        63.81785
782.50        64.85999
782.91        65.01763
783.33        64.31371
783.74        64.01788
784.15        64.17191
784.57        64.03875
784.98        63.67118
785.39        63.51088
785.81        63.59528
786.22        63.80763
786.63        64.07256
787.04         64.2574
787.46        64.33575
787.87        64.32867
788.28        64.30647
788.70        64.33075
789.11        64.39849
789.52        64.56104
789.93        64.76048
790.35        64.74379
790.76        64.58905
791.17         64.6714
791.58        64.96407
792.00        65.11023
792.41        65.11723
792.82        65.12849
793.23        65.20157
793.65        65.42757
794.06        65.77142
794.47        65.96756
794.88        65.94786
795.29        65.84013
795.71        65.59784
796.12        65.21242
796.53        64.79486
796.94        64.46414
797.35         64.3633
797.76        64.82394
798.18        65.58725
798.59        65.88679
799.00        65.58106
799.41        65.03312
799.82        64.49939
800.23        64.27093
800.64        64.44476
801.06        64.89167
801.47        65.49261
801.88        65.92739
802.29        66.07537
802.70        66.01141
803.11        65.82039
803.52         65.6394
803.93        65.52657
804.34        65.44779
804.75        65.36783
805.17        65.24742
805.58        65.11042
805.99        64.92461
806.40        64.78479
806.81        64.92683
807.22         65.3033
807.63        65.64986
808.04        65.87326
808.45        65.97817
808.86        65.91842
809.27        65.62459
809.68        65.22882
810.09        65.02666
810.50        65.09183
810.91        65.34576
811.32        65.66712
811.73        65.84959
812.14        65.83108
812.55        65.67774
812.96        65.48177
813.37        65.39764
813.78        65.47482
814.19        65.65789
814.60        65.87271
815.01        66.01928
815.42        66.07076
815.83         66.0543
816.24        66.01887
816.65        66.04938
817.05        66.17083
817.46        66.32007
817.87        66.45451
818.28        66.46604
818.69        66.33817
819.10        66.10746
819.51        65.86185
819.92        65.76067
820.33        65.84394
820.74        66.04603
821.14        66.27902
821.55         66.4296
821.96        66.45104
822.37        66.39499
822.78        66.26128
823.19        66.05119
823.60        65.79565
824.00         65.5128
824.41        65.27542
824.82        65.27769
825.23        65.54742
825.64        66.03219
826.04        66.61201
826.45        66.97852
826.86        67.07565
827.27        66.98218
827.68        66.77496
828.08        66.61709
828.49        66.52694
828.90        66.46076
829.31        66.47009
829.72        66.64264
830.12        67.00329
830.53        67.49419
830.94        67.94802
831.35        68.01762
831.75         67.6437
832.16        66.87565
832.57        66.02674
832.97        65.57737
833.38          65.645
833.79        66.09217
834.20        66.65318
834.60         66.8964
835.01        66.73756
835.42        66.32491
835.82         65.8728
836.23        65.67914
836.64        65.84842
837.04         66.2878
837.45        66.82933
837.86        67.30747
838.26        67.64056
838.67         67.8326
839.08         67.8862
839.48        67.78174
839.89        67.53777
840.29        67.14428
840.70        66.69891
841.11        66.29689
841.51        65.99736
841.92        65.80711
842.33        65.70786
842.73        65.65859
843.14        65.60929
843.54        65.58162
843.95        65.66152
844.35        66.02496
844.76        66.63218
845.17        67.41646
845.57         68.1591
845.98        68.36064
846.38        67.96561
846.79        67.14429
847.19        66.15871
847.60         65.4389
848.00        65.10607
848.41        65.01994
848.81        65.20103
849.22        65.57244
849.62        66.11497
850.03        66.80075
850.43        67.44939
850.84        67.63115
851.24        67.30652
851.65        66.55853
852.05        65.69853
852.46        65.26045
852.86        65.34359
853.27        65.78504
853.67        66.34199
854.07        66.86195
854.48          67.228
854.88        67.58183
855.29        67.70863
855.69        67.42848
856.10        66.64938
856.50        65.52143
856.90        64.40122
857.31        63.84729
857.71        64.00505
858.12        64.70045
858.52        65.70557
858.92        66.38528
859.33        66.50312
859.73        66.25861
860.13        65.82166
860.54        65.50602
860.94        65.44988
861.34        65.51891
861.75        65.62743
862.15        65.74675
862.55        65.80106
862.96        65.83473
863.36        65.83597
863.76        65.77657
864.17        65.65086
864.57        65.49878
864.97        65.29795
865.38        65.00624
865.78        64.67034
866.18        64.27251
866.58        63.95425
866.99        63.95475
867.39        64.31911
867.79        64.94154
868.19        65.55698
868.60          65.732
869.00         65.3929
869.40        64.68983
869.80        63.86043
870.21        63.33636
870.61        63.28925
871.01        63.54825
871.41        64.01092
871.81        64.52958
872.22         65.0157
872.62        65.57257
873.02        66.10032
873.42        66.38513
873.82        66.38481
874.22        66.14758
874.63        65.88947
875.03        65.93393
875.43        66.34094
875.83        66.96693
876.23        67.65789
876.63        68.13052
877.03        68.29594
877.44        68.31226
877.84        68.08737
878.24        67.50717
878.64        66.62823
879.04        65.46148
879.44        64.46923
879.84        64.32281
880.24        65.07895
880.64        66.58052
881.04        68.09249
881.44         68.2832
881.84        66.89355
882.24        64.44003
882.65        61.93198
883.05        60.71238
883.45        61.10018
883.85         62.6819
884.25        64.83294
884.65        66.39622
885.05        66.92281
885.45        66.73125
885.85        66.18353
886.25        65.83762
886.65        65.86079
887.05        66.03165
887.45        66.17916
887.85        66.07765
888.25        65.67699
888.65        65.12611
889.04         64.5739
889.44        64.23341
889.84        64.15007
890.24        64.27151
890.64         64.5025
891.04        64.69393
891.44        64.79427
891.84        64.83395
892.24        64.90096
892.64         65.1265
893.04        65.54556
893.44        66.13606
893.83        66.77049
894.23        67.16065
894.63        67.25775
895.03        67.06718
895.43        66.84933
895.83        67.02514
896.23        67.64832
896.63         68.6065
897.02        69.41415
897.42        69.28755
897.82        68.14022
898.22         66.2862
898.62        64.41915
899.01        63.50074
899.41        63.73212
899.81        64.84972
900.21        66.30254
900.61        67.02987
901.00        66.69819
901.40        65.72391
901.80        64.66045
902.20        64.27233
902.59         64.7455
902.99         65.7774
903.39         67.0705
903.79        67.97655
904.18        68.20865
904.58        68.00227
904.98        67.58955
905.38        67.28049
905.77        67.16792
906.17        67.16618
906.57        67.23322
906.96        67.36458
907.36        67.49442
907.76        67.64931
908.15        67.83283
908.55         67.9496
908.95         67.9963
909.34         67.9739
909.74         67.8504
910.14        67.54445
910.53        67.07861
910.93        66.53198
911.33        66.05412
911.72        65.90073
912.12        66.11758
912.52        66.60006
912.91        67.24191
913.31        67.84102
913.70        68.32986
914.10        68.69906
914.49        68.89205
914.89        68.74984
915.29        68.30383
915.68        67.62357
916.08        66.90961
916.47        66.43364
916.87        66.29883
917.26        66.37838
917.66        66.65073
918.05        67.05779
918.45        67.51872
918.84        68.11729
919.24        68.55724
919.64        68.43781
920.03        67.70964
920.42        66.49192
920.82         65.3265
921.21        64.85718
921.61        65.19884
922.00        66.22926
922.40        67.45773
922.79        68.07491
923.19        67.80496
923.58        66.92321
923.98        65.97141
924.37        65.71634
924.77        66.32531
925.16        67.56579
925.55        68.98869
925.95        69.77654
926.34        69.69054
926.74        68.95511
927.13        67.93607
927.52        67.17455
927.92        66.83244
928.31        66.74943
928.70        66.75764
929.10        66.57159
929.49        66.15232
929.89        65.64999
930.28        65.25204
930.67        65.18872
931.07        65.49768
931.46        66.06892
931.85        66.80847
932.24        67.60099
932.64        68.34138
933.03        69.11793
933.42        69.72998
933.82        69.88911
934.21        69.59113
934.60        68.88497
934.99        68.15479
935.39        67.97351
935.78        68.43264
936.17        69.35476
936.56        70.32594
936.96        70.63456
937.35        70.13906
937.74         69.0657
938.13        67.71011
938.53        66.53958
938.92        65.73218
939.31        65.23428
939.70        65.06593
940.09        65.25944
940.49        65.72674
940.88        66.45512
941.27         67.3624
941.66        68.28639
942.05        69.08776
942.44        69.76254
942.84        69.99626
943.23        69.32211
943.62        67.81742
944.01        65.78464
944.40        63.91349
944.79        63.05894
945.18        63.33394
945.57        64.53521
945.97        66.13687
946.36        67.31863
946.75        67.59298
947.14        67.20824
947.53        66.55536
947.92        66.29575
948.31        66.60287
948.70        67.17688
949.09        67.83982
949.48        68.33328
949.87        68.53638
950.26        68.60461
950.65        68.41395
951.04        67.73547
951.43        66.62443
951.82         65.1835
952.21        63.86425
952.60        63.35045
952.99         63.7536
953.38        64.88342
953.77        66.25311
954.16        66.99569
954.55        66.85053
954.94        66.05708
955.33        65.01596
955.72         64.4028
956.11        64.43023
956.50        64.89025
956.89        65.54819
957.28         66.0354
957.66        66.22293
958.05        66.20542
958.44        66.12244
958.83        66.16559
959.22        66.37695
959.61        66.67749
960.00        66.88476
960.39        66.71175
960.78        66.12142
961.16        65.25165
961.55        64.38895
961.94        63.94511
962.33        64.02144
962.72        64.48327
963.11        65.14321
963.49        65.71476
963.88         66.0303
964.27        66.16718
964.66        66.14751
965.04        66.03427
965.43        65.82008
965.82        65.53527
966.21        65.19819
966.60        64.85545
966.98        64.56352
967.37        64.31396
967.76        64.22897
968.15        64.46814
968.53        65.04449
968.92        65.84354
969.31        66.65491
969.69         67.1172
970.08        67.09444
970.47        66.69327
970.86         66.0878
971.24         65.5704
971.63        65.26629
972.02        65.18606
972.40        65.31943
972.79        65.58071
973.17        65.99974
973.56        66.49965
973.95        67.24264
974.33        68.50609
974.72         70.2086
975.11        72.26589
975.49        74.24892
975.88        75.14565
976.26        74.65617
976.65        73.04659
977.04         70.8563
977.42        68.79327
977.81        67.13055
978.19        65.68114
978.58        64.56565
978.96        63.76294
979.35         63.2661
979.74        63.09109
980.12        63.11873
980.51        62.98354
980.89        62.68774
981.28        62.32109
981.66          62.035
982.05         62.0491
982.43        62.45412
982.82        63.08536
983.20         64.0498
983.59        65.57416
983.97        67.68824
984.35        70.28052
984.74        72.58079
985.12        73.48309
985.51        72.53457
985.89        70.23728
986.28        67.47023
986.66        65.13212
987.04        63.58566
987.43        62.51831
987.81        62.04972
988.20        62.26436
988.58        63.18175
988.96        64.81918
989.35        66.54233
989.73        67.44077
990.12        67.26323
990.50         66.1319
990.88        64.80214
991.27        64.46395
991.65        65.38215
992.03         67.3767
992.42        69.41943
992.80        69.76257
993.18        67.75724
993.56         64.3319
993.95        61.10764
994.33        59.59394
994.71        60.12971
995.10        62.15223
995.48        65.08017
995.86        67.11404
996.24        67.41209
996.63         66.6114
997.01        65.34148
997.39         64.4356
997.77        64.16579
998.15        64.12531
998.54        64.51538
998.92        65.79217
999.30        67.95366
999.68        71.01044
1000.06         73.9216
1000.45        74.70354
1000.83        73.07326
1001.21        69.56172
1001.59        65.75557
1001.97        63.82823
1002.35        64.19078
1002.73        66.32745
1003.12        69.15031
1003.50        70.68668
1003.88        70.24032
1004.26        68.48016
1004.64        66.45049
1005.02        65.82567
1005.40        66.95245
1005.78        69.04066
1006.16        71.35085
1006.54        72.72393
1006.92        72.71422
1007.30        71.84418
1007.69          69.825
1008.07        66.43771
1008.45        62.30703
1008.83         57.9276
1009.21        54.72288
1009.59        54.15125
1009.97        56.23626
1010.35        60.88682
1010.73        66.77636
1011.11        70.40279
1011.49        70.08802
1011.86        66.27914
1012.24        61.65631
1012.62        60.52165
1013.00        64.15645
1013.38        72.10592
1013.76        81.52459
1014.14         84.7393
1014.52        79.53711
1014.90        70.04517
1015.28        61.29435
1015.66        57.53723
1016.04        58.94155
1016.41        64.58673
1016.79        72.89379
1017.17        79.80007
1017.55         82.3084
1017.93         81.0351
1018.31        76.96889
1018.69        72.95003
1019.06        70.39621
1019.44        68.77056
1019.82        67.71938
1020.20        66.94836
1020.58         66.2698
1020.95          66.011
1021.33        66.09249
1021.71        66.26637
1022.09        66.41131
1022.46        66.19826
1022.84        66.18593
1023.22        67.04762
1023.60         68.9667
1023.97        72.31057
1024.35        75.48722
1024.73        74.40666
