SpectraSmart Spectrum 2.9.0.0
--------- Device Information -----------
Spectrum Name :  反射率_0
Saving Time :  2024/05/03 20:33:33
Spectro-Module Model Name : SE2030-DUVN
Spectro-Module Serial Number : OS361AC55029948
Wavelength Start : 200
Wavelength End : 1025
Wavelength Unit : Wavelength(nm)
Spectrum Unit : Reflectance(%)
-----------Spectrum Setting ------------
Integration Time : 20ms
Average : 10
Boxcar : 0
Background removal :  enabled
linearity correction :  enabled
SC :  disabled
Intensity correction :  disabled
DWT denoise :  enabled
savitzky-golay :  disabled
FFT :  disabled
Running average :  disabled
Kalman :  disabled
High pass :  disabled
---------------BEGIN--------------------
Wavelength(nm)             Reflectance(%)
200.29               0
200.75        9.383251
201.21        37.44496
201.67       -1654.534
202.13       -56.80053
202.58       -21.49122
203.04       -1.714578
203.50        10.68769
203.96        13.80735
204.42        5.534153
204.88       -37.61269
205.34        1529.727
205.80        166.3496
206.26        139.4319
206.72        9770.953
207.18        47.41652
207.64        55.19731
208.10        47.75583
208.55        16.20875
209.01       -337.1639
209.47       -605.4022
209.93       -45.74586
210.39        13.85034
210.85        31.36711
211.31         39.0585
211.77         44.4752
212.23        52.74547
212.69        67.85361
213.14        63.93338
213.60        29.85063
214.06        14.96829
214.52        9.183922
214.98        3.683762
215.44       -6.984035
215.90       -44.90653
216.36        438.3545
216.81        80.88695
217.27        48.46146
217.73        9.772613
218.19       -170.9085
218.65        -5080.64
219.11       -338.6967
219.57       -47.30286
220.02        5.489745
220.48       -2.408091
220.94         94.1359
221.40        61.32237
221.86        56.74967
222.32        54.60344
222.77         52.4633
223.23        50.19568
223.69        46.22158
224.15        39.69683
224.61        34.44284
225.06        31.68082
225.52        31.95261
225.98        35.22971
226.44        41.50596
226.90        51.53052
227.36        63.81776
227.81         70.8603
228.27        68.28737
228.73        60.07912
229.19        51.19468
229.65        45.47288
230.10        42.69028
230.56         41.6007
231.02        41.26608
231.48        40.98306
231.93        40.54764
232.39        40.28866
232.85        40.14527
233.31        40.03175
233.77        39.95282
234.22        39.86081
234.68        39.84002
235.14        40.06085
235.60        40.55948
236.05        41.32882
236.51        42.23431
236.97        43.09036
237.43        43.71959
237.88         44.2931
238.34         44.7805
238.80        45.06816
239.26        45.19347
239.71        47.07421
240.17        48.09377
240.63        51.65618
241.08         56.4179
241.54        60.25061
242.00        62.59745
242.46        65.22205
242.91        69.61829
243.37        76.17132
243.83        85.09944
244.28        88.49191
244.74        74.37033
245.20        49.38879
245.66        27.23386
246.11        14.50804
246.57        9.797495
247.03        10.42135
247.48        13.69376
247.94        16.76092
248.40        19.32877
248.85        21.81114
249.31        24.83988
249.77        28.02619
250.22        30.59895
250.68        32.38177
251.14        33.82866
251.59        36.03836
252.05        39.73724
252.51        45.40659
252.96        53.72024
253.42        62.37918
253.88        66.76822
254.33         66.2049
254.79        61.94265
255.25         55.5127
255.70        49.33038
256.16        44.80823
256.62        42.09362
257.07        41.23642
257.53         41.8864
257.99        43.15989
258.44        44.32839
258.90        45.02972
259.35        44.90453
259.81        44.56118
260.27        43.97665
260.72        43.16587
261.18        42.45851
261.63         41.6648
262.09        41.01469
262.55        40.47331
263.00        39.94089
263.46         39.4402
263.91        38.87472
264.37        38.33524
264.83        37.78978
265.28        37.24941
265.74        36.67188
266.19        35.80222
266.65        34.74117
267.11        33.52962
267.56        32.42318
268.02        31.85156
268.47         31.8125
268.93        32.17542
269.38        32.60049
269.84        32.50947
270.30        31.79577
270.75         30.6624
271.21        29.48948
271.66        28.73618
272.12        28.49956
272.57        28.58018
273.03        28.76782
273.48        28.75527
273.94        28.46071
274.39        28.01207
274.85         27.4759
275.31        26.85599
275.76        26.18454
276.22        25.49026
276.67        24.88806
277.13        24.63488
277.58        24.67704
278.04        24.95374
278.49        25.18117
278.95        24.96159
279.40        24.22955
279.86        23.23872
280.31        22.22738
280.77        21.58651
281.22        21.30727
281.68        21.27536
282.13        21.33724
282.59        21.32699
283.04        21.17005
283.50        20.94276
283.95        20.64507
284.41        20.28773
284.86        19.88317
285.32        19.45748
285.77        19.04583
286.22         18.7601
286.68        18.62663
287.13        18.59187
287.59        18.63567
288.04        18.68595
288.50        18.72981
288.95        18.76105
289.41         18.7657
289.86         18.6845
290.32        18.53734
290.77          18.334
291.22        18.14117
291.68        18.04971
292.13        18.07247
292.59        18.20361
293.04        18.40528
293.50        18.62623
293.95        18.84035
294.40          19.068
294.86        19.32695
295.31        19.64701
295.77        20.03044
296.22        20.44427
296.68        20.86608
297.13        21.26168
297.58        21.60288
298.04        21.90984
298.49        22.13923
298.95         22.2561
299.40        22.26325
299.85        22.19017
300.31        22.15136
300.76        22.29829
301.21        22.66235
301.67        23.19131
302.12        23.74291
302.58        24.10788
303.03        24.22421
303.48         24.1565
303.94        24.03626
304.39         24.0176
304.84        24.14828
305.30        24.37367
305.75        24.58551
306.20        24.64495
306.66        24.53793
307.11        24.31263
307.57        24.07778
308.02        23.93994
308.47        23.93801
308.93        24.03206
309.38        24.15306
309.83        24.22548
310.29        24.22214
310.74        24.15516
311.19        24.05138
311.65        23.95097
312.10        23.85864
312.55        23.76181
313.00        23.63176
313.46        23.42957
313.91        23.14844
314.36        22.82189
314.82        22.50407
315.27        22.26705
315.72        22.13301
316.18        22.07578
316.63        22.05846
317.08        22.02351
317.53        21.94732
317.99        21.84001
318.44         21.7053
318.89        21.54341
319.35        21.35927
319.80        21.15012
320.25        20.93031
320.70        20.72769
321.16          20.544
321.61        20.37852
322.06        20.21418
322.51        20.02221
322.97        19.79745
323.42        19.55861
323.87        19.31839
324.32        19.09859
324.78        18.90512
325.23        18.73446
325.68        18.58766
326.13        18.46914
326.59        18.36875
327.04          18.297
327.49        18.22779
327.94        18.12526
328.39         17.9786
328.85        17.78678
329.30         17.5831
329.75        17.41361
330.20        17.29291
330.66        17.20665
331.11        17.12692
331.56        16.98099
332.01        16.75395
332.46        16.46416
332.92         16.1659
333.37        15.97178
333.82         15.9012
334.27        15.92885
334.72        15.98129
335.17        15.93223
335.63        15.74304
336.08        15.45983
336.53        15.15888
336.98        14.97397
337.43        14.93875
337.88        15.00885
338.34        15.11045
338.79         15.1245
339.24           15.02
339.69         14.8417
340.14        14.63759
340.59        14.48455
341.05        14.40742
341.50        14.37523
341.95        14.37674
342.40        14.40112
342.85        14.43269
343.30        14.47298
343.75          14.487
344.20        14.41651
344.66        14.26285
345.11         14.0477
345.56        13.82056
346.01        13.65662
346.46         13.5809
346.91        13.57348
347.36        13.62615
347.81        13.72379
348.26        13.84903
348.72        13.99846
349.17        14.13618
349.62        14.21127
350.07        14.20957
350.52        14.13796
350.97        14.01916
351.42        13.89666
351.87        13.78523
352.32        13.67655
352.77        13.56733
353.22        13.44917
353.67        13.32517
354.13        13.21492
354.58        13.11317
355.03        13.02156
355.48        12.94119
355.93        12.86663
356.38        12.81358
356.83        12.80778
357.28        12.84735
357.73        12.92193
358.18        12.98667
358.63        12.97014
359.08        12.86051
359.53         12.6805
359.98        12.48665
360.43        12.37082
360.88        12.34952
361.33         12.3864
361.78         12.4355
362.23        12.42337
362.68        12.33196
363.13        12.19544
363.58        12.02292
364.03        11.82939
364.48        11.63211
364.93        11.42479
365.38        11.25675
365.83        11.20405
366.28        11.27196
366.73        11.43921
367.18        11.61682
367.63        11.65559
368.08        11.52347
368.53        11.26549
368.98        10.97773
369.43         10.8115
369.88        10.80186
370.33        10.90031
370.78        11.03584
371.23        11.08757
371.68        11.01746
372.13        10.86742
372.58        10.68088
373.03        10.52081
373.48        10.40653
373.93        10.31355
374.38        10.23091
374.83        10.14641
375.28        10.05565
375.72        9.965529
376.17        9.882277
376.62        9.789144
377.07        9.683432
377.52        9.564811
377.97        9.449701
378.42        9.367984
378.87        9.328195
379.32        9.326036
379.77        9.334764
380.22        9.314491
380.67        9.256843
381.11        9.169144
381.56        9.085148
382.01        9.069876
382.46        9.132913
382.91         9.25018
383.36        9.357771
383.81        9.362149
384.26        9.249084
384.71         9.05082
385.15        8.830559
385.60        8.706444
386.05        8.699559
386.50         8.76925
386.95        8.863416
387.40        8.901392
387.85        8.865248
388.29        8.786839
388.74        8.693189
389.19        8.598404
389.64        8.512522
390.09        8.422743
390.54        8.359702
390.98        8.367635
391.43        8.447618
391.88        8.597294
392.33        8.748919
392.78        8.758679
393.23        8.639205
393.67        8.512189
394.12          8.4249
394.57        8.358316
395.02        8.326871
395.47        8.352098
395.91        8.414855
396.36         8.45232
396.81         8.45617
397.26        8.451046
397.71        8.432665
398.15        8.403346
398.60        8.379901
399.05        8.307682
399.50        8.225563
399.95        8.286494
400.39        8.455083
400.84        8.484057
401.29        8.369991
401.74        8.310282
402.18        8.310435
402.63         8.25771
403.08        8.177969
403.53        8.104284
403.97        8.161122
404.42        8.222679
404.87        8.295934
405.32        8.333774
405.76        8.322681
406.21        8.280774
406.66        8.218255
407.11         8.15309
407.55         8.09537
408.00        8.037281
408.45        7.986277
408.90        7.955186
409.34        7.945802
409.79         7.95401
410.24        7.970482
410.68        7.977742
411.13        7.971653
411.58        7.956762
412.03        7.930321
412.47        7.891549
412.92        7.843024
413.37        7.787986
413.81        7.741067
414.26        7.730399
414.71        7.755042
415.15        7.809817
415.60        7.870143
416.05        7.896162
416.49        7.876763
416.94        7.826835
417.39        7.765818
417.83        7.722651
418.28        7.704757
418.73        7.698442
419.17        7.704453
419.62        7.722366
420.07        7.747604
420.51        7.780163
420.96        7.799543
421.41        7.768863
421.85        7.684142
422.30        7.565912
422.74         7.44635
423.19        7.397282
423.64        7.422062
424.08         7.49162
424.53        7.568502
424.98         7.62197
425.42        7.639008
425.87        7.606828
426.31        7.546316
426.76        7.540149
427.21        7.575194
427.65        7.538615
428.10        7.455204
428.54        7.442666
428.99        7.507893
429.44        7.631392
429.88        7.750441
430.33        7.723607
430.77        7.579991
431.22        7.499093
431.66        7.503942
432.11        7.533368
432.56        7.561411
433.00        7.585581
433.45        7.539561
433.89         7.41321
434.34        7.021717
434.78        7.007358
435.23        7.295959
435.67        7.412254
436.12        7.344907
436.57        7.354969
437.01        7.452251
437.46        7.506818
437.90        7.510148
438.35          7.4967
438.79        7.462692
439.24        7.397136
439.68        7.309331
440.13        7.224595
440.57        7.149144
441.02        7.086022
441.46        7.040573
441.91        7.012048
442.35        6.998055
442.80        7.045268
443.24        7.127478
443.69        7.162938
444.13        7.151803
444.58        7.170483
445.02        7.218929
445.47        7.246762
445.91         7.25388
446.36        7.268348
446.80        7.290339
447.24         7.31591
447.69        7.337749
448.13        7.343485
448.58        7.332376
449.02        7.306499
449.47        7.282894
449.91        7.284347
450.36        7.314221
450.80        7.363187
451.25        7.406952
451.69        7.404906
452.13        7.350893
452.58        7.260898
453.02         7.16172
453.47        7.099329
453.91        7.085503
454.36         7.10496
454.80        7.139039
455.24        7.166116
455.69        7.179957
456.13        7.162354
456.58        7.120205
457.02        7.145914
457.46        7.128357
457.91        7.090042
458.35        7.012001
458.79        6.989999
459.24         7.01828
459.68        7.008384
460.13        6.976432
460.57        6.978368
461.01        7.020098
461.46        7.068234
461.90        7.102927
462.34        7.098076
462.79        7.046893
463.23         6.95569
463.68        6.863179
464.12        6.825246
464.56        6.852648
465.01        6.945224
465.45        7.047163
465.89        7.055528
466.34         6.98002
466.78        6.910536
467.22        6.876497
467.67        6.866979
468.11        6.888588
468.55        6.932252
468.99        6.978983
469.44         7.00927
469.88        7.015441
470.32         6.99232
470.77        6.957564
471.21        6.949917
471.65        6.975304
472.10        7.018721
472.54         7.06057
472.98         7.07651
473.42        7.061468
473.87         7.03026
474.31        6.988808
474.75        6.952118
475.20        6.929653
475.64        6.912475
476.08        6.905881
476.52        6.928036
476.97        6.979519
477.41        7.035471
477.85        7.073085
478.29        7.189709
478.74        7.139595
479.18        7.174182
479.62        7.218269
480.06        7.232804
480.50        7.216311
480.95        7.198082
481.39        7.188894
481.83        7.198649
482.27        7.235645
482.72        7.306204
483.16        7.386062
483.60        7.440231
484.04        7.454422
484.48         7.41894
484.93         7.43795
485.37        7.540209
485.81        7.623789
486.25        7.967412
486.69         7.93528
487.14          7.4018
487.58         8.05564
488.02        7.918329
488.46        8.004392
488.90        7.886475
489.34         7.70824
489.79        7.764801
490.23        7.980725
490.67        8.194964
491.11        8.318834
491.55        8.250918
491.99        8.058906
492.43        8.022071
492.88        8.166683
493.32        8.318778
493.76        8.435654
494.20        8.541254
494.64        8.624616
495.08        8.679025
495.52        8.719687
495.96        8.779443
496.41        8.864543
496.85        8.948089
497.29        9.031446
497.73        9.150441
498.17        9.285702
498.61        9.372738
499.05         9.40494
499.49        9.407239
499.93        9.404124
500.37        9.444666
500.82        9.526943
501.26        9.590529
501.70        9.632586
502.14        9.698809
502.58        9.785648
503.02        9.860636
503.46        9.919246
503.90        9.969604
504.34        10.01314
504.78        10.05191
505.22        10.08785
505.66        10.11853
506.10        10.13764
506.54        10.15949
506.98         10.1901
507.42        10.18721
507.86        10.15012
508.30         10.2976
508.74        10.27153
509.18        10.35684
509.62        10.43389
510.06        10.49395
510.50        10.52958
510.94        10.54882
511.38        10.56186
511.82        10.57492
512.26        10.59293
512.70         10.6144
513.14        10.63626
513.58        10.65508
514.02        10.66895
514.46        10.67624
514.90        10.68343
515.34        10.69979
515.78        10.72605
516.22         10.7621
516.66        10.78754
517.10        10.77053
517.54        10.70877
517.98        10.61287
518.42        10.52237
518.86        10.49953
519.30        10.55571
519.74        10.67172
520.18         10.7994
520.62        10.85951
521.06        10.83165
521.50        10.73859
521.93        10.62333
522.37         10.5551
522.81        10.55042
523.25        10.58534
523.69        10.62754
524.13        10.62655
524.57        10.57132
525.01        10.48491
525.45        10.38877
525.89        10.31437
526.32        10.27242
526.76        10.25141
527.20         10.2502
527.64        10.26874
528.08        10.30133
528.52        10.34713
528.96        10.38634
529.40        10.38728
529.83        10.34235
530.27        10.26058
530.71        10.16568
531.15         10.0972
531.59        10.06486
532.03        10.06031
532.46         10.0617
532.90        10.03304
533.34        9.969814
533.78        9.888556
534.22        9.814465
534.66        9.782909
535.09        9.797791
535.53        9.844693
535.97        9.903754
536.41         9.93603
536.85         9.93023
537.28        9.925282
537.72        9.922861
538.16        9.862412
538.60        9.781052
539.04        9.810621
539.47        9.933839
539.91        10.00939
540.35        10.02761
540.79        10.07357
541.22        10.14026
541.66        10.18443
542.10        10.20586
542.54        10.20189
542.97        10.19709
543.41        10.27174
543.85        10.41396
544.29        10.53341
544.72        10.61195
545.16        10.69818
545.60        10.78613
546.04        10.84383
546.47        10.88366
546.91        10.94425
547.35        11.03213
547.79        11.13946
548.22        11.25885
548.66        11.37954
549.10        11.50126
549.53        11.65349
549.97        11.82345
550.41        11.96133
550.84        12.05741
551.28         12.1368
551.72        12.20273
552.15        12.25296
552.59        12.30041
553.03        12.34223
553.46        12.39026
553.90        12.47976
554.34        12.60648
554.77        12.74677
555.21        12.88573
555.65        13.00837
556.08        13.10444
556.52        13.17795
556.96        13.22872
557.39        13.27011
557.83        13.31188
558.27        13.33049
558.70         13.3466
559.14        13.42482
559.57         13.5528
560.01        13.66604
560.45        13.73987
560.88        13.78635
561.32         13.8086
561.75        13.78117
562.19        13.74313
562.63        13.74084
563.06        13.78119
563.50        13.89643
563.93        14.04255
564.37        14.05133
564.80        13.95715
565.24        14.01072
565.68         14.1969
566.11        14.31227
566.55        14.35457
566.98        14.42845
567.42        14.53787
567.85         14.6781
568.29        14.74824
568.72        14.84361
569.16        14.96109
569.60        15.06565
570.03        15.14685
570.47        15.31045
570.90        15.56526
571.34        15.41388
571.77        15.84901
572.21        15.76379
572.64         15.9073
573.08        15.88504
573.51        16.25167
573.95        16.28722
574.38         16.1769
574.82         16.0791
575.25        16.43453
575.69        16.52519
576.12        16.48684
576.56         16.5593
576.99        16.73544
577.42        16.76992
577.86        16.66026
578.29         16.6239
578.73        16.61363
579.16        16.55707
579.60        16.40116
580.03        16.34088
580.47        16.40192
580.90        16.25856
581.33         16.1735
581.77        16.32946
582.20        16.34079
582.64        16.10141
583.07        16.13697
583.51         15.8961
583.94        15.64945
584.37        15.50677
584.81        15.50917
585.24        15.44299
585.68         15.5959
586.11        15.19995
586.54        15.29505
586.98        15.20232
587.41        15.18984
587.85        15.14318
588.28        15.10233
588.71        14.91875
589.15        14.90313
589.58        15.00491
590.01        14.94605
590.45        14.88711
590.88        14.74899
591.31        14.77126
591.75        14.96901
592.18        14.99832
592.61        14.77793
593.05        15.18925
593.48        15.21945
593.91         14.8366
594.35         15.1296
594.78        15.17657
595.21        15.36092
595.65        15.42586
596.08        15.36678
596.51        15.67817
596.94        15.72279
597.38        15.90604
597.81        16.03054
598.24        16.20237
598.68        16.42363
599.11         16.4623
599.54        16.94173
599.97        16.72333
600.41        17.30577
600.84        17.50798
601.27        17.71819
601.70        17.99358
602.14        18.35003
602.57        18.59156
603.00        19.04123
603.43        19.30588
603.87        19.52646
604.30        19.82568
604.73        20.22255
605.16        20.69865
605.60        20.91375
606.03        21.24376
606.46        21.64287
606.89        21.68556
607.32        22.52081
607.76        22.75648
608.19        23.09524
608.62        23.37102
609.05        23.69886
609.48        24.01271
609.92        24.37724
610.35        24.35588
610.78        25.14238
611.21        25.40718
611.64        25.65984
612.07        25.88457
612.50        26.16251
612.94        26.35643
613.37        26.45893
613.80        26.87701
614.23        26.94932
614.66        27.22354
615.09        27.49434
615.52        27.76559
615.96        28.03759
616.39        28.28941
616.82        28.51769
617.25        28.85864
617.68        29.24671
618.11        29.24153
618.54        28.98482
618.97        29.17522
619.40        29.80126
619.84        30.23531
620.27        30.39614
620.70         30.6143
621.13        30.87936
621.56        30.85695
621.99        30.63604
622.42        30.76141
622.85        31.20312
623.28        31.09369
623.71        31.20538
624.14        31.04101
624.57        30.86519
625.00         30.9311
625.43        30.92682
625.86        30.99515
626.29        30.95722
626.72        31.10056
627.15        30.81709
627.58         30.6067
628.01        30.33372
628.44        30.03942
628.87        29.75748
629.30         29.5438
629.73        29.38165
630.16        29.17624
630.59         28.9079
631.02        28.60069
631.45        28.26918
631.88        27.94013
632.31        27.61741
632.74        27.28034
633.17         26.9161
633.60        26.51572
634.03        26.08216
634.46        25.62854
634.89         25.1733
635.32        24.74126
635.75        24.34052
636.18         23.9646
636.61        23.61124
637.04        23.27558
637.47         22.9541
637.89        22.64401
638.32        22.32533
638.75        22.00407
639.18        21.68644
639.61        21.28867
640.04        20.99491
640.47        20.71104
640.90        20.49236
641.33        20.32744
641.76        20.19976
642.18        20.08085
642.61        19.95509
643.04        19.83399
643.47        19.73288
643.90        19.67661
644.33        19.67008
644.76        19.70639
645.18        19.77056
645.61        19.81604
646.04        19.83252
646.47        19.87575
646.90        19.98572
647.33        19.98596
647.75        20.26975
648.18         20.5232
648.61        20.82646
649.04        21.14001
649.47        21.45699
649.89        21.72345
650.32        21.97699
650.75        22.43575
651.18        23.05158
651.61        23.50896
652.03        23.80265
652.46        24.24011
652.89        24.81096
653.32        25.14256
653.74        25.34132
654.17        25.88637
654.60        26.14915
655.03        27.03668
655.46        27.48228
655.88        27.98397
656.31        30.01669
656.74        32.87315
657.16        31.14911
657.59        29.72399
658.02        30.59071
658.45        31.01589
658.87        31.54274
659.30        31.75005
659.73        32.05403
660.15        32.65229
660.58        32.85503
661.01        33.13103
661.44        33.29235
661.86        33.59909
662.29        34.02823
662.72        34.33894
663.14        34.55835
663.57        34.82293
664.00        35.15172
664.42        35.52303
664.85         35.9131
665.27        36.23636
665.70        36.38251
666.13        36.61757
666.55        36.91873
666.98         37.1698
667.41        37.37325
667.83        37.58592
668.26        37.80749
668.69        38.03138
669.11        38.23439
669.54        38.37821
669.96        38.46522
670.39        38.51413
670.82        38.58809
671.24        38.78516
671.67        39.11982
672.09        39.53057
672.52        39.95992
672.94        40.23339
673.37        40.65191
673.80         40.5044
674.22        40.07516
674.65        39.97356
675.07        40.28012
675.50        40.67725
675.92        41.06505
676.35        41.37358
676.77        41.56019
677.20        41.65578
677.62        41.69971
678.05        41.75558
678.47        41.84262
678.90        41.93423
679.32        42.04479
679.75         42.2211
680.17        42.46275
680.60        42.75254
681.02        43.00347
681.45        43.23098
681.87        43.01438
682.30        42.99972
682.72        43.09708
683.15        43.15027
683.57        43.18739
684.00        43.36981
684.42        43.65237
684.85         43.8507
685.27        43.93784
685.70        43.93959
686.12        43.88884
686.54        43.98496
686.97        44.18281
687.39        44.17665
687.82        43.99329
688.24        44.00377
688.66        44.20179
689.09        44.28035
689.51        44.25549
689.94        44.38349
690.36         44.6838
690.78        44.96185
691.21        45.12665
691.63        45.65569
692.06        45.38081
692.48        45.72633
692.90        46.06992
693.33        46.25665
693.75        46.20446
694.17        46.10181
694.60        46.00683
695.02        46.18807
695.44        46.06953
695.87        46.44251
696.29        46.98998
696.71        47.22396
697.14        47.09434
697.56        46.85851
697.98         46.6615
698.41        46.60329
698.83         46.7073
699.25        46.96799
699.68        47.27748
700.10        47.50167
700.52        47.57773
700.94        47.55277
701.37        47.48228
701.79        47.47584
702.21        47.55363
702.64        47.67995
703.06        47.82075
703.48        47.93004
703.90         47.9987
704.33        48.05116
704.75        48.10423
705.17        48.16958
705.59        48.25317
706.01        48.34089
706.44        48.44618
706.86        48.60489
707.28        48.79881
707.70        49.04533
708.12        49.29078
708.55        49.37814
708.97        49.32283
709.39        49.31522
709.81        49.38228
710.23         49.4304
710.66        49.47015
711.08        49.58635
711.50        49.75071
711.92        49.88976
712.34        49.99136
712.76        50.07514
713.19         50.1364
713.61        50.20254
714.03        50.27061
714.45        50.31636
714.87        50.34049
715.29        50.34148
715.71        50.31936
716.13        50.28148
716.56        50.21653
716.98        50.15471
717.40        50.09266
717.82        50.04295
718.24        50.02634
718.66        50.06197
719.08        50.16976
719.50        50.31188
719.92        50.48268
720.34        50.66324
720.76        50.84166
721.19        51.01392
721.61        51.14545
722.03        51.18085
722.45        51.13942
722.87        50.92188
723.29        50.61703
723.71        50.71129
724.13        51.24048
724.55        50.96127
724.97        51.40732
725.39        51.43765
725.81        51.49815
726.23        51.48295
726.65        51.46862
727.07        51.33146
727.49        51.54388
727.91        51.70493
728.33        51.90966
728.75        52.07865
729.17        52.18974
729.59        52.25962
730.01        52.30741
730.43        52.37171
730.85        52.46261
731.27        52.56752
731.69        52.66354
732.10        52.72378
732.52        52.73344
732.94        52.69622
733.36        52.64548
733.78        52.60536
734.20        52.59291
734.62        52.70087
735.04        52.85652
735.46        52.77518
735.88        52.52625
736.30        52.49057
736.72         52.7258
737.13        53.00869
737.55        53.19189
737.97        53.42532
738.39        53.65861
738.81        53.16014
739.23        52.66091
739.65        52.97904
740.06        54.00833
740.48        54.32933
740.90        53.85787
741.32        53.39397
741.74        53.11123
742.16        52.93746
742.57        52.94826
742.99        53.14791
743.41        53.46549
743.83        53.76631
744.25         53.9994
744.67        54.18595
745.08        54.32997
745.50        54.40701
745.92         54.4239
746.34        54.36315
746.75        54.24737
747.17        54.11169
747.59        53.96914
748.01        53.89797
748.42        53.87976
748.84        53.70894
749.26        53.45493
749.68        53.50533
750.09        53.83282
750.51        54.00853
750.93        54.05069
751.35        54.38018
751.76        54.91379
752.18        55.13453
752.60        55.00248
753.01        54.74709
753.43        54.48783
753.85        54.35896
754.27        54.40652
754.68         54.5893
755.10        54.81002
755.52        54.99272
755.93        55.10984
756.35        55.21065
756.77        55.22029
757.18         55.2244
757.60        55.30144
758.02        54.92226
758.43         54.1938
758.85        55.23037
759.26         55.9349
759.68        55.80907
760.10        55.97954
760.51        55.71713
760.93        55.67699
761.34        55.49313
761.76        55.76522
762.18        55.57584
762.59         55.2236
763.01        55.29472
763.42        55.75907
763.84        56.08909
764.26        56.14286
764.67        55.59232
765.09        54.79181
765.50         54.8622
765.92        55.66413
766.33        55.83162
766.75        55.29773
767.16        55.16913
767.58        55.50629
768.00        55.71939
768.41         55.8319
768.83        56.32639
769.24        56.96577
769.66        56.87748
770.07        56.16485
770.49        55.62674
770.90        55.41216
771.32        55.47795
771.73        55.76101
772.15        55.95847
772.56        56.05337
772.97        56.21579
773.39        56.41993
773.80        56.67593
774.22        56.87128
774.63        56.76987
775.05        56.41436
775.46         56.2052
775.88        56.17914
776.29        56.14816
776.70        56.12181
777.12        56.21386
777.53        56.43082
777.95        56.71478
778.36        56.99771
778.77        57.13811
779.19        57.11549
779.60        56.98804
780.02        56.80716
780.43        56.70651
780.84        56.73837
781.26        56.70977
781.67        56.69938
782.09        57.11601
782.50        57.78477
782.91        57.94175
783.33        57.60246
783.74        57.49544
784.15        57.62584
784.57        57.60685
784.98         57.4543
785.39        57.29259
785.81        57.19408
786.22        57.34726
786.63        57.65832
787.04        57.75095
787.46        57.60634
787.87        57.41288
788.28        57.30055
788.70        57.30279
789.11        57.43101
789.52        57.84387
789.93        58.35967
790.35        58.35153
790.76         57.9239
791.17        57.80835
791.58        58.09283
792.00        58.34642
792.41        58.48765
792.82        58.70865
793.23        58.91178
793.65        58.54942
794.06        57.87473
794.47        57.99206
794.88        58.70918
795.29         58.8606
795.71        58.36511
796.12        57.92028
796.53        57.67103
796.94        57.46316
797.35        57.41631
797.76        57.85492
798.18        58.57009
798.59        58.95263
799.00        58.87615
799.41        58.60877
799.82        58.31095
800.23        58.15678
800.64        58.21524
801.06        58.40272
801.47        58.67053
801.88        58.84033
802.29        58.84954
802.70        58.73777
803.11         58.5835
803.52        58.50811
803.93        58.55149
804.34        58.68409
804.75        58.80848
805.17        58.80786
805.58        58.68687
805.99        58.33956
806.40        57.93385
806.81        58.07394
807.22        58.63694
807.63        58.80101
808.04        58.54942
808.45        58.51072
808.86        58.69438
809.27        58.69013
809.68        58.51117
810.09        58.40045
810.50        58.38484
810.91        58.39535
811.32        58.42414
811.73        58.45513
812.14        58.47836
812.55        58.52778
812.96        58.59937
813.37        58.62851
813.78        58.63318
814.19        58.71644
814.60        58.85566
815.01        58.94127
815.42        58.96743
815.83        58.98181
816.24        59.02183
816.65        59.12548
817.05        59.29908
817.46        59.49869
817.87        59.66345
818.28        59.65995
818.69        59.46859
819.10        59.12502
819.51        58.74565
819.92        58.54833
820.33        58.59458
820.74        58.81329
821.14        59.08277
821.55        59.23022
821.96        59.20013
822.37        59.06397
822.78         58.8709
823.19        58.70618
823.60        58.62044
824.00        58.59956
824.41         58.6588
824.82        58.89229
825.23        59.29639
825.64        59.83792
826.04        60.42849
826.45        60.83138
826.86        61.00169
827.27        60.98297
827.68        60.82804
828.08        60.66092
828.49        60.49596
828.90         60.3257
829.31        60.19103
829.72        60.15423
830.12        60.24913
830.53        60.42773
830.94        60.62626
831.35        60.68066
831.75        60.55857
832.16        60.25201
832.57        59.88998
832.97        59.65587
833.38        59.60202
833.79        59.69125
834.20        59.80753
834.60        59.76141
835.01        59.53427
835.42        59.18579
835.82        58.88446
836.23        58.85955
836.64        59.17314
837.04        59.76402
837.45        60.39619
837.86        60.76526
838.26        60.77258
838.67        60.46148
839.08        59.99332
839.48        59.61491
839.89        59.40573
840.29        59.28544
840.70         59.1997
841.11        59.00275
841.51        58.69335
841.92        58.35603
842.33        58.06918
842.73        57.95937
843.14        58.02707
843.54        58.21375
843.95        58.54993
844.35        59.13034
844.76        59.89021
845.17        60.80418
845.57        61.61932
845.98        61.78282
846.38        61.24068
846.79        60.17448
847.19        58.97046
847.60        58.25182
848.00        58.16202
848.41        58.49887
848.81        59.11419
849.22        59.64729
849.62        59.99977
850.03        60.23735
850.43         60.3213
850.84        60.08442
851.24        59.57796
851.65        58.81898
852.05        58.07272
852.46        57.79216
852.86        58.02782
853.27         58.6304
853.67         59.3249
854.07        59.88872
854.48         60.2065
854.88        60.41841
855.29         60.3623
855.69         59.9513
856.10        59.14693
856.50        58.07177
856.90        57.05505
857.31        56.60056
857.71        56.83782
858.12        57.62411
858.52        58.72005
858.92        59.48494
859.33        59.67528
859.73        59.46038
860.13        59.04444
860.54         58.8043
860.94        58.87826
861.34        59.11982
861.75        59.34472
862.15        59.35178
862.55        59.04898
862.96        58.55231
863.36        58.01472
863.76        57.67477
864.17        57.59234
864.57        57.72426
864.97        57.91905
865.38        57.92331
865.78        57.71249
866.18        57.33115
866.58        56.95582
866.99        56.89002
867.39        57.20661
867.79         57.7681
868.19        58.33516
868.60        58.52849
869.00        58.27468
869.40        57.71246
869.80        57.02237
870.21        56.52723
870.61        56.37406
871.01        56.43642
871.41        56.66366
871.81        56.97887
872.22         57.3243
872.62        57.78352
873.02        58.26436
873.42        58.56961
873.82        58.64479
874.22          58.511
874.63        58.36399
875.03        58.50214
875.43        58.97397
875.83        59.66157
876.23        60.34567
876.63        60.64246
877.03        60.46703
877.44        60.00446
877.84        59.37121
878.24        58.78466
878.64        58.33749
879.04        57.91944
879.44        57.68474
879.84        57.86155
880.24        58.42935
880.64          59.361
881.04        60.18435
881.44         60.0522
881.84        58.84353
882.24        56.89775
882.65        54.98635
883.05        54.13055
883.45         54.5613
883.85        55.97508
884.25        57.83343
884.65        59.12766
885.05        59.48159
885.45        59.16785
885.85        58.54279
886.25        58.16085
886.65        58.18463
887.05        58.41431
887.45        58.66865
887.85        58.68927
888.25        58.40873
888.65        57.96215
889.04        57.50803
889.44        57.27964
889.84          57.324
890.24        57.58401
890.64        57.91726
891.04         58.0995
891.44        58.07388
891.84        57.89717
892.24        57.74536
892.64        57.89104
893.04        58.38423
893.44        59.14029
893.83        59.93721
894.23        60.32777
894.63        60.22574
895.03        59.72918
895.43        59.12738
895.83        58.87926
896.23        59.09125
896.63        59.64214
897.02        60.21548
897.42        60.29448
897.82        59.78761
898.22        58.87748
898.62        57.95411
899.01        57.55042
899.41        57.78845
899.81        58.53374
900.21        59.41865
900.61        59.75644
901.00        59.35408
901.40        58.48381
901.80        57.63455
902.20        57.49004
902.59        58.18727
902.99        59.47947
903.39        60.94124
903.79        61.66676
904.18        61.35049
904.58        60.34948
904.98        59.15353
905.38        58.41597
905.77        58.29018
906.17        58.58836
906.57        59.14229
906.96         59.7173
907.36        60.15313
907.76        60.51996
908.15        60.82578
908.55        60.99499
908.95        61.03318
909.34        60.91794
909.74        60.62539
910.14        60.11157
910.53        59.41551
910.93        58.61908
911.33        57.90925
911.72        57.58797
912.12        57.71357
912.52         58.1876
912.91         58.8397
913.31        59.35464
913.70        59.65268
914.10        59.77041
914.49        59.75867
914.89        59.65635
915.29        59.52273
915.68        59.33184
916.08        59.17111
916.47        59.13503
916.87        59.26535
917.26        59.50301
917.66        59.80816
918.05        60.10644
918.45        60.33992
918.84        60.56724
919.24        60.66487
919.64        60.53321
920.03        60.16977
920.42        59.59685
920.82        59.04352
921.21        58.72823
921.61        58.69685
922.00        58.94093
922.40        59.25002
922.79        59.33834
923.19        59.10783
923.58        58.66811
923.98        58.28708
924.37        58.33793
924.77         58.8825
925.16        59.80395
925.55        60.80829
925.95        61.35265
926.34        61.29612
926.74        60.78516
927.13        60.05637
927.52        59.46737
927.92        59.13791
928.31        58.95892
928.70        58.89837
929.10        58.88618
929.49        58.90393
929.89         59.0046
930.28        59.16069
930.67        59.26949
931.07        59.29826
931.46         59.2526
931.85        59.23692
932.24        59.46042
932.64        59.93072
933.03        60.64573
933.42        61.34369
933.82         61.6119
934.21        61.38752
934.60        60.77836
934.99        60.13126
935.39        59.95406
935.78        60.33311
936.17        61.08001
936.56        61.87225
936.96        62.17297
937.35        61.86794
937.74        61.13375
938.13        60.12612
938.53        59.08259
938.92        58.14022
939.31        57.32769
939.70         56.7941
940.09        56.77166
940.49        57.22101
940.88        58.04511
941.27        59.10084
941.66        60.11087
942.05        60.89186
942.44        61.50861
942.84        61.61299
943.23        60.67811
943.62        58.82532
944.01        56.39262
944.40         54.2363
944.79         53.4408
945.18        54.13639
945.57        56.05662
945.97        58.49518
946.36        60.19194
946.75        60.49636
947.14        59.77067
947.53         58.5814
947.92        57.88143
948.31        57.95219
948.70         58.4195
949.09        59.11116
949.48        59.77212
949.87        60.25834
950.26        60.73769
950.65        60.99585
951.04        60.64088
951.43        59.67364
951.82        58.20335
952.21        56.75806
952.60         56.1571
952.99         56.5485
953.38        57.72054
953.77        59.09294
954.16        59.64685
954.55        59.09236
954.94        57.70917
955.33        56.08891
955.72         55.2023
956.11        55.32856
956.50        56.20919
956.89        57.33094
957.28        57.85567
957.66        57.57515
958.05        56.74087
958.44        55.88352
958.83        55.83608
959.22        56.77524
959.61        58.39137
960.00        60.10274
960.39        60.92186
960.78        60.55819
961.16        59.34665
961.55        57.77559
961.94        56.58686
962.33        56.03796
962.72        55.92368
963.11        56.12389
963.49        56.46103
963.88        56.79872
964.27        57.23784
964.66        57.72131
965.04        58.13274
965.43        58.39092
965.82        58.51179
966.21        58.53623
966.60        58.58099
966.98        58.69705
967.37        58.82802
967.76        58.99391
968.15        59.20923
968.53        59.47374
968.92        59.74788
969.31        59.97768
969.69        60.05616
970.08        59.93029
970.47        59.64054
970.86        59.26188
971.24        58.91097
971.63        58.64972
972.02        58.53705
972.40        58.56543
972.79        58.66484
973.17        58.88821
973.56        59.15832
973.95        59.67863
974.33        60.79413
974.72        62.44275
975.11        64.51678
975.49        66.58163
975.88        67.62117
976.26        67.30119
976.65        65.89524
977.04        63.85227
977.42        61.76451
977.81         59.9004
978.19         58.1111
978.58        56.67398
978.96        55.82907
979.35        55.60632
979.74        55.93706
980.12        56.50253
980.51        56.59755
980.89        56.13317
981.28        55.31792
981.66        54.45663
982.05        54.07056
982.43        54.33933
982.82         54.9778
983.20        56.06351
983.59        57.77387
983.97        60.10978
984.35        63.05853
984.74        65.66829
985.12        66.43117
985.51        64.86388
985.89        61.59187
986.28        58.02264
986.66         55.8223
987.04        55.43554
987.43        56.34711
987.81        58.05098
988.20        59.38819
988.58        59.93128
988.96        60.08504
989.35        59.80651
989.73        59.16241
990.12        58.22969
990.50         56.8559
990.88        55.63779
991.27        55.52454
991.65        56.68212
992.03         59.0904
992.42        61.61954
992.80        62.17817
993.18        60.02746
993.56        56.10324
993.95        52.35189
994.33         50.7616
994.71        51.72614
995.10         54.6617
995.48        58.58411
995.86        60.82426
996.24        60.27017
996.63        57.84555
997.01         54.9721
997.39        53.55019
997.77        54.00662
998.15         55.6473
998.54         57.9509
998.92        59.98179
999.30        61.30199
999.68        62.33173
1000.06        62.78794
1000.45        62.13906
1000.83        60.60551
1001.21        58.21621
1001.59        56.06613
1001.97        55.70293
1002.35        57.33862
1002.73        60.69551
1003.12        64.53716
1003.50        66.52109
1003.88        65.87657
1004.26        63.28993
1004.64        60.23082
1005.02        59.11642
1005.40        60.49464
1005.78         63.4623
1006.16        66.88032
1006.54        68.86582
1006.92        68.76694
1007.30        67.28287
1007.69         64.5443
1008.07        61.11237
1008.45         57.7389
1008.83        54.48434
1009.21        52.26283
1009.59        52.02164
1009.97        53.71402
1010.35        57.37872
1010.73        61.84473
1011.11        64.08205
1011.49        62.75719
1011.86        58.33274
1012.24        53.33102
1012.62        51.65863
1013.00        54.48082
1013.38        61.46134
1013.76        70.25274
1014.14        74.18266
1014.52        71.01301
1014.90        64.02325
1015.28        57.43422
1015.66        55.00391
1016.04        56.99149
1016.41        62.64494
1016.79        70.50693
1017.17        76.84498
1017.55        78.87293
1017.93        77.14178
1018.31        72.59663
1018.69        68.00047
1019.06         64.8551
1019.44        62.78008
1019.82        61.44778
1020.20         60.4945
1020.58        59.65942
1020.95        59.18937
1021.33        58.96186
1021.71        58.67437
1022.09        58.28668
1022.46        57.65527
1022.84        57.28142
1023.22        57.68367
1023.60        58.99038
1023.97        61.38694
1024.35        64.02313
1024.73        64.46332
