SpectraSmart Spectrum 2.9.0.0
--------- Device Information -----------
Spectrum Name :  反射率_0
Saving Time :  2024/04/26 22:44:59
Spectro-Module Model Name : SE2030-DUVN
Spectro-Module Serial Number : OS361AC55029948
Wavelength Start : 200
Wavelength End : 1025
Wavelength Unit : Wavelength(nm)
Spectrum Unit : Reflectance(%)
-----------Spectrum Setting ------------
Integration Time : 20ms
Average : 10
Boxcar : 0
Background removal :  enabled
linearity correction :  enabled
SC :  disabled
Intensity correction :  disabled
DWT denoise :  enabled
savitzky-golay :  disabled
FFT :  disabled
Running average :  disabled
Kalman :  disabled
High pass :  disabled
---------------BEGIN--------------------
Wavelength(nm)             Reflectance(%)
200.29               0
200.75        45.25055
201.21        43.62282
201.67        42.24347
202.13        41.26295
202.58         40.5663
203.04        40.58121
203.50        41.57901
203.96        43.66204
204.42        46.75234
204.88         50.4698
205.34        54.22041
205.80        57.30703
206.26        59.03559
206.72        58.99986
207.18        57.61691
207.64        55.14202
208.10        51.40898
208.55        46.20437
209.01        38.29101
209.47         30.4242
209.93        26.92966
210.39        27.18262
210.85         29.0767
211.31        31.39039
211.77        34.71035
212.23        41.88265
212.69        59.53121
213.14         90.1087
213.60        89.28019
214.06        67.32487
214.52        53.25377
214.98        49.14211
215.44        50.23489
215.90        53.66907
216.36        57.61128
216.81        59.19123
217.27        57.75527
217.73        54.34459
218.19        49.31997
218.65        46.15092
219.11        47.30201
219.57        49.81859
220.02        52.97271
220.48        58.13501
220.94        66.08574
221.40        78.88362
221.86        95.35915
222.32        102.4276
222.77        91.57339
223.23        72.83021
223.69        57.17102
224.15        50.29576
224.61        49.90772
225.06        52.45079
225.52        55.62049
225.98        56.91856
226.44        56.20943
226.90        54.58299
227.36        52.63136
227.81        51.27705
228.27        50.93044
228.73        50.92623
229.19        51.31071
229.65        52.25219
230.10        53.63641
230.56        55.55953
231.02        57.21434
231.48         57.2872
231.93        55.69692
232.39        53.27095
232.85        51.17173
233.31        50.99444
233.77        52.83764
234.22        56.14315
234.68        59.91212
235.14        62.64969
235.60        63.90178
236.05        64.13614
236.51        63.75095
236.97         63.6829
237.43        64.36369
237.88        65.53447
238.34        67.05298
238.80        69.09074
239.26        71.83292
239.71        76.01727
240.17         81.3924
240.63        87.19334
241.08          92.715
241.54        96.89862
242.00        100.7159
242.46        107.1639
242.91        118.9849
243.37        137.3622
243.83        162.2616
244.28         181.041
244.74        175.7858
245.20        148.5379
245.66        117.0519
246.11        94.87299
246.57        82.23701
247.03        75.19814
247.48        71.56373
247.94        68.82372
248.40        66.72839
248.85        65.68156
249.31        65.83865
249.77        66.89031
250.22        68.65729
250.68         71.0023
251.14        73.79433
251.59        75.95401
252.05        76.97133
252.51        77.91614
252.96         78.0017
253.42        77.10107
253.88        75.70262
254.33        73.69065
254.79        74.11386
255.25        79.51756
255.70        89.23848
256.16        102.0848
256.62        113.0181
257.07        114.3015
257.53        108.0979
257.99        99.36539
258.44        92.11089
258.90        89.93439
259.35        91.25334
259.81        94.64019
260.27        97.99764
260.72         98.8399
261.18        97.43286
261.63        94.55749
262.09        91.82608
262.55        90.11375
263.00        89.25563
263.46        88.98376
263.91          88.441
264.37         87.1188
264.83        84.96032
265.28        82.32005
265.74        79.89212
266.19        78.02389
266.65          76.869
267.11        76.08788
267.56        75.49596
268.02        74.85606
268.47        74.05217
268.93        73.21873
269.38        72.21884
269.84         70.9237
270.30        69.32799
270.75        67.46397
271.21        65.64708
271.66         64.2751
272.12        63.41816
272.57         62.8903
273.03        62.41621
273.48        61.52259
273.94        60.18558
274.39        58.54872
274.85        56.88326
275.31        55.34788
275.76        53.98546
276.22        52.80566
276.67        51.77689
277.13        51.01714
277.58        50.42428
278.04        49.97783
278.49        49.51191
278.95        48.94336
279.40        48.17084
279.86        47.33683
280.31        46.35832
280.77        45.28124
281.22        44.10694
281.68        42.95993
282.13        41.95437
282.59        41.37338
283.04        41.18727
283.50        41.33469
283.95         41.6296
284.41        41.79438
284.86        41.73553
285.32        41.56313
285.77        41.33977
286.22        41.25544
286.68        41.34335
287.13        41.47416
287.59        41.61914
288.04        41.67745
288.50        41.65157
288.95         41.5458
289.41          41.377
289.86        41.06162
290.32        40.67539
290.77        40.24907
291.22        39.92226
291.68        39.87318
292.13        40.13616
292.59        40.70324
293.04        41.51832
293.50         42.5075
293.95        43.61752
294.40        44.85886
294.86        46.22745
295.31        47.70384
295.77        49.28207
296.22        50.92179
296.68        52.60028
297.13        54.27261
297.58        55.94324
298.04        57.62314
298.49        59.34127
298.95         61.1721
299.40        63.10049
299.85        65.10016
300.31        67.11555
300.76        69.02557
301.21        70.82285
301.67        72.57169
302.12        74.27908
302.58        76.06828
303.03        77.90826
303.48        79.79498
303.94        81.74815
304.39        83.70674
304.84        85.68987
305.30        87.72587
305.75        89.72346
306.20          91.653
306.66        93.52151
307.11        95.28063
307.57        96.99467
308.02        98.63357
308.47        100.2223
308.93        101.7598
309.38        103.2078
309.83        104.6489
310.29        106.0963
310.74        107.5292
311.19        108.8569
311.65        109.8992
312.10        110.6082
312.55        111.0416
313.00         111.392
313.46        111.9617
313.91        112.7879
314.36         113.817
314.82        114.8609
315.27        115.6308
315.72        116.0298
316.18        116.1782
316.63        116.2055
317.08        116.3729
317.53        116.7533
317.99        117.2551
318.44        117.7972
318.89        118.2148
319.35        118.4565
319.80        118.5877
320.25        118.6741
320.70        118.8163
321.16        119.0446
321.61        119.3706
322.06        119.7337
322.51        120.0522
322.97        120.2817
323.42        120.4355
323.87        120.6197
324.32        121.0322
324.78        121.6573
325.23        122.5287
325.68        123.3084
326.13        123.4568
326.59        122.8796
327.04         121.781
327.49        120.6579
327.94        120.3268
328.39        120.9686
328.85        122.3104
329.30        123.9827
329.75        125.0116
330.20        125.0861
330.66        124.4555
331.11        123.5889
331.56        123.1588
332.01        123.3863
332.46        124.0393
332.92        124.8424
333.37        125.5232
333.82        125.8859
334.27          126.09
334.72        126.2078
335.17        126.3212
335.63         126.475
336.08        126.6917
336.53        127.0181
336.98        127.6061
337.43        128.4624
337.88        129.5065
338.34        130.6064
338.79        131.6674
339.24        132.5487
339.69        133.2819
340.14        133.7358
340.59        133.7276
341.05        133.3134
341.50        132.5686
341.95        131.8554
342.40        131.7255
342.85        132.2903
343.30        133.3882
343.75        134.6918
344.20        135.6365
344.66        136.0507
345.11         136.094
345.56        135.9238
346.01        135.8061
346.46        135.8493
346.91        135.9682
347.36        136.1529
347.81        136.4138
348.26        136.7178
348.72        137.0492
349.17        137.3652
349.62         137.625
350.07        137.7997
350.52        137.9173
350.97        137.8411
351.42         137.372
351.87        136.5267
352.32        135.3922
352.77        134.3226
353.22        133.8242
353.67        133.9718
354.13        134.6142
354.58        135.3556
355.03        135.4839
355.48        134.8197
355.93        133.5636
356.38        132.1602
356.83        131.2849
357.28        131.0612
357.73        131.2455
358.18        131.4252
358.63        130.9465
359.08         129.671
359.53        127.8699
359.98        125.9062
360.43        124.2855
360.88        123.1429
361.33        122.3196
361.78        121.6582
362.23        120.9202
362.68        120.0345
363.13        119.0981
363.58        118.1655
364.03        117.2979
364.48        116.5002
364.93        115.7108
365.38        114.9077
365.83        114.0867
366.28         113.247
366.73        112.4078
367.18        111.5466
367.63        110.6161
368.08        109.6171
368.53         108.571
368.98        107.5471
369.43          106.65
369.88        105.9019
370.33        105.2758
370.78        104.6939
371.23        104.0335
371.68        103.2586
372.13        102.3886
372.58        101.5053
373.03         100.738
373.48        100.1025
373.93        99.55052
374.38        98.95676
374.83        98.13247
375.28        97.05617
375.72        95.79245
376.17        94.55581
376.62        93.54347
377.07        92.81911
377.52        92.34346
377.97        92.00853
378.42        91.65071
378.87        91.21786
379.32        90.71883
379.77        90.28509
380.22        90.10786
380.67        90.18787
381.11        90.48563
381.56        90.65083
382.01        90.21371
382.46        89.13265
382.91        87.63584
383.36        86.18326
383.81         85.4003
384.26        85.37638
384.71        85.89201
385.15         86.6132
385.60        86.95525
386.05        86.73875
386.50        86.13802
386.95        85.31267
387.40        84.52032
387.85        83.86369
388.29        83.21217
388.74        82.67229
389.19        82.17769
389.64        81.71552
390.09        81.32451
390.54        80.97572
390.98         80.5902
391.43        80.19566
391.88        79.78363
392.33        79.43362
392.78        79.19232
393.23        79.04301
393.67        79.11773
394.12        79.31878
394.57         78.8862
395.02        78.00568
395.47        77.78271
395.91        78.16936
396.36        78.10363
396.81        77.57874
397.26        77.22927
397.71         77.0663
398.15        76.83327
398.60         76.6228
399.05        76.32268
399.50        76.00269
399.95        76.04048
400.39        76.32658
400.84        76.11981
401.29        75.45785
401.74        75.06248
402.18        74.94894
402.63        74.54549
403.08        73.95248
403.53        73.63834
403.97        73.62217
404.42        73.71149
404.87        73.81123
405.32        73.77885
405.76        73.55875
406.21        73.33916
406.66        73.13156
407.11        72.73779
407.55        72.33585
408.00        72.35992
408.45        72.73784
408.90        73.04926
409.34        73.05384
409.79        72.45081
410.24        71.50815
410.68        71.03622
411.13        71.11964
411.58        71.30869
412.03        71.43036
412.47        71.39902
412.92        71.13503
413.37        70.71142
413.81        70.26906
414.26        70.07774
414.71        70.15874
415.15        70.45478
415.60        70.82942
416.05        71.12275
416.49         71.2714
416.94        71.31265
417.39        71.28644
417.83        71.24209
418.28         71.2057
418.73        71.14714
419.17        71.08805
419.62        71.07584
420.07        71.10748
420.51        71.15358
420.96        71.19337
421.41        71.12805
421.85        70.92482
422.30        70.70497
422.74        70.44585
423.19        70.19116
423.64        69.94684
424.08        69.77729
424.53        69.70857
424.98        69.78216
425.42        69.99911
425.87        70.35342
426.31        70.72493
426.76        70.77317
427.21        70.53056
427.65         70.3262
428.10        70.17825
428.54        70.04792
428.99        70.00623
429.44        69.70831
429.88        69.39064
430.33        70.13515
430.77        71.46529
431.22        71.94556
431.66        71.48251
432.11        70.72717
432.56        69.96661
433.00          69.815
433.45        70.53179
433.89        71.06115
434.34        70.54533
434.78        72.74526
435.23        71.24379
435.67        68.54385
436.12        69.74666
436.57          69.769
437.01        70.30811
437.46        70.56217
437.90        70.62136
438.35        69.73122
438.79        70.14291
439.24        70.06693
439.68         70.1276
440.13        70.39859
440.57        70.81917
441.02        70.87303
441.46        70.59292
441.91        70.89108
442.35        71.49826
442.80         71.3725
443.24        70.66115
443.69        70.67921
444.13        71.35383
444.58        71.65423
445.02        71.53143
445.47        71.55629
445.91        71.77305
446.36        71.97794
446.80        72.14302
447.24        72.50181
447.69        72.67949
448.13         72.7051
448.58        72.51411
449.02        72.26601
449.47        72.05895
449.91        71.87826
450.36        71.77573
450.80        71.85423
451.25        72.05611
451.69        71.99336
452.13        71.75201
452.58        71.83031
453.02         72.1758
453.47         72.3276
453.91        72.25085
454.36        72.16405
454.80         72.0882
455.24        71.98371
455.69        71.81964
456.13        71.55053
456.58        71.25954
457.02        70.74823
457.46        70.25401
457.91        70.51783
458.35        71.23132
458.79        71.27671
459.24        70.66939
459.68         69.8677
460.13        69.13348
460.57        68.94967
461.01        69.50851
461.46        69.22604
461.90        69.72424
462.34        71.05305
462.79         70.5088
463.23        70.68179
463.68        70.58385
464.12        70.26431
464.56        69.71564
465.01        69.00428
465.45        68.32594
465.89        68.11426
466.34        68.25027
466.78        68.53921
467.22         68.8371
467.67        68.01263
468.11        68.27344
468.55        68.25049
468.99        68.51611
469.44        68.50671
469.88        68.22687
470.32        67.98212
470.77        67.81312
471.21         67.6866
471.65        67.60419
472.10        67.58135
472.54        67.59614
472.98        67.57719
473.42        67.49644
473.87        67.52352
474.31        67.55039
474.75        67.16247
475.20        66.53069
475.64        66.37106
476.08        66.68025
476.52        66.69222
476.97        66.34174
477.41        66.34109
477.85        66.79509
478.29        66.13149
478.74        66.43678
479.18        66.83595
479.62        66.72443
480.06        66.78184
480.50        66.65306
480.95        66.47198
481.39        66.24632
481.83        66.26672
482.27        65.83459
482.72         66.4559
483.16        66.13495
483.60        66.24935
484.04        66.21741
484.48        66.48244
484.93        66.80892
485.37        66.14689
485.81          65.678
486.25        65.54375
486.69        65.28561
487.14        67.47932
487.58        66.86109
488.02        66.75226
488.46        65.52161
488.90         65.4175
489.34        66.62047
489.79        67.19711
490.23        66.54272
490.67         66.0049
491.11        65.62858
491.55        65.52692
491.99        65.64854
492.43        65.54172
492.88        65.20888
493.32         65.0531
493.76        65.10696
494.20        65.16825
494.64        65.21674
495.08        65.34151
495.52        65.48587
495.96        65.47286
496.41        65.31038
496.85        65.24053
497.29        65.18704
497.73        65.17212
498.17        64.46606
498.61        64.56678
499.05          65.118
499.49        65.34888
499.93        65.00362
500.37        64.95536
500.82         65.1377
501.26        65.12828
501.70        64.94754
502.14        64.89101
502.58        64.97498
503.02        65.04014
503.46        65.07948
503.90        65.17762
504.34        65.27876
504.78        65.24559
505.22        65.05034
505.66        64.77493
506.10        64.52041
506.54        64.31103
506.98        64.15148
507.42        64.55473
507.86         64.4918
508.30        64.60807
508.74        64.58481
509.18        64.48373
509.62        64.35109
510.06        64.28051
510.50        64.30392
510.94        64.37799
511.38         64.4706
511.82        64.53119
512.26        64.54622
512.70        64.54101
513.14        64.53085
513.58        64.53698
514.02         64.5683
514.46        64.60971
514.90        64.67002
515.34        64.76852
515.78        64.89506
516.22        65.03214
516.66        65.13728
517.10        65.14256
517.54        65.03799
517.98        64.85705
518.42        64.63146
518.86        64.41265
519.30         64.2298
519.74        64.07553
520.18        63.98449
520.62        64.00493
521.06        64.13622
521.50        64.36438
521.93        64.61824
522.37        64.75748
522.81        64.75478
523.25        64.63698
523.69        64.47623
524.13        64.39522
524.57        64.41644
525.01        64.49135
525.45        64.56203
525.89        64.53464
526.32        64.38687
526.76        64.18964
527.20        63.96611
527.64        63.76377
528.08        63.61071
528.52        63.45549
528.96         63.3606
529.40        63.50441
529.83        63.84235
530.27        64.16264
530.71        64.36918
531.15        64.47523
531.59        64.45341
532.03        64.23566
532.46         63.9057
532.90        63.71852
533.34        63.71638
533.78        63.70407
534.22         63.7929
534.66        63.81653
535.09        63.75939
535.53        63.52282
535.97        63.18312
536.41        63.00298
536.85        63.01343
537.28         63.0844
537.72        63.18135
538.16        63.29551
538.60        63.40278
539.04        63.50751
539.47        63.57829
539.91        63.60832
540.35        63.58362
540.79        63.50561
541.22        63.40935
541.66        63.37474
542.10        63.40965
542.54        63.49702
542.97        63.57575
543.41        63.57894
543.85        63.48448
544.29        63.32401
544.72        63.14745
545.16        63.06913
545.60        63.10111
546.04        63.21851
546.47        63.36972
546.91        63.48255
547.35        63.53188
547.79        63.48698
548.22         63.3898
548.66        63.42131
549.10        63.59687
549.53        63.56441
549.97        63.35518
550.41        63.14935
550.84        63.02118
551.28        63.01088
551.72        63.07958
552.15         63.1488
552.59        63.25533
553.03        63.04731
553.46        63.38479
553.90        63.39152
554.34        63.31895
554.77        63.19363
555.21        63.08728
555.65        63.11586
556.08        63.25947
556.52        63.37146
556.96        63.40596
557.39         63.5135
557.83        63.63922
558.27        63.42524
558.70        62.93784
559.14        62.70965
559.57        62.73306
560.01        62.57449
560.45        62.33581
560.88         62.5206
561.32        63.04062
561.75        63.43176
562.19          63.581
562.63        63.31085
563.06        62.78508
563.50        62.70396
563.93        62.98531
564.37        63.01182
564.80        62.79914
565.24        62.66234
565.68        62.49624
566.11        63.10075
566.55        62.51841
566.98        62.38209
567.42        62.23284
567.85        62.35612
568.29        62.74378
568.72        63.02168
569.16        63.15998
569.60        63.58138
570.03        63.31399
570.47        63.35747
570.90        63.55838
571.34        62.72767
571.77        63.32866
572.21        63.46095
572.64        63.66577
573.08        63.63049
573.51        63.30548
573.95        63.10222
574.38        63.28196
574.82        63.18863
575.25        63.29626
575.69        63.38063
576.12        63.16769
576.56        62.70698
576.99        62.61424
577.42        62.90284
577.86        62.86863
578.29        63.39341
578.73        63.55758
579.16        63.73041
579.60        63.22128
580.03        63.32386
580.47        62.96869
580.90        63.79968
581.33        63.36108
581.77        63.56863
582.20        63.02329
582.64        63.80207
583.07        63.62485
583.51        63.35197
583.94         63.1708
584.37        63.30004
584.81        63.76286
585.24        63.68283
585.68        63.16619
586.11        63.06825
586.54        63.37926
586.98        62.82476
587.41        62.61096
587.85        62.54016
588.28        62.49157
588.71        62.73877
589.15        62.33646
589.58         62.5295
590.01        62.53802
590.45        62.41304
590.88        63.44782
591.31        63.31674
591.75         62.6269
592.18        62.27511
592.61        62.39161
593.05        62.84599
593.48        62.94622
593.91         63.0107
594.35        63.17963
594.78        62.71009
595.21        61.93907
595.65        62.05781
596.08        63.17986
596.51        62.99673
596.94        62.76111
597.38        62.49041
597.81         62.5578
598.24        62.91476
598.68        62.58126
599.11        62.33205
599.54        62.82941
599.97        62.74785
600.41        62.57653
600.84        62.22723
601.27        62.70682
601.70        62.36562
602.14        62.74758
602.57          62.429
603.00        62.32192
603.43        61.81973
603.87         62.3916
604.30        62.60595
604.73        62.82864
605.16        62.25992
605.60        62.04074
606.03         61.6778
606.46        61.52117
606.89         61.7663
607.32        62.21134
607.76         61.8874
608.19        62.19581
608.62        62.05625
609.05         62.0158
609.48        61.89647
609.92        62.51587
610.35        62.38587
610.78         61.6526
611.21        61.84298
611.64        61.84303
612.07        62.13633
612.50        62.03432
612.94        62.08147
613.37        62.14898
613.80        61.99588
614.23        61.70285
614.66        61.49041
615.09        61.76561
615.52        61.92994
615.96        62.02025
616.39        62.07731
616.82        62.08805
617.25        61.90377
617.68        61.64886
618.11        61.68464
618.54        61.94775
618.97        61.98595
619.40        61.78853
619.84        61.51006
620.27        61.29402
620.70        61.40135
621.13         61.7233
621.56        61.43948
621.99        60.62215
622.42        60.40836
622.85        60.90421
623.28        60.52748
623.71        60.61618
624.14        60.90694
624.57        61.44742
625.00        61.13815
625.43        61.43523
625.86        61.27334
626.29        61.21259
626.72        60.74724
627.15        61.04906
627.58        61.08673
628.01        61.05282
628.44        61.24509
628.87        60.94475
629.30         60.5822
629.73        60.83585
630.16        60.84561
630.59        60.86202
631.02        61.01121
631.45         61.2645
631.88        61.38222
632.31        61.30699
632.74         61.4127
633.17        61.16497
633.60        61.04588
634.03        60.91465
634.46        60.77268
634.89        60.63301
635.32        60.54445
635.75         60.5235
636.18        60.49091
636.61        60.46199
637.04        60.49572
637.47        60.58613
637.89        60.70216
638.32        60.78338
638.75        60.79327
639.18        60.72079
639.61        60.58173
640.04        60.41869
640.47        60.30053
640.90        60.24884
641.33        60.25002
641.76        60.28638
642.18         60.3321
642.61        60.35713
643.04        60.37778
643.47         60.3995
643.90        60.43149
644.33        60.47057
644.76        60.50433
645.18        60.52291
645.61        60.49801
646.04        60.43768
646.47        60.36163
646.90        60.28028
647.33        60.21561
647.75        60.15269
648.18        60.09052
648.61        60.08957
649.04        60.12641
649.47        60.08585
649.89         60.6676
650.32        60.23764
650.75         60.1163
651.18        59.93455
651.61        60.01865
652.03        60.35037
652.46        60.64326
652.89        60.38032
653.32        60.64285
653.74         60.4534
654.17        59.79742
654.60        60.20884
655.03        60.06335
655.46        60.03689
655.88        59.60498
656.31        60.67907
656.74        60.09294
657.16        63.23242
657.59        66.63166
658.02        62.11962
658.45        61.47397
658.87        60.35788
659.30        60.49667
659.73         60.0185
660.15        61.10676
660.58        60.20361
661.01        60.12486
661.44        60.02934
661.86        59.81675
662.29        59.49498
662.72        59.92589
663.14        59.91447
663.57        59.89618
664.00        59.62476
664.42        59.64284
664.85          59.966
665.27         60.2909
665.70        60.48664
666.13        60.54602
666.55        60.44908
666.98        60.13242
667.41          59.688
667.83        59.66273
668.26         59.4783
668.69        59.58506
669.11         59.7499
669.54        59.89029
669.96        59.97707
670.39        60.04026
670.82        60.07522
671.24         60.0596
671.67        59.99995
672.09         59.8578
672.52        59.70229
672.94        59.75321
673.37        59.79314
673.80        59.97528
674.22         60.1674
674.65        60.23333
675.07        60.15592
675.50        59.97461
675.92        59.75045
676.35        59.56411
676.77        59.45034
677.20         59.3799
677.62        59.36333
678.05        59.41629
678.47        59.52569
678.90        59.69183
679.32        59.85055
679.75        59.90843
680.17         59.8452
680.60        59.68874
681.02        59.50963
681.45        59.43109
681.87        59.49544
682.30        59.62868
682.72        59.79224
683.15         59.9494
683.57        60.03623
684.00        59.94233
684.42        59.76622
684.85        59.68636
685.27        59.69574
685.70        60.19004
686.12        60.15886
686.54         60.2679
686.97        60.21671
687.39        60.05784
687.82        59.83399
688.24         59.7059
688.66         59.6297
689.09        59.61909
689.51        59.65299
689.94        59.73828
690.36        59.85081
690.78        59.91804
691.21        59.94176
691.63        59.97124
692.06        60.00974
692.48        60.03074
692.90        60.01201
693.33        59.94606
693.75        59.83466
694.17        59.65419
694.60        59.49048
695.02        59.49649
695.44         59.6705
695.87        59.95203
696.29          60.216
696.71        60.13989
697.14        59.79468
697.56        59.47629
697.98        59.54006
698.41        59.52952
698.83        59.52987
699.25        59.74602
699.68         60.0589
700.10        60.20237
700.52        60.10735
700.94        59.86926
701.37         59.6035
701.79        59.50272
702.21        59.60722
702.64        59.83647
703.06        60.10857
703.48        60.27644
703.90         60.2941
704.33        60.21391
704.75        60.07032
705.17        59.90782
705.59        59.75773
706.01        59.60675
706.44        59.49374
706.86        59.49778
707.28        59.61781
707.70         59.8434
708.12        60.11173
708.55        60.28968
708.97        60.35557
709.39         60.3649
709.81        60.34669
710.23        60.33045
710.66        60.32972
711.08        60.36197
711.50        60.36726
711.92        60.26119
712.34        60.04197
712.76        59.75385
713.19        59.47685
713.61        59.37565
714.03        59.47556
714.45        59.72134
714.87        60.03494
715.29        60.32015
715.71        60.53629
716.13        60.60532
716.56        60.68169
716.98        60.72461
717.40        60.76649
717.82        60.78644
718.24        60.75011
718.66        60.60426
719.08         60.3591
719.50        60.06276
719.92        59.79891
720.34        59.68541
720.76        59.74429
721.19        59.91628
721.61        60.16735
722.03        60.39334
722.45        60.54544
722.87        60.64072
723.29        60.65195
723.71        60.54191
724.13        60.32295
724.55        60.01495
724.97        59.69815
725.39         59.5132
725.81        59.49857
726.23        59.60188
726.65        59.76497
727.07        60.01955
727.49         60.1159
727.91        60.24817
728.33        60.36356
728.75        60.49024
729.17         60.6251
729.59        60.73959
730.01        60.81967
730.43        60.84957
730.85        60.82341
731.27        60.75173
731.69        60.63406
732.10        60.46456
732.52        60.25468
732.94         60.0316
733.36         59.8514
733.78        59.68917
734.20        59.54828
734.62        59.64312
735.04        60.01989
735.46        59.63102
735.88        60.22903
736.30        60.38107
736.72        60.58201
737.13        60.74153
737.55        60.80624
737.97        60.86445
738.39        60.87616
738.81        60.66224
739.23        60.31377
739.65        60.26006
740.06        60.46744
740.48        60.58312
740.90        60.56946
741.32        60.65423
741.74        60.82533
742.16         60.9364
742.57        60.97232
742.99        60.95631
743.41        60.90107
743.83         60.8129
744.25        60.70231
744.67        60.55951
745.08        60.43731
745.50        60.39785
745.92        60.45859
746.34        60.60029
746.75        60.74742
747.17        60.76168
747.59        60.62254
748.01         60.3752
748.42        60.10847
748.84        59.96467
749.26         59.9786
749.68        60.10176
750.09        60.27119
750.51        60.38229
750.93        60.40303
751.35        60.38912
751.76        60.33253
752.18        60.21325
752.60        60.03519
753.01        59.82473
753.43        59.61174
753.85        59.46167
754.27        59.39933
754.68        59.45533
755.10        59.59326
755.52        59.66397
755.93        59.67593
756.35         59.8169
756.77         60.0989
757.18        60.26306
757.60        60.27625
758.02        60.46778
758.43        60.82233
758.85        60.21825
759.26        60.34102
759.68        59.98884
760.10        59.88446
760.51        59.84061
760.93        59.92778
761.34          60.159
761.76        60.45161
762.18        60.69547
762.59        60.85438
763.01        60.80617
763.42        60.64517
763.84         60.5384
764.26        60.53905
764.67        60.50629
765.09        60.47418
765.50        60.42588
765.92        60.39536
766.33        60.43799
766.75        60.44978
767.16        60.30156
767.58         59.9995
768.00         59.7109
768.41        59.58148
768.83        59.83715
769.24        60.33738
769.66        60.61028
770.07         60.5789
770.49        60.35383
770.90        60.09196
771.32        60.26948
771.73          60.808
772.15        60.98098
772.56        60.76428
772.97         60.5855
773.39        60.52272
773.80        60.50051
774.22        60.51569
774.63        60.63549
775.05        60.75968
775.46        60.78819
775.88        60.67218
776.29        60.46853
776.70         60.2536
777.12        60.17163
777.53        60.26585
777.95        60.45807
778.36        60.69476
778.77        60.85105
779.19        60.90423
779.60        60.90622
780.02        60.85928
780.43        60.83654
780.84        60.87334
781.26        60.70905
781.67        60.46769
782.09        60.85484
782.50         61.6442
782.91        61.61526
783.33        60.83632
783.74        60.51328
784.15        60.70794
784.57        60.72076
784.98        60.58373
785.39        60.66144
785.81        60.95575
786.22        61.36032
786.63        61.76008
787.04        61.97111
787.46        61.95911
787.87        61.76437
788.28        61.49926
788.70        61.30124
789.11         61.1931
789.52        61.21351
789.93        61.30074
790.35        61.22427
790.76        61.02233
791.17        60.99089
791.58        61.14153
792.00        61.18351
792.41        61.11225
792.82        61.21339
793.23        61.40677
793.65        61.20773
794.06        60.80069
794.47        60.90559
794.88        61.34776
795.29        61.91914
795.71        61.35823
796.12        61.14142
796.53        61.02103
796.94        60.98976
797.35        61.07817
797.76        61.31006
798.18        61.59539
798.59        61.79181
799.00        61.84034
799.41        61.77424
799.82        61.65837
800.23        61.61049
800.64        61.65797
801.06        61.73191
801.47        61.82309
801.88        61.83432
802.29        61.74048
802.70        61.58632
803.11        61.40911
803.52        61.24151
803.93        61.11287
804.34        61.10049
804.75         61.0773
805.17          61.197
805.58         61.4467
805.99        61.69083
806.40        61.90512
806.81        62.29746
807.22        62.72204
807.63        62.61849
808.04        62.08742
808.45        61.79248
808.86        61.80786
809.27        61.80311
809.68        61.72568
810.09        61.64811
810.50        61.56176
810.91        61.44654
811.32         61.3877
811.73        61.51466
812.14        61.83773
812.55        62.31823
812.96        62.77599
813.37         62.8803
813.78        62.55636
814.19        61.92925
814.60        61.23204
815.01        60.78256
815.42        60.65048
815.83        60.74898
816.24        60.97747
816.65        61.13707
817.05        61.15704
817.46        61.08374
817.87        60.98431
818.28        60.90956
818.69         60.8858
819.10        60.87999
819.51        60.92406
819.92        61.08662
820.33        61.36388
820.74        61.72307
821.14        62.08481
821.55        62.31704
821.96        62.38393
822.37        62.31592
822.78        62.15247
823.19        61.96947
823.60        61.80308
824.00        61.65981
824.41        61.50987
824.82         61.3968
825.23        61.32241
825.64        61.28949
826.04        61.29297
826.45        61.27669
826.86        61.24147
827.27        61.21318
827.68        61.17839
828.08        61.13975
828.49        61.05963
828.90        60.94777
829.31         60.8901
829.72        61.03358
830.12        61.41434
830.53        61.93149
830.94        62.42038
831.35        62.55679
831.75        62.27863
832.16        61.67345
832.57        60.96401
832.97        60.48506
833.38        60.34237
833.79        60.43323
834.20        60.68098
834.60        60.95649
835.01        61.20555
835.42         61.5009
835.82         61.8034
836.23        61.96779
836.64        61.99024
837.04        61.85704
837.45        61.71889
837.86        61.89556
838.26        62.45691
838.67        63.27319
839.08        64.04417
839.48        64.19431
839.89        63.59678
840.29        62.48538
840.70         61.3461
841.11        60.71251
841.51         60.7232
841.92        61.18835
842.33        61.93459
842.73        62.64722
843.14        63.08582
843.54        63.38082
843.95        63.52126
844.35        63.54885
844.76        63.47202
845.17        63.25255
845.57        62.95202
845.98        62.66588
846.38        62.45088
846.79        62.30619
847.19        62.20028
847.60        62.04401
848.00        61.83106
848.41         61.5659
848.81        61.34173
849.22        61.23694
849.62        61.30227
850.03        61.49309
850.43        61.71625
850.84        61.76337
851.24        61.62859
851.65        61.31578
852.05        61.03381
852.46        61.05511
852.86        61.43112
853.27        62.03561
853.67        62.60345
854.07        62.87726
854.48        62.77942
854.88        62.42026
855.29        61.86851
855.69        61.36848
856.10        60.96896
856.50        60.68998
856.90        60.50114
857.31        60.36559
857.71        60.31333
858.12          60.303
858.52        60.38757
858.92        60.53752
859.33        60.71248
859.73        60.94275
860.13        61.09151
860.54        60.96552
860.94        60.58234
861.34        59.99402
861.75        59.41089
862.15        59.21862
862.55        59.48563
862.96        60.06733
863.36        60.79642
863.76        61.30135
864.17        61.43963
864.57         61.3428
864.97        61.03573
865.38        60.57396
865.78        60.03888
866.18        59.40487
866.58        58.82479
866.99        58.57759
867.39        58.74698
867.79        59.26535
868.19        59.92864
868.60        60.38521
869.00        60.56691
869.40        60.52562
869.80        60.38249
870.21        60.37867
870.61        60.62933
871.01        60.98977
871.41        61.27905
871.81        61.25831
872.22        60.88184
872.62        60.22371
873.02        59.48579
873.42        59.00336
873.82        58.87817
874.22         59.0267
874.63        59.22799
875.03        59.14342
875.43        58.69249
875.83        58.00531
876.23        57.32427
876.63        57.01355
877.03        57.16114
877.44        57.62226
877.84        58.20741
878.24        58.63119
878.64        58.73714
879.04        58.44144
879.44        57.99321
879.84        57.90656
880.24        58.23765
880.64        58.77537
881.04        59.21007
881.44        59.07874
881.84        58.30122
882.24        57.08165
882.65        55.81186
883.05        55.07781
883.45        55.04196
883.85          55.545
884.25        56.34235
884.65        57.00338
885.05        57.36407
885.45        57.52933
885.85        57.60399
886.25         57.7556
886.65        58.02905
887.05         58.3435
887.45         58.6077
887.85        58.69925
888.25        58.58917
888.65        58.33031
889.04        58.03341
889.44        57.88465
889.84        57.91101
890.24        58.06138
890.64        58.21794
891.04        58.18645
891.44         57.9338
891.84        57.54994
892.24        57.15321
892.64        56.90842
893.04        56.86891
893.44        56.99424
893.83        57.25931
894.23        57.57333
894.63        57.90782
895.03        58.25108
895.43        58.60011
895.83        58.95689
896.23         59.2906
896.63        59.56261
897.02        59.67475
897.42        59.51444
897.82        59.08435
898.22        58.47671
898.62        57.82598
899.01        57.31463
899.41        57.01979
899.81        56.89289
900.21        56.92892
900.61        57.11071
901.00        57.39376
901.40        57.75029
901.80        58.08625
902.20        58.24898
902.59        58.21187
902.99        58.01786
903.39        57.71129
903.79        57.37577
904.18         57.0612
904.58        56.76226
904.98        56.59289
905.38         56.7277
905.77        57.17447
906.17        57.89101
906.57        58.63599
906.96        58.99971
907.36        58.86851
907.76        58.36408
908.15        57.77705
908.55        57.56138
908.95        57.83478
909.34        58.46146
909.74        59.15711
910.14        59.53569
910.53        59.45602
910.93        59.06876
911.33        58.51065
911.72        57.97149
912.12        57.58934
912.52        57.32094
912.91        57.14437
913.31        57.04228
913.70        57.01065
914.10        57.03379
914.49        57.21609
914.89        57.64679
915.29        58.32331
915.68        59.18734
916.08        59.94223
916.47        60.16903
916.87        59.79768
917.26        58.94543
917.66        57.99839
918.05        57.41285
918.45        57.30704
918.84         57.6066
919.24        58.04958
919.64        58.28839
920.03        58.23251
920.42        57.97125
920.82        57.75382
921.21        57.90932
921.61        58.48344
922.00        59.36847
922.40        60.27009
922.79        60.80653
923.19        60.82191
923.58        60.46852
923.98        59.94141
924.37        59.47631
924.77        59.16802
925.16        58.90276
925.55        58.70539
925.95        58.60558
926.34         58.6031
926.74        58.70124
927.13        58.74194
927.52        58.38879
927.92        57.66217
928.31        56.68464
928.70        55.76829
929.10        55.36668
929.49        55.56144
929.89        56.15353
930.28        57.03315
930.67        57.89959
931.07        58.57142
931.46        59.17771
931.85        59.50082
932.24        59.24957
932.64        58.47145
933.03         57.2412
933.42        56.05805
933.82        55.65491
934.21        56.17126
934.60        57.45612
934.99        59.01974
935.39        59.94643
935.78        59.98952
936.17        59.32072
936.56        58.38713
936.96        57.90257
937.35        58.04985
937.74        58.59936
938.13        59.17398
938.53        59.21445
938.92        58.61201
939.31        57.61222
939.70        56.57168
940.09          55.971
940.49        55.89563
940.88        56.21117
941.27        56.72255
941.66        57.07326
942.05        57.14287
942.44        57.07264
942.84        56.95056
943.23        56.89481
943.62        56.95423
944.01        57.02583
944.40         57.1694
944.79        57.51592
945.18        58.03841
945.57         58.6872
945.97        59.15684
946.36        59.02098
946.75        58.18956
947.14        56.89336
947.53        55.50769
947.92        54.55805
948.31        54.18176
948.70        54.22947
949.09        54.60693
949.48        55.13237
949.87        55.69506
950.26        56.33994
950.65        56.93232
951.04         57.2499
951.43        57.24303
951.82        56.92651
952.21        56.48416
952.60        56.25175
952.99        56.32607
953.38        56.64272
953.77        57.04224
954.16        57.26323
954.55        57.22904
954.94        56.98647
955.33        56.70425
955.72        56.66938
956.11        56.94657
956.50        57.45976
956.89        57.89503
957.28        57.73931
957.66        56.90343
958.05        55.61816
958.44         54.3435
958.83        53.72757
959.22        53.88503
959.61        54.62427
960.00        55.55629
960.39        55.96159
960.78        55.61876
961.16        54.76485
961.55        53.78358
961.94        53.15802
962.33        53.02982
962.72        53.28008
963.11        53.74284
963.49        54.13729
963.88        54.27804
964.27        54.22436
964.66        54.19565
965.04         54.5475
965.43         55.2827
965.82        56.33569
966.21        57.22153
966.60        57.05499
966.98        55.66851
967.37        53.50393
967.76        51.37951
968.15        50.29791
968.53        50.43213
968.92        51.53519
969.31        53.08627
969.69          54.016
970.08        53.88208
970.47        53.02323
970.86        52.05299
971.24         51.8532
971.63        52.61167
972.02        54.05416
972.40        55.69166
972.79        56.36161
973.17        55.78164
973.56        54.40474
973.95        52.87626
974.33        52.00136
974.72        51.96661
975.11        52.48254
975.49        53.36031
975.88        54.19502
976.26        54.79473
976.65        55.22307
977.04        55.39178
977.42        55.12785
977.81        54.42044
978.19        53.31778
978.58        52.18127
978.96        51.56403
979.35        51.60487
979.74         52.2022
980.12        53.16261
980.51        53.88812
980.89        54.27177
981.28        54.40725
981.66        54.46036
982.05        54.65255
982.43        55.05793
982.82         55.5578
983.20        56.15066
983.59         56.7767
983.97        57.44114
984.35        58.14186
984.74        58.65731
985.12        58.84992
985.51        58.62659
985.89        58.05414
986.28        57.42355
986.66        57.09018
987.04        57.19629
987.43        57.64691
987.81        58.19461
988.20        58.27911
988.58        57.77308
988.96        56.78814
989.35        55.72496
989.73        55.15977
990.12         55.1791
990.50         55.6594
990.88        56.12943
991.27        55.79472
991.65        54.51413
992.03         52.6131
992.42        50.79497
992.80        49.98477
993.18        50.37509
993.56        51.74637
993.95        53.44717
994.33        54.37192
994.71        54.05355
995.10        52.89183
995.48        51.58562
995.86        51.25467
996.24        52.14914
996.63        53.83945
997.01        55.86515
997.39        56.99552
997.77        56.75419
998.15        55.65263
998.54        54.12418
998.92        52.67082
999.30        51.59771
999.68         50.7537
1000.06        50.44533
1000.45        51.10835
1000.83        52.83557
1001.21        55.58571
1001.59        58.77732
1001.97         60.8476
1002.35        61.15778
1002.73         60.1584
1003.12        58.60931
1003.50        57.43075
1003.88        56.97282
1004.26        56.79021
1004.64        57.08486
1005.02        58.20416
1005.40        60.02142
1005.78        62.54377
1006.16        64.49796
1006.54        63.86309
1006.92        60.53286
1007.30        55.29692
1007.69        50.09736
1008.07        47.53904
1008.45         48.3469
1008.83        51.93711
1009.21        57.06259
1009.59        60.52859
1009.97        60.75314
1010.35        58.67124
1010.73        55.43545
1011.11        52.73382
1011.49        51.16338
1011.86        50.19043
1012.24        49.78601
1012.62        50.01953
1013.00        50.82237
1013.38        52.31318
1013.76        54.25566
1014.14        55.78468
1014.52        56.39512
1014.90         56.1419
1015.28        55.26098
1015.66        54.22107
1016.04        53.19371
1016.41        52.07253
1016.79        50.97256
1017.17        50.18248
1017.55        49.79932
1017.93        49.80655
1018.31        50.03325
1018.69        50.16696
1019.06        50.11456
1019.44        49.95633
1019.82        49.68627
1020.20          49.379
1020.58         49.0718
1020.95        48.63713
1021.33        48.29379
1021.71        48.21994
1022.09        48.44284
1022.46        49.09443
1022.84        49.75685
1023.22        49.42921
1023.60        47.92727
1023.97        45.53213
1024.35        43.67603
1024.73        43.89303
