SpectraSmart Spectrum 2.9.0.0
--------- Device Information -----------
Spectrum Name :  反射率_0
Saving Time :  2024/04/26 22:38:14
Spectro-Module Model Name : SE2030-DUVN
Spectro-Module Serial Number : OS361AC55029948
Wavelength Start : 200
Wavelength End : 1025
Wavelength Unit : Wavelength(nm)
Spectrum Unit : Reflectance(%)
-----------Spectrum Setting ------------
Integration Time : 20ms
Average : 10
Boxcar : 0
Background removal :  enabled
linearity correction :  enabled
SC :  disabled
Intensity correction :  disabled
DWT denoise :  enabled
savitzky-golay :  disabled
FFT :  disabled
Running average :  disabled
Kalman :  disabled
High pass :  disabled
---------------BEGIN--------------------
Wavelength(nm)             Reflectance(%)
200.29               0
200.75        65.74649
201.21        53.56688
201.67        43.05084
202.13        37.72523
202.58        37.43736
203.04        41.46861
203.50        49.26258
203.96        57.48501
204.42        63.24656
204.88        66.77221
205.34         68.3425
205.80        69.65456
206.26        71.14046
206.72        71.26167
207.18        70.69585
207.64        70.46018
208.10        70.73666
208.55        72.54361
209.01        74.21534
209.47        71.69228
209.93        65.50639
210.39        59.34718
210.85        56.04877
211.31        56.93305
211.77        62.58931
212.23        77.18896
212.69        114.1639
213.14        173.8654
213.60        165.5429
214.06        119.5398
214.52        89.67298
214.98        76.17488
215.44        70.09163
215.90        66.26682
216.36        64.44262
216.81        65.18923
217.27        69.00718
217.73        77.83399
218.19        90.05634
218.65        93.86967
219.11        85.56279
219.57        72.97613
220.02        64.26945
220.48         63.5955
220.94        69.81091
221.40        83.08847
221.86        101.8426
222.32        110.7277
222.77        99.17094
223.23        78.97311
223.69        61.11841
224.15        50.90108
224.61        46.58112
225.06        45.01923
225.52        44.96974
225.98        45.14509
226.44        45.17023
226.90        45.44937
227.36        45.57717
227.81         44.8294
228.27        43.33638
228.73        41.23648
229.19        39.40143
229.65        38.85576
230.10         39.5771
230.56        41.26977
231.02        42.96616
231.48        43.13268
231.93        41.57933
232.39        39.18247
232.85        37.01027
233.31        36.48258
233.77        37.69257
234.22         40.1187
234.68        42.89102
235.14        44.76124
235.60        45.35537
236.05        45.07996
236.51        44.31411
236.97        43.86636
237.43        44.14801
237.88        44.95087
238.34        46.23905
238.80        48.26761
239.26        51.24129
239.71        55.82132
240.17        61.76165
240.63        67.93107
241.08        73.38548
241.54        77.27702
242.00        80.68564
242.46        86.95634
242.91        99.09581
243.37        118.6622
243.83        147.0225
244.28        174.0237
244.74        181.4473
245.20        167.2281
245.66         144.799
246.11        127.4867
246.57        116.8891
247.03        109.1682
247.48        102.4635
247.94          95.533
248.40        89.63315
248.85        85.82884
249.31        83.60491
249.77        81.14661
250.22        77.69294
250.68         72.6357
251.14         66.9493
251.59        64.89162
252.05        68.83237
252.51        76.93733
252.96         84.1944
253.42        86.72298
253.88        85.01057
254.33        80.52525
254.79        77.44951
255.25         79.0909
255.70        84.87862
256.16        93.28635
256.62        99.84614
257.07        98.26682
257.53        90.81192
257.99        81.78603
258.44        74.45042
258.90        71.56197
259.35        71.66573
259.81        73.56958
260.27        75.44402
260.72        75.18996
261.18        73.09634
261.63        69.89605
262.09         67.0638
262.55        65.52248
263.00        65.08363
263.46        65.36364
263.91        65.44616
264.37        64.58069
264.83        62.70613
265.28        60.23059
265.74        57.91256
266.19        56.30964
266.65        55.56708
267.11         55.3302
267.56        55.25355
268.02        54.82616
268.47         53.9025
268.93        52.69392
269.38        51.34579
269.84        50.13323
270.30        49.10961
270.75          48.158
271.21        47.26122
271.66         46.3365
272.12        45.36777
272.57        44.37924
273.03        43.36409
273.48        42.28878
273.94        41.22674
274.39        40.15899
274.85        39.22095
275.31        38.44709
275.76        37.81118
276.22        37.33259
276.67        36.89578
277.13        36.43948
277.58        35.88562
278.04        35.26617
278.49        34.59414
278.95        34.01975
279.40         33.5071
279.86        33.09412
280.31        32.61492
280.77        31.94522
281.22        31.06206
281.68        30.11469
282.13         29.2627
282.59        28.80759
283.04        28.74722
283.50         28.9939
283.95         29.3656
284.41        29.58076
284.86        29.55619
285.32        29.40762
285.77        29.21548
286.22        29.16561
286.68        29.29412
287.13        29.48311
287.59        29.71125
288.04        29.90403
288.50        30.05464
288.95        30.16978
289.41        30.22466
289.86        30.10232
290.32        29.85671
290.77        29.52772
291.22        29.28416
291.68        29.35885
292.13        29.79358
292.59        30.55386
293.04        31.52345
293.50        32.52556
293.95        33.49956
294.40        34.50434
294.86        35.61351
295.31        36.93206
295.77        38.48519
296.22        40.19639
296.68         42.0111
297.13        43.83804
297.58        45.65776
298.04        47.50168
298.49        49.37009
298.95         51.2849
299.40        53.23233
299.85        55.19419
300.31        57.18622
300.76        59.21124
301.21        61.27583
301.67        63.40165
302.12        65.51024
302.58        67.57623
303.03        69.55104
303.48          71.486
303.94        73.47178
304.39        75.56735
304.84        77.81028
305.30        80.16944
305.75        82.53207
306.20        84.82799
306.66         87.0379
307.11        89.13793
307.57        91.13358
308.02        92.91181
308.47        94.50253
308.93         95.9386
309.38        97.31132
309.83        98.89578
310.29        100.7407
310.74        102.7681
311.19        104.7546
311.65        106.2959
312.10        107.2777
312.55        107.8156
313.00        108.2029
313.46        108.9038
313.91        109.9966
314.36        111.3727
314.82        112.7665
315.27        113.7635
315.72        114.2376
316.18        114.3641
316.63        114.3448
317.08        114.5443
317.53        115.0654
317.99        115.7804
318.44        116.5702
318.89        117.2104
319.35        117.6213
319.80        117.8791
320.25         118.053
320.70        118.2492
321.16        118.5031
321.61        118.8269
322.06        119.1573
322.51          119.41
322.97        119.5547
323.42        119.6236
323.87        119.7595
324.32        120.2136
324.78        120.9799
325.23        122.0676
325.68        123.1123
326.13        123.5222
326.59        123.1677
327.04        122.2549
327.49        121.2486
327.94        120.9238
328.39        121.4653
328.85        122.6142
329.30        124.0682
329.75        124.9784
330.20        125.0771
330.66        124.5874
331.11        123.9238
331.56        123.6644
332.01        123.9916
332.46        124.6857
332.92        125.4843
333.37        126.1402
333.82        126.4698
334.27        126.6339
334.72        126.6786
335.17        126.6465
335.63         126.592
336.08        126.5631
336.53        126.7075
336.98        127.3342
337.43        128.4777
337.88        130.0063
338.34        131.6499
338.79        133.0756
339.24         134.065
339.69        134.7053
340.14        134.9634
340.59        134.8277
341.05        134.4143
341.50        133.7533
341.95        133.1636
342.40        133.1318
342.85        133.7519
343.30        134.8889
343.75        136.2491
344.20        137.3127
344.66        137.9075
345.11        138.1615
345.56         138.176
346.01        138.1345
346.46        138.1362
346.91        138.1407
347.36        138.1851
347.81        138.3524
348.26        138.6358
348.72        138.9904
349.17        139.3955
349.62        139.8442
350.07        140.2935
350.52        140.7583
350.97        140.9967
351.42        140.6376
351.87        139.6726
352.32        138.2479
352.77        136.8552
353.22         136.212
353.67        136.4405
354.13        137.3267
354.58        138.3854
355.03        138.7443
355.48        138.1747
355.93        136.9386
356.38        135.5251
356.83        134.6747
357.28        134.5383
357.73        134.8448
358.18        135.1918
358.63        134.9488
359.08        133.9603
359.53        132.4741
359.98        130.8043
360.43        129.3844
360.88        128.3332
361.33        127.5148
361.78         126.782
362.23        125.9203
362.68         124.878
363.13        123.7477
363.58         122.633
364.03        121.6661
364.48        120.8638
364.93        120.1575
365.38        119.4492
365.83        118.6028
366.28        117.5971
366.73        116.4975
367.18        115.3883
367.63        114.3903
368.08        113.5381
368.53         112.794
368.98        112.1278
369.43        111.4874
369.88        110.8469
370.33        110.2191
370.78         109.584
371.23        108.9172
371.68        108.2116
372.13        107.4518
372.58        106.6743
373.03        105.9427
373.48        105.2585
373.93        104.6027
374.38        103.8965
374.83        103.0189
375.28        101.9654
375.72        100.7771
376.17        99.63074
376.62         98.6612
377.07         97.9207
377.52        97.39396
377.97        97.00394
378.42        96.63692
378.87        96.25019
379.32        95.82488
379.77        95.47526
380.22        95.37189
380.67        95.50448
381.11        95.84323
381.56        96.01382
382.01        95.51087
382.46        94.29982
382.91        92.63471
383.36        91.02462
383.81        90.16266
384.26        90.14812
384.71        90.73467
385.15        91.56812
385.60        92.02367
386.05        91.89964
386.50        91.38129
386.95        90.59716
387.40        89.75871
387.85        88.97845
388.29        88.14606
388.74        87.43967
389.19        86.88895
389.64        86.48318
390.09        86.20551
390.54        85.98824
390.98        85.68446
391.43        85.31421
391.88        84.91595
392.33        84.51646
392.78        84.15532
393.23        83.84551
393.67        83.52172
394.12        83.29207
394.57        83.16141
395.02        83.11239
395.47        83.10191
395.91        83.06712
396.36        82.87173
396.81        82.53629
397.26        82.13143
397.71        81.68984
398.15        81.30768
398.60         81.1105
399.05        80.73979
399.50         80.3243
399.95        80.64295
400.39        81.43205
400.84        81.21808
401.29        80.09052
401.74         79.4695
402.18        79.45695
402.63        79.20634
403.08        78.76513
403.53        78.56419
403.97        78.60342
404.42        78.76855
404.87        78.93394
405.32        78.87616
405.76        78.55082
406.21        78.12266
406.66        77.69166
407.11        77.37285
407.55        77.30121
408.00        77.43315
408.45        77.69822
408.90        78.18195
409.34        78.55834
409.79        77.94345
410.24        76.65224
410.68        75.97079
411.13        76.01284
411.58        76.09564
412.03        76.06442
412.47        75.97319
412.92        75.75405
413.37        75.44624
413.81        75.15352
414.26        75.09281
414.71        75.26722
415.15        75.63426
415.60        76.05532
416.05        76.37397
416.49        76.52728
416.94        76.54441
417.39        76.47425
417.83         76.3787
418.28        76.29366
418.73        76.20295
419.17        76.11607
419.62        76.05544
420.07        76.01258
420.51        75.96066
420.96        75.93594
421.41        75.88509
421.85        75.77264
422.30        75.80507
422.74        75.84119
423.19          75.534
423.64        74.96985
424.08        74.77327
424.53         74.9879
424.98         75.1881
425.42         75.3595
425.87        75.84718
426.31        76.46676
426.76        76.49118
427.21        75.98505
427.65        75.65025
428.10        75.55152
428.54        75.40913
428.99        75.30164
429.44        75.12963
429.88        75.03521
430.33        75.66543
430.77        76.63432
431.22        77.04942
431.66        76.80846
432.11        76.13453
432.56        75.36536
433.00        75.34398
433.45        76.14905
433.89        76.86582
434.34        76.89923
434.78        77.81435
435.23        76.86823
435.67        75.61413
436.12        75.40321
436.57        75.46005
437.01        76.02283
437.46         76.5933
437.90         76.5918
438.35        75.22517
438.79        75.99948
439.24        75.93938
439.68        76.07992
440.13        76.52515
440.57         77.1627
441.02        77.25956
441.46        76.86831
441.91        77.12384
442.35        77.78741
442.80        77.80181
443.24        77.27475
443.69        77.40333
444.13        78.08775
444.58         78.3901
445.02        78.26376
445.47        78.19742
445.91         78.2718
446.36        78.41924
446.80        78.63169
447.24        78.96073
447.69        79.34444
448.13        79.39358
448.58        79.50246
449.02        79.43125
449.47        79.33456
449.91        79.17612
450.36        79.00866
450.80        78.83041
451.25        78.71341
451.69        78.69817
452.13         78.8053
452.58        79.01418
453.02        79.24028
453.47        79.35212
453.91        79.30035
454.36        79.12284
454.80        78.87103
455.24        78.55857
455.69        78.20586
456.13        78.01165
456.58        77.99836
457.02        77.44534
457.46        76.59444
457.91        77.15656
458.35        77.77512
458.79        77.85385
459.24         77.1097
459.68        76.14227
460.13        75.24899
460.57        75.11989
461.01        75.42496
461.46        75.35296
461.90        75.93641
462.34         77.1108
462.79        76.88006
463.23        77.10014
463.68        77.02073
464.12        76.76016
464.56        76.27065
465.01        75.36754
465.45        74.31149
465.89        73.95968
466.34        74.20738
466.78        74.40092
467.22        74.53373
467.67        74.05248
468.11        74.55256
468.55        74.60789
468.99        74.63213
469.44        74.50732
469.88        74.25187
470.32        73.91426
470.77        73.57946
471.21        73.39569
471.65        73.38494
472.10        73.51907
472.54        73.68729
472.98        73.71187
473.42        73.55552
473.87        73.31724
474.31        73.00462
474.75        72.66685
475.20         72.4171
475.64        72.13339
476.08         72.4723
476.52        72.39021
476.97        71.98701
477.41        72.23735
477.85        72.39075
478.29        71.72028
478.74        72.29374
479.18        72.65273
479.62        72.48001
480.06         72.4585
480.50        72.26807
480.95        72.24257
481.39        72.45123
481.83        71.66045
482.27        71.89342
482.72        72.39676
483.16        71.99229
483.60        72.09187
484.04         72.1923
484.48        72.49715
484.93        72.52335
485.37        72.38293
485.81        71.20083
486.25        70.44122
486.69        70.38079
487.14        73.06048
487.58        73.36593
488.02        72.51397
488.46        71.51481
488.90        70.58707
489.34        72.03448
489.79        72.70721
490.23        72.38734
490.67        71.82798
491.11         71.1358
491.55        70.92783
491.99        71.15856
492.43        71.06229
492.88        70.63924
493.32        70.47042
493.76        70.58977
494.20        70.72646
494.64        70.85845
495.08        71.05964
495.52        71.25077
495.96        71.32431
496.41        71.24574
496.85        71.00977
497.29        70.63481
497.73        70.59857
498.17        70.07537
498.61        70.25049
499.05        70.70284
499.49        70.86117
499.93        70.46706
500.37        70.34013
500.82        70.44576
501.26        70.47224
501.70        70.42089
502.14        70.46364
502.58        70.59589
503.02         70.7132
503.46        70.79974
503.90         70.8935
504.34        70.94654
504.78        70.87168
505.22        70.65845
505.66        70.35624
506.10        70.08364
506.54        69.92567
506.98         69.8943
507.42           70.29
507.86        70.53756
508.30        70.52318
508.74        70.60753
509.18        70.41233
509.62        70.18266
510.06          70.046
510.50        70.04882
510.94        70.13271
511.38        70.24283
511.82        70.30783
512.26        70.30459
512.70        70.26756
513.14        70.21908
513.58        70.18965
514.02        70.19138
514.46        70.20522
514.90         70.2367
515.34        70.30069
515.78         70.3886
516.22        70.48979
516.66        70.56767
517.10        70.56208
517.54        70.46545
517.98        70.30648
518.42        70.11871
518.86        69.95662
519.30        69.84441
519.74        69.76898
520.18         69.7467
520.62        69.79945
521.06        69.92076
521.50        70.10249
521.93        70.29267
522.37        70.38207
522.81        70.35576
523.25        70.23821
523.69        70.08771
524.13        70.00154
524.57        70.00053
525.01        70.04817
525.45         70.1077
525.89        70.11815
526.32        70.05488
526.76        69.96506
527.20        69.84643
527.64        69.70061
528.08        69.53877
528.52        69.35541
528.96        69.20309
529.40        69.16444
529.83        69.24547
530.27        69.43314
530.71        69.62814
531.15        69.67679
531.59        69.55113
532.03        69.29591
532.46          69.017
532.90        68.92633
533.34        69.04374
533.78        69.28123
534.22        69.53571
534.66        69.66327
535.09        69.55943
535.53        69.41863
535.97        68.83514
536.41        68.56992
536.85        68.52619
537.28        68.55727
537.72        68.62804
538.16        68.74558
538.60        68.88558
539.04        69.04153
539.47        69.16926
539.91        69.24139
540.35        69.23554
540.79        69.16044
541.22        69.04247
541.66        68.95286
542.10        68.90343
542.54        68.88023
542.97        68.85878
543.41        68.83018
543.85        68.77924
544.29        68.72514
544.72        68.66292
545.16          68.612
545.60        68.56452
546.04        68.55652
546.47         68.5986
546.91        68.63064
547.35        68.68771
547.79        68.90762
548.22        69.20885
548.66        69.38187
549.10        69.43046
549.53        69.25758
549.97        68.97279
550.41        68.70182
550.84        68.55657
551.28        68.66145
551.72        68.91996
552.15        68.90925
552.59        69.19763
553.03        68.56409
553.46        68.96358
553.90        68.85738
554.34        68.76257
554.77        68.75051
555.21        68.86099
555.65        68.67661
556.08        68.88276
556.52        68.86656
556.96        68.81459
557.39        68.84768
557.83         68.9191
558.27        68.64836
558.70        68.11851
559.14        67.91106
559.57        68.01314
560.01        68.00129
560.45        67.90693
560.88        68.08434
561.32        68.48147
561.75        68.76269
562.19        68.87354
562.63        68.73352
563.06        68.44559
563.50        68.41676
563.93        68.56599
564.37        68.60818
564.80          68.538
565.24        68.33044
565.68        67.90358
566.11        68.57132
566.55        67.87933
566.98        67.82353
567.42        67.77509
567.85        67.85046
568.29        68.05972
568.72        68.40533
569.16        68.89708
569.60        69.02446
570.03          68.994
570.47        69.08119
570.90        69.41695
571.34        68.42892
571.77        69.04215
572.21        69.16945
572.64        68.60193
573.08        69.55168
573.51        68.88506
573.95        68.92461
574.38        69.01024
574.82        69.14454
575.25         68.6339
575.69        68.88842
576.12         69.1753
576.56        68.50204
576.99        68.48055
577.42         68.4735
577.86        68.53413
578.29        69.10703
578.73        69.02545
579.16        69.49958
579.60        68.82969
580.03        68.78351
580.47        68.61703
580.90        69.46994
581.33        69.15595
581.77        69.23914
582.20        68.54968
582.64        69.54858
583.07        69.40687
583.51        69.11063
583.94        69.03683
584.37        68.83498
584.81        68.87523
585.24        68.80812
585.68        68.60591
586.11        68.94338
586.54        68.78558
586.98        68.21432
587.41        67.91671
587.85        68.09158
588.28        68.04309
588.71        68.23489
589.15        67.83489
589.58        68.11987
590.01        68.16979
590.45        67.99549
590.88        68.77517
591.31        68.70311
591.75        68.34359
592.18        67.94754
592.61        67.59611
593.05        68.74192
593.48        68.21227
593.91        68.57378
594.35        68.53043
594.78        67.70715
595.21        67.49679
595.65        67.69741
596.08        68.73901
596.51        68.84399
596.94        68.01905
597.38        67.74441
597.81        68.01434
598.24        68.58873
598.68        68.51775
599.11        68.15902
599.54        68.85979
599.97        68.49493
600.41        68.24068
600.84        67.44057
601.27        68.10015
601.70        67.87345
602.14        68.34158
602.57        68.01549
603.00        67.50157
603.43        67.05795
603.87        67.83053
604.30        68.34263
604.73         68.1576
605.16        67.76159
605.60        67.56283
606.03        67.16384
606.46        66.80368
606.89        67.04155
607.32        68.33773
607.76        67.37521
608.19         68.0984
608.62        67.92754
609.05        67.76832
609.48        67.63405
609.92        68.28137
610.35        68.31561
610.78        67.16364
611.21        67.53045
611.64        67.34734
612.07        67.66325
612.50        67.53737
612.94        67.48325
613.37        67.34125
613.80        67.44324
614.23        66.68065
614.66        66.68471
615.09        67.11855
615.52          67.215
615.96        66.84924
616.39        67.38731
616.82         67.7032
617.25        66.87838
617.68        67.47667
618.11        67.37974
618.54        67.43072
618.97        67.39888
619.40        67.31882
619.84          67.182
620.27        67.06761
620.70        66.98371
621.13        66.90745
621.56        66.54613
621.99        66.00339
622.42        65.86568
622.85        66.15068
623.28        66.26273
623.71        66.12484
624.14        66.47543
624.57        66.71675
625.00         66.4211
625.43        66.64474
625.86        66.53308
626.29        66.56194
626.72        66.08116
627.15        66.46471
627.58        66.58163
628.01         66.7095
628.44         66.6944
628.87        66.56243
629.30        66.10526
629.73        66.06693
630.16        65.96778
630.59        66.03088
631.02        66.26333
631.45        66.58218
631.88        66.78016
632.31        66.79376
632.74        66.76265
633.17        66.58638
633.60        66.46864
634.03        66.39668
634.46        66.34269
634.89        66.28059
635.32        66.19236
635.75        66.08066
636.18        65.89133
636.61        65.69247
637.04        65.62688
637.47        65.71198
637.89        65.89581
638.32        66.07938
638.75        66.16534
639.18        66.12093
639.61        65.97537
640.04        65.79885
640.47        65.70387
640.90        65.72047
641.33        65.81937
641.76        65.94347
642.18        66.00648
642.61         65.9648
643.04        65.85674
643.47        65.74309
643.90        65.71872
644.33        65.80132
644.76        65.95525
645.18        66.11221
645.61        66.14719
646.04        66.03965
646.47        65.83308
646.90        65.60021
647.33        65.44425
647.75        65.37339
648.18        65.42765
648.61          65.592
649.04        65.58988
649.47        65.34998
649.89        65.92188
650.32        65.56236
650.75        65.62882
651.18        65.63068
651.61        65.67856
652.03        65.79301
652.46        65.91151
652.89        65.98684
653.32        66.03816
653.74        66.11056
654.17        65.64526
654.60        65.78548
655.03        65.86969
655.46         65.0881
655.88        65.03563
656.31        66.17516
656.74        65.50815
657.16        69.55628
657.59        73.99366
658.02        68.15515
658.45        67.30159
658.87        66.10548
659.30        65.77539
659.73        65.45645
660.15        66.88992
660.58         65.6219
661.01        65.60364
661.44        65.61133
661.86        65.40002
662.29        64.97185
662.72         65.3922
663.14        65.39265
663.57        65.45914
664.00         65.2913
664.42         65.3764
664.85        65.71821
665.27        66.04557
665.70        66.22656
666.13        66.24605
666.55        66.08965
666.98        65.68987
667.41        65.15888
667.83        65.11023
668.26        64.91715
668.69        65.07406
669.11        65.30297
669.54        65.47388
669.96        65.54584
670.39        65.55608
670.82        65.54636
671.24        65.55396
671.67         65.5897
672.09        65.61563
672.52        65.63979
672.94        65.63954
673.37        65.61687
673.80        65.57645
674.22        65.52789
674.65        65.44756
675.07        65.35644
675.50        65.25151
675.92        65.15102
676.35        65.06995
676.77        65.01523
677.20        64.98212
677.62        64.97879
678.05        64.99213
678.47        65.01019
678.90        65.08025
679.32        65.18713
679.75        65.09023
680.17        65.14814
680.60        65.08024
681.02        65.02318
681.45        65.01651
681.87        65.08478
682.30        65.17313
682.72        65.27299
683.15        65.39233
683.57        65.50446
684.00         65.4865
684.42        65.37539
684.85        65.34642
685.27        65.40596
685.70        65.47233
686.12         65.5106
686.54          65.522
686.97        65.49569
687.39        65.43512
687.82        65.34827
688.24        65.28796
688.66        65.25226
689.09        65.18447
689.51        65.11648
689.94        65.11471
690.36        65.18882
690.78        65.28303
691.21        65.38717
691.63        65.48977
692.06        65.58291
692.48        65.68198
692.90        65.74015
693.33        65.68979
693.75        65.52644
694.17        65.24076
694.60          64.967
695.02        64.93107
695.44        65.14093
695.87        65.54294
696.29        65.96536
696.71        65.90847
697.14        65.44334
697.56         65.1874
697.98        65.22813
698.41        65.22347
698.83        65.18053
699.25        65.37798
699.68        65.69465
700.10        65.83694
700.52        65.73476
700.94        65.49396
701.37        65.22359
701.79        65.10307
702.21        65.17228
702.64        65.35278
703.06        65.57854
703.48        65.72935
703.90         65.7626
704.33        65.71784
704.75          65.616
705.17        65.47874
705.59        65.33481
706.01        65.18366
706.44        65.05903
706.86        65.05237
707.28        65.16735
707.70        65.33276
708.12        65.52832
708.55         65.8045
708.97        66.09031
709.39        66.15736
709.81        66.01502
710.23        65.91538
710.66        65.88194
711.08        65.79059
711.50        65.64988
711.92        65.52267
712.34        65.41694
712.76        65.39867
713.19        65.48668
713.61        65.35118
714.03        65.59214
714.45         65.7117
714.87        65.87642
715.29          66.047
715.71        66.20977
716.13        66.34024
716.56         66.4121
716.98        66.49693
717.40        66.56253
717.82        66.60512
718.24        66.57574
718.66        66.39462
719.08        66.07513
719.50        65.67554
719.92        65.30946
720.34        65.14349
720.76        65.21107
721.19        65.43542
721.61        65.77225
722.03        66.09341
722.45        66.33559
722.87         66.5204
723.29        66.60103
723.71        66.50925
724.13        66.25552
724.55        65.86865
724.97        65.46377
725.39        65.24077
725.81        65.25116
726.23         65.4218
726.65        65.66727
727.07        65.98697
727.49        66.09357
727.91        66.21075
728.33        66.28496
728.75        66.35432
729.17        66.42492
729.59        66.47031
730.01        66.48527
730.43        66.46841
730.85        66.41934
731.27        66.34593
731.69        66.25294
732.10        66.13994
732.52        66.01374
732.94        65.89797
733.36        65.82392
733.78        65.71323
734.20        65.55854
734.62        65.61164
735.04         65.9558
735.46        65.49373
735.88         66.1638
736.30        66.37526
736.72        66.65855
737.13        66.88087
737.55        66.96931
737.97        67.05822
738.39        67.09013
738.81        66.78787
739.23        66.28902
739.65        66.18851
740.06        66.43647
740.48        66.58563
740.90        66.61114
741.32        66.47308
741.74        66.80721
742.16        66.87872
742.57        66.86587
742.99        66.79335
743.41        66.69639
743.83        66.59996
744.25        66.51406
744.67        66.42761
745.08        66.37742
745.50        66.39898
745.92        66.50111
746.34        66.66689
746.75          66.832
747.17        66.87738
747.59         66.7847
748.01        66.58865
748.42        66.35787
748.84        66.20747
749.26        66.16685
749.68        66.19105
750.09        66.24083
750.51        66.26484
750.93        66.23725
751.35        66.17604
751.76        66.06609
752.18        65.90636
752.60        65.70066
753.01        65.46226
753.43        65.24452
753.85        65.15383
754.27        65.21302
754.68        65.43368
755.10        65.75126
755.52        65.85513
755.93        66.02496
756.35        66.03274
756.77        66.04771
757.18        66.10085
757.60        66.19869
758.02        66.45602
758.43        66.82349
758.85        66.45014
759.26        66.62418
759.68        66.34315
760.10         66.0772
760.51        65.93913
760.93        65.97135
761.34         66.0916
761.76        66.25321
762.18        66.48342
762.59        66.73339
763.01         66.7376
763.42        66.60561
763.84        66.55685
764.26        66.63107
764.67        66.79241
765.09        66.96999
765.50        66.68793
765.92        66.14418
766.33        66.12383
766.75        66.53178
767.16        66.64207
767.58        66.34205
768.00        66.10141
768.41        66.03439
768.83        66.01272
769.24        66.03176
769.66        66.27331
770.07        66.58467
770.49        66.32709
770.90        65.70989
771.32        65.91288
771.73        66.81536
772.15        67.14307
772.56         66.8423
772.97        66.53239
773.39           66.37
773.80        66.46154
774.22        66.75523
774.63        66.96445
775.05        66.97079
775.46        66.97353
775.88        66.92744
776.29        66.69645
776.70        66.38247
777.12        66.27264
777.53        66.42332
777.95        66.71237
778.36        67.03917
778.77        67.19479
779.19         67.1395
779.60        66.96521
780.02        66.73109
780.43        66.57358
780.84        66.54996
781.26        66.43051
781.67        66.31536
782.09        66.73305
782.50        67.49716
782.91        67.68636
783.33        67.28951
783.74        67.11333
784.15         67.1776
784.57        66.99352
784.98        66.66193
785.39        66.56123
785.81        66.73928
786.22         67.1354
786.63         67.6003
787.04        67.84872
787.46         67.8359
787.87        67.64691
788.28        67.41894
788.70        67.33113
789.11        67.40704
789.52        67.60741
789.93        67.84622
790.35        67.97879
790.76        67.96942
791.17           67.85
791.58        67.68838
792.00        67.52909
792.41        67.41255
792.82        67.44791
793.23        67.53561
793.65        67.28615
794.06        66.86915
794.47        66.88741
794.88        67.21651
795.29        67.90445
795.71        67.50468
796.12        67.57856
796.53        67.73666
796.94        67.83984
797.35        67.86815
797.76        67.88337
798.18         67.8889
798.59        67.90176
799.00        67.91165
799.41         67.9105
799.82        67.91249
800.23        67.94807
800.64        68.01453
801.06        68.07221
801.47        68.12843
801.88         68.1042
802.29        67.98339
802.70        67.78655
803.11        67.55775
803.52        67.36829
803.93        67.26041
804.34        67.23473
804.75        67.27657
805.17        67.39971
805.58        67.63484
805.99        67.76785
806.40        67.83777
806.81        68.35699
807.22        69.10101
807.63        69.02371
808.04        68.24747
808.45        67.87421
808.86        67.99982
809.27        68.04426
809.68        67.92886
810.09        67.81414
810.50        67.69508
810.91        67.52424
811.32        67.43469
811.73         67.6352
812.14        68.14362
812.55        68.89848
812.96         69.6338
813.37        69.85246
813.78        69.43594
814.19        68.57447
814.60        67.58786
815.01        66.91129
815.42        66.64779
815.83         66.6754
816.24        66.89961
816.65         67.1293
817.05        67.28181
817.46         67.4018
817.87        67.49345
818.28         67.5061
818.69        67.44257
819.10        67.27764
819.51        67.11588
819.92        67.16745
820.33        67.47019
820.74        67.96131
821.14         68.4697
821.55        68.70953
821.96        68.61873
822.37        68.28535
822.78        67.86545
823.19        67.62595
823.60        67.65567
824.00        67.90343
824.41        68.22667
824.82          68.486
825.23        68.60904
825.64        68.63199
826.04        68.60558
826.45        68.56915
826.86        68.55547
827.27        68.55946
827.68        68.52135
828.08        68.37569
828.49        68.07389
828.90        67.66865
829.31        67.32619
829.72        67.31017
830.12        67.69116
830.53        68.33646
830.94        69.00861
831.35        69.24998
831.75        68.95592
832.16        68.24113
832.57        67.39258
832.97        66.85143
833.38        66.74372
833.79        66.92128
834.20        67.24893
834.60        67.50762
835.01        67.62881
835.42        67.73798
835.82        67.83605
836.23        67.83648
836.64        67.76907
837.04        67.59348
837.45        67.50012
837.86        67.87688
838.26        68.78986
838.67        70.08593
839.08        71.31507
839.48        71.63198
839.89        70.84466
840.29        69.26996
840.70        67.60694
841.11        66.67686
841.51        66.68436
841.92        67.37392
842.33        68.43203
842.73        69.28465
843.14        69.60394
843.54         69.6024
843.95        69.43851
844.35        69.42081
844.76         69.6141
845.17        69.89517
845.57        70.12722
845.98        70.08541
846.38        69.75169
846.79        69.22186
847.19        68.68049
847.60        68.38095
848.00        68.40152
848.41        68.63824
848.81        68.98474
849.22        69.18055
849.62        69.18542
850.03        69.05589
850.43        68.87445
850.84        68.70751
851.24         68.6315
851.65        68.55349
852.05        68.56442
852.46        68.71599
852.86        69.00031
853.27        69.39369
853.67         69.7093
854.07        69.79787
854.48        69.61062
854.88         69.2167
855.29        68.69155
855.69        68.31381
856.10        68.11468
856.50         68.1128
856.90        68.19908
857.31        68.20348
857.71        68.12923
858.12        67.95834
858.52        67.82454
858.92        67.83376
859.33        67.98977
859.73        68.29151
860.13        68.56203
860.54         68.5384
860.94        68.21258
861.34        67.65337
861.75        67.07106
862.15        66.85465
862.55        67.07047
862.96        67.55998
863.36        68.16151
863.76        68.51032
864.17        68.47635
864.57        68.20959
864.97        67.74165
865.38        67.12834
865.78         66.4593
866.18        65.71445
866.58        65.07739
866.99        64.87488
867.39        65.19642
867.79        65.94674
868.19        66.86106
868.60        67.50304
869.00        67.78049
869.40        67.74902
869.80        67.56189
870.21        67.52942
870.61        67.79385
871.01        68.19266
871.41        68.49095
871.81        68.36686
872.22        67.77212
872.62        66.82435
873.02         65.8256
873.42        65.27642
873.82        65.32114
874.22        65.81867
874.63        66.44582
875.03        66.70164
875.43        66.44373
875.83        65.82626
876.23        65.13062
876.63        64.79007
877.03        64.91035
877.44        65.32522
877.84        65.81307
878.24        66.02284
878.64        65.81792
879.04        65.19753
879.44        64.47222
879.84        64.21162
880.24        64.48793
880.64        65.07158
881.04        65.63724
881.44        65.68344
881.84        65.10432
882.24        64.11201
882.65        63.03756
883.05        62.37907
883.45        62.28388
883.85        62.59489
884.25        63.17516
884.65        63.78322
885.05         64.2916
885.45        64.75494
885.85        65.11328
886.25        65.27937
886.65        65.25393
887.05        65.03635
887.45        64.73138
887.85        64.54171
888.25        64.52618
888.65        64.64806
889.04        64.81488
889.44        64.89754
889.84        64.84576
890.24        64.69582
890.64         64.5166
891.04        64.42189
891.44        64.43523
891.84        64.51836
892.24        64.58306
892.64        64.49264
893.04        64.24361
893.44        63.91773
893.83        63.64476
894.23        63.57929
894.63        63.78349
895.03        64.17104
895.43        64.69801
895.83        65.29795
896.23        65.88992
896.63         66.4473
897.02        66.81288
897.42        66.77311
897.82        66.31435
898.22         65.5557
898.62        64.68598
899.01        63.98186
899.41        63.55637
899.81        63.33595
900.21        63.33419
900.61        63.55642
901.00        63.95344
901.40        64.49995
901.80        65.03062
902.20        65.27187
902.59        65.17555
902.99        64.80971
903.39        64.31532
903.79        63.94313
904.18        63.77037
904.58        63.72564
904.98        63.82019
905.38        64.07331
905.77        64.45913
906.17        65.00121
906.57        65.50606
906.96        65.64295
907.36        65.34142
907.76        64.70284
908.15        64.06094
908.55        63.93885
908.95        64.44765
909.34        65.42042
909.74        66.46679
910.14        67.02396
910.53        66.89915
910.93        66.29749
911.33        65.41621
911.72        64.54665
912.12        63.88429
912.52        63.37009
912.91        63.02216
913.31        62.88462
913.70        62.95411
914.10        63.20254
914.49        63.66991
914.89        64.31339
915.29        65.09059
915.68        65.96931
916.08        66.68579
916.47         66.8997
916.87        66.56239
917.26        65.75056
917.66        64.85126
918.05        64.31496
918.45        64.25772
918.84        64.62404
919.24        65.10805
919.64        65.29208
920.03          65.078
920.42        64.56765
920.82         64.1076
921.21        64.17571
921.61        64.84106
922.00        65.96722
922.40        67.12601
922.79        67.70721
923.19        67.50666
923.58        66.76662
923.98        65.84743
924.37        65.21606
924.77        65.01569
925.16        65.04723
925.55        65.23705
925.95         65.4392
926.34        65.58893
926.74         65.7477
927.13         65.7668
927.52         65.3242
927.92         64.4691
928.31         63.3097
928.70        62.23932
929.10        61.84358
929.49        62.21988
929.89        63.13243
930.28        64.36517
930.67        65.40626
931.07        66.02042
931.46         66.4218
931.85        66.48049
932.24        66.06061
932.64        65.26643
933.03        64.10403
933.42        63.09336
933.82        63.00552
934.21          63.956
934.60        65.78385
934.99        67.83499
935.39        68.89352
935.78        68.64404
936.17         67.3293
936.56        65.61848
936.96        64.58897
937.35        64.53135
937.74        65.13837
938.13        65.89162
938.53        65.98534
938.92         65.2536
939.31        64.04512
939.70         62.8286
940.09        62.24285
940.49        62.40342
940.88        63.10182
941.27        64.07501
941.66        64.84911
942.05        65.23984
942.44        65.41702
942.84        65.44672
943.23        65.42143
943.62        65.40263
944.01        65.28556
944.40        65.22188
944.79        65.50143
945.18         66.1302
945.57        67.02193
945.97        67.74879
946.36        67.67514
946.75        66.65166
947.14        64.98331
947.53         63.1702
947.92        61.90733
948.31        61.38825
948.70        61.44464
949.09        61.90833
949.48         62.4743
949.87        62.99775
950.26         63.5323
950.65        64.09053
951.04        64.69418
951.43        65.30262
951.82        65.82122
952.21        66.10815
952.60        65.98745
952.99        65.48034
953.38        64.73271
953.77        63.94916
954.16        63.43209
954.55        63.27245
954.94        63.36374
955.33        63.72708
955.72        64.36838
956.11        65.20726
956.50        66.23167
956.89        67.06159
957.28        67.07332
957.66        66.16477
958.05        64.58003
958.44        62.89688
958.83        61.95717
959.22        61.93291
959.61         62.6106
960.00        63.58118
960.39        64.06622
960.78        63.81566
961.16        63.07611
961.55        62.23468
961.94        61.77127
962.33        61.81965
962.72         62.2416
963.11        62.82856
963.49        63.23378
963.88        63.25077
964.27          62.989
964.66        62.72639
965.04        62.89971
965.43        63.53225
965.82        64.53349
966.21        65.45713
966.60        65.46854
966.98        64.37995
967.37        62.61334
967.76          60.844
968.15        59.90105
968.53        59.94265
968.92         60.7354
969.31        61.92696
969.69        62.79263
970.08        62.96471
970.47        62.67179
970.86        62.24073
971.24        62.14904
971.63        62.50647
972.02        63.13043
972.40        63.79054
972.79        63.85009
973.17        63.23003
973.56         62.2097
973.95         61.1388
974.33        60.41445
974.72        60.13218
975.11        60.13448
975.49         60.3831
975.88        60.74001
976.26        61.16265
976.65         61.6478
977.04        62.04462
977.42        62.08638
977.81        61.71371
978.19         60.9746
978.58        60.25689
978.96        60.17051
979.35        60.81011
979.74        62.00212
980.12        63.37139
980.51        63.99739
980.89        63.76167
981.28        62.97263
981.66        62.00804
982.05        61.36727
982.43        61.21738
982.82        61.34184
983.20        61.92336
983.59        63.19118
983.97        65.14869
984.35        67.68771
984.74          69.989
985.12        70.91028
985.51        70.12891
985.89        68.00617
986.28        65.51701
986.66        64.07887
987.04        64.11565
987.43         65.2444
987.81         66.8893
988.20        67.78345
988.58        67.50738
988.96        66.39398
989.35        64.99127
989.73         64.0465
990.12        63.73947
990.50        63.88713
990.88        64.06371
991.27        63.59982
991.65        62.40831
992.03        60.79948
992.42        59.47773
992.80        59.36195
993.18        60.61916
993.56        62.98421
993.95        65.65836
994.33        67.25734
994.71        67.16943
995.10        65.90191
995.48         64.2005
995.86        63.27265
996.24        63.43235
996.63        64.18069
997.01        65.38036
997.39         66.3916
997.77        66.86282
998.15        67.10291
998.54        66.91856
998.92         65.8616
999.30        64.08405
999.68        61.75409
1000.06         59.6984
1000.45        59.07709
1000.83        60.19726
1001.21        62.87368
1001.59        66.31859
1001.97        68.53806
1002.35        68.72337
1002.73        67.43837
1003.12        65.79271
1003.50        65.17625
1003.88        66.02287
1004.26         67.7992
1004.64        70.07888
1005.02        71.92682
1005.40        72.83113
1005.78        73.21152
1006.16        72.88291
1006.54        71.52037
1006.92        69.36087
1007.30        66.61114
1007.69        64.31075
1008.07        63.78978
1008.45         65.4334
1008.83        68.94857
1009.21        73.41949
1009.59        76.42382
1009.97        76.67944
1010.35        74.79548
1010.73        71.53202
1011.11        68.05914
1011.49        65.02188
1011.86        62.31808
1012.24         60.2808
1012.62        59.29876
1013.00        59.33314
1013.38        60.25328
1013.76        61.95595
1014.14        63.88124
1014.52        65.51463
1014.90        66.85776
1015.28         67.3118
1015.66        66.18371
1016.04        63.56061
1016.41        59.64038
1016.79        55.69328
1017.17        54.18676
1017.55        55.69769
1017.93        59.35104
1018.31        63.63622
1018.69        66.42571
1019.06        67.22159
1019.44        66.59238
1019.82        64.85371
1020.20        62.97069
1020.58        61.57323
1020.95        60.23647
1021.33        59.40541
1021.71        59.48351
1022.09        60.47399
1022.46        62.73923
1022.84        65.31639
1023.22         65.7464
1023.60        63.31462
1023.97        58.70156
1024.35        54.62943
1024.73        54.27153
