SpectraSmart Spectrum 2.9.0.0
--------- Device Information -----------
Spectrum Name :  反射率_0
Saving Time :  2024/04/26 22:38:42
Spectro-Module Model Name : SE2030-DUVN
Spectro-Module Serial Number : OS361AC55029948
Wavelength Start : 200
Wavelength End : 1025
Wavelength Unit : Wavelength(nm)
Spectrum Unit : Reflectance(%)
-----------Spectrum Setting ------------
Integration Time : 20ms
Average : 10
Boxcar : 0
Background removal :  enabled
linearity correction :  enabled
SC :  disabled
Intensity correction :  disabled
DWT denoise :  enabled
savitzky-golay :  disabled
FFT :  disabled
Running average :  disabled
Kalman :  disabled
High pass :  disabled
---------------BEGIN--------------------
Wavelength(nm)             Reflectance(%)
200.29               0
200.75        53.02947
201.21        55.69489
201.67        58.52335
202.13        59.97692
202.58        59.94257
203.04        59.36329
203.50        58.96874
203.96        60.24263
204.42        64.04195
204.88         69.6618
205.34        75.55558
205.80        79.35215
206.26         80.0488
206.72        78.08288
207.18         75.0486
207.64        72.14022
208.10        69.28935
208.55        66.41815
209.01        61.86502
209.47         55.6166
209.93        50.75109
210.39        48.61476
210.85        48.89828
211.31        51.43334
211.77        57.12816
212.23        70.10651
212.69        103.0926
213.14        162.0793
213.60        165.3343
214.06        128.1652
214.52        101.0832
214.98        87.81899
215.44        80.81287
215.90        74.99299
216.36        70.67003
216.81        69.21945
217.27        71.24525
217.73        78.45683
218.19        88.36832
218.65        88.19607
219.11        76.09553
219.57         61.7114
220.02        52.93204
220.48        53.29435
220.94        61.82117
221.40        79.21321
221.86        105.0927
222.32        123.0907
222.77        117.9968
223.23        100.4064
223.69        81.86385
224.15        68.86823
224.61        60.82697
225.06        55.06132
225.52        51.40415
225.98        49.52363
226.44        48.93956
226.90        49.60645
227.36        50.61728
227.81        50.40067
228.27        48.86729
228.73        46.45858
229.19        44.29895
229.65        43.69353
230.10        44.64641
230.56        46.71054
231.02        48.77969
231.48        49.15107
231.93        47.56842
232.39        44.97996
232.85        42.56228
233.31        41.85538
233.77        42.98465
234.22        45.44259
234.68        48.23654
235.14        49.90878
235.60        50.06701
236.05        49.16368
236.51        47.90876
236.97        47.79216
237.43        49.40678
237.88        52.33099
238.34         55.9439
238.80        59.60678
239.26        63.25229
239.71        67.71258
240.17        72.83849
240.63        78.21095
241.08        83.43232
241.54        87.46131
242.00         91.5781
242.46        99.42171
242.91        114.3984
243.37        138.9646
243.83        174.6037
244.28        207.6307
244.74        214.6154
245.20        192.9953
245.66        161.6015
246.11        138.6188
246.57        125.5725
247.03        117.6561
247.48        110.9781
247.94        101.4333
248.40        91.27505
248.85          83.518
249.31        79.05402
249.77        77.16856
250.22        77.05185
250.68        78.00062
251.14        80.34907
251.59        84.31422
252.05        88.92933
252.51        93.66647
252.96        95.72375
253.42         93.5394
253.88        88.26577
254.33        81.23209
254.79        76.41547
255.25        76.82947
255.70        81.79085
256.16        89.64263
256.62        96.67487
257.07        97.32647
257.53        92.92712
257.99        86.85981
258.44        81.35583
258.90        78.60158
259.35        77.55749
259.81        77.60931
260.27        77.80757
260.72        77.21179
261.18        76.03297
261.63        74.31173
262.09        72.82042
262.55        71.73816
263.00        70.90636
263.46        70.36697
263.91        69.53458
264.37        68.10255
264.83        66.08036
265.28        63.67611
265.74        61.55154
266.19        60.14723
266.65        59.56352
267.11        59.47972
267.56        59.50583
268.02        59.04688
268.47        57.94584
268.93        56.43867
269.38        54.72814
269.84        53.19238
270.30        51.92133
270.75        50.78687
271.21        49.77091
271.66        48.77369
272.12        47.77454
272.57        46.80772
273.03         45.8554
273.48        44.86091
273.94        43.88145
274.39        42.87399
274.85        41.98318
275.31        41.25913
275.76        40.66925
276.22        40.23314
276.67        39.79233
277.13        39.23042
277.58        38.47802
278.04        37.61433
278.49        36.72803
278.95        36.08224
279.40        35.65553
279.86        35.43767
280.31        35.20204
280.77        34.75099
281.22        34.01657
281.68         33.1506
282.13        32.31048
282.59        31.80415
283.04        31.63558
283.50        31.74012
283.95        31.91144
284.41        31.84122
284.86        31.47371
285.32         30.9557
285.77        30.49029
286.22        30.43023
286.68        30.81513
287.13        31.45905
287.59        32.16359
288.04        32.57906
288.50        32.64224
288.95        32.44021
289.41        32.11261
289.86        31.78253
290.32        31.55934
290.77        31.41058
291.22        31.37713
291.68        31.50206
292.13        31.79183
292.59         32.2782
293.04         32.9797
293.50        33.92834
293.95        35.09562
294.40        36.45506
294.86        37.92151
295.31        39.35644
295.77        40.73609
296.22        42.07753
296.68        43.45811
297.13        44.98634
297.58        46.70577
298.04         48.5877
298.49        50.58453
298.95        52.64341
299.40        54.71422
299.85        56.79874
300.31        58.90513
300.76        61.01683
301.21        63.13903
301.67        65.29401
302.12        67.40011
302.58        69.44181
303.03        71.37422
303.48        73.24153
303.94        75.17294
304.39        77.27904
304.84        79.60208
305.30        82.10555
305.75        84.59605
306.20        86.87889
306.66        88.92726
307.11        90.76328
307.57        92.51838
308.02        94.26933
308.47        96.07108
308.93        97.87797
309.38        99.64858
309.83        101.4619
310.29        103.3159
310.74        105.1924
311.19        106.9428
311.65        108.2858
312.10        109.1545
312.55        109.6359
313.00        109.9995
313.46        110.6725
313.91        111.7259
314.36        113.0748
314.82        114.4798
315.27        115.5603
315.72        116.1876
316.18        116.5074
316.63        116.6806
317.08        117.0182
317.53         117.605
317.99        118.3251
318.44         119.069
318.89        119.6297
319.35        119.9442
319.80         120.095
320.25        120.1687
320.70         120.298
321.16        120.5249
321.61        120.8531
322.06        121.2201
322.51         121.538
322.97        121.7646
323.42        121.9289
323.87        122.1307
324.32        122.5555
324.78         123.186
325.23        124.0499
325.68        124.8476
326.13        125.1044
326.59        124.7298
327.04        123.9066
327.49        123.0386
327.94        122.8016
328.39        123.3512
328.85        124.4472
329.30        125.8387
329.75        126.7648
330.20         126.976
330.66        126.6589
331.11        126.1496
331.56        125.9047
332.01        126.0819
332.46        126.5041
332.92        126.9948
333.37        127.4573
333.82        127.7587
334.27        128.0212
334.72        128.2349
335.17         128.345
335.63        128.3672
336.08        128.3751
336.53        128.5324
336.98        129.1744
337.43        130.3467
337.88        131.9061
338.34        133.5658
338.79        134.9773
339.24        135.9166
339.69          136.47
340.14        136.6446
340.59        136.4914
341.05         136.131
341.50        135.5746
341.95        135.0595
342.40        134.9422
342.85        135.3051
343.30        136.0701
343.75        137.0519
344.20        137.9109
344.66        138.5226
345.11        138.9499
345.56        139.2292
346.01        139.4373
346.46        139.6264
346.91        139.7864
347.36         139.923
347.81        140.0724
348.26        140.2344
348.72        140.3747
349.17        140.5619
349.62        140.9379
350.07        141.4911
350.52        142.1987
350.97        142.7228
351.42        142.5288
351.87        141.5645
352.32        140.0232
352.77        138.4753
353.22        137.7574
353.67        138.0193
354.13        139.0061
354.58        140.1718
355.03        140.5459
355.48        139.8774
355.93        138.4688
356.38        136.8701
356.83        135.9076
357.28        135.7512
357.73           136.1
358.18        136.5099
358.63        136.2833
359.08         135.247
359.53        133.6756
359.98        131.9083
360.43        130.4144
360.88        129.3221
361.33        128.4776
361.78        127.7321
362.23        126.8703
362.68        125.8365
363.13        124.7287
363.58        123.6276
364.03        122.6285
364.48        121.7442
364.93        120.9145
365.38        120.0844
365.83         119.191
366.28        118.2246
366.73        117.2231
367.18        116.2149
367.63        115.2322
368.08        114.2897
368.53        113.3805
368.98         112.516
369.43        111.7092
369.88        110.9583
370.33        110.2602
370.78        109.5846
371.23        108.8898
371.68        108.1603
372.13        107.3866
372.58        106.6073
373.03        105.8848
373.48        105.2184
373.93        104.5869
374.38        103.8946
374.83        102.9987
375.28        101.8929
375.72         100.624
376.17        99.40176
376.62        98.41171
377.07        97.71204
377.52        97.27113
377.97        96.96731
378.42        96.61357
378.87        96.15366
379.32        95.59634
379.77        95.10091
380.22        94.90363
380.67        95.00813
381.11        95.36094
381.56         95.5648
382.01        95.07426
382.46        93.84094
382.91        92.13701
383.36        90.47412
383.81        89.54515
384.26        89.45422
384.71        89.95408
385.15        90.71162
385.60        91.14014
386.05        91.04499
386.50        90.59937
386.95        89.90366
387.40        89.12434
387.85        88.36105
388.29        87.51708
388.74        86.78895
389.19        86.22794
389.64        85.83618
390.09        85.60421
390.54        85.44163
390.98        85.16264
391.43        84.76326
391.88        84.27921
392.33        83.80652
392.78        83.39827
393.23        83.05674
393.67        82.95499
394.12           83.04
394.57        82.51396
395.02        81.61768
395.47        81.66101
395.91        82.47845
396.36        82.60271
396.81        81.96642
397.26        81.37967
397.71        80.97063
398.15        80.60664
398.60        80.42941
399.05        80.27164
399.50        80.09673
399.95        80.22653
400.39        80.52392
400.84        80.01479
401.29        78.89737
401.74        78.67103
402.18         79.1982
402.63        78.75747
403.08        77.51208
403.53         76.9707
403.97        77.18678
404.42        77.38451
404.87          77.409
405.32         77.2914
405.76        76.97643
406.21         76.6193
406.66        76.28843
407.11         75.8852
407.55        75.60475
408.00        75.82151
408.45        76.42976
408.90        76.99991
409.34        77.21966
409.79        76.66364
410.24        75.61631
410.68         75.0328
411.13        75.02003
411.58        75.05115
412.03        74.99816
412.47        74.90043
412.92        74.69907
413.37         74.4287
413.81        74.17595
414.26        74.13419
414.71        74.30006
415.15        74.63809
415.60        75.00838
416.05        75.25397
416.49        75.31968
416.94        75.23938
417.39        75.08517
417.83         74.9534
418.28        74.88596
418.73        74.85815
419.17        74.85488
419.62        74.85539
420.07        74.83635
420.51        74.77975
420.96        74.73359
421.41        74.65976
421.85        74.52216
422.30        74.53845
422.74        74.56393
423.19         74.1766
423.64        73.50204
424.08        73.34058
424.53        73.67417
424.98        73.85876
425.42        73.86801
425.87        74.05971
426.31        74.39634
426.76        74.57156
427.21        74.58608
427.65         74.5409
428.10        74.42196
428.54        74.36968
428.99        74.44197
429.44        74.13334
429.88        73.70065
430.33        74.37777
430.77        75.68017
431.22        76.06438
431.66        75.42764
432.11        74.53054
432.56        73.78401
433.00        73.54836
433.45        74.01878
433.89        75.08666
434.34        75.92231
434.78        76.52931
435.23         75.7593
435.67        73.28221
436.12        73.81507
436.57        74.04744
437.01        74.99957
437.46        75.43661
437.90        75.35466
438.35        74.10568
438.79        74.52985
439.24        74.36333
439.68        74.38659
440.13        74.81149
440.57        75.49911
441.02        75.43506
441.46        74.77852
441.91        75.27253
442.35        76.48197
442.80        76.46327
443.24        75.40856
443.69         75.3365
444.13        76.18975
444.58        76.52639
445.02        76.30202
445.47        76.28687
445.91        76.51759
446.36        76.71884
446.80         76.8649
447.24        77.10381
447.69        77.38193
448.13        77.38592
448.58        77.21774
449.02        77.34354
449.47        77.70415
449.91         77.7612
450.36        77.51902
450.80        77.25658
451.25        77.06491
451.69        76.89713
452.13        76.79289
452.58        76.75394
453.02        76.75821
453.47        76.77503
453.91        76.77689
454.36        76.78356
454.80        76.77531
455.24        76.59463
455.69        76.22599
456.13        75.94962
456.58        75.91649
457.02        75.07986
457.46        74.95718
457.91        75.28673
458.35        75.78408
458.79        75.76481
459.24        75.15006
459.68         74.2384
460.13        73.31892
460.57        73.06923
461.01        73.70843
461.46         73.3639
461.90        74.12908
462.34        75.37768
462.79        74.16809
463.23        74.37328
463.68        74.79838
464.12        74.71161
464.56        74.04377
465.01        73.25583
465.45        72.55432
465.89        72.34608
466.34        72.54096
466.78         72.7463
467.22        72.88982
467.67        72.41896
468.11        72.29375
468.55        72.32022
468.99        72.67041
469.44        72.68689
469.88        72.35835
470.32         72.0793
470.77         71.9022
471.21        71.74276
471.65        71.60474
472.10        71.51453
472.54        71.47057
472.98         71.4257
473.42        71.35116
473.87        71.43578
474.31        71.53673
474.75        71.11095
475.20        70.36596
475.64        70.21432
476.08        70.62351
476.52        70.64861
476.97        70.22375
477.41        70.10146
477.85        70.45012
478.29        69.86835
478.74        70.45845
479.18        70.86922
479.62        70.55928
480.06        70.52565
480.50        70.40438
480.95        70.31003
481.39        70.27409
481.83        69.75064
482.27        69.63802
482.72        70.09895
483.16        69.68521
483.60        69.77197
484.04        69.91357
484.48        70.21358
484.93        70.29742
485.37        70.24422
485.81        69.84855
486.25        68.95107
486.69        69.37578
487.14        71.68029
487.58        71.51537
488.02        70.37492
488.46         69.2155
488.90        68.98512
489.34        70.85701
489.79        71.31849
490.23        70.38486
490.67        69.51244
491.11        68.98316
491.55        68.86209
491.99        69.07884
492.43        69.02879
492.88         68.6939
493.32        68.63563
493.76        68.85841
494.20        68.98969
494.64        68.98697
495.08         69.0574
495.52        69.15186
495.96        68.95602
496.41        68.57072
496.85        68.55789
497.29        68.76646
497.73        68.91756
498.17        68.16314
498.61        68.06174
499.05        68.34976
499.49        68.48619
499.93        68.22282
500.37        68.39259
500.82        68.81314
501.26        68.70195
501.70        68.17152
502.14        68.12505
502.58        68.55325
503.02        68.73476
503.46        68.64005
503.90        68.71878
504.34        68.90801
504.78        68.82129
505.22         68.4799
505.66        68.16417
506.10        67.95208
506.54         67.8025
506.98        67.74415
507.42         67.8346
507.86        68.01735
508.30         68.1522
508.74        68.20277
509.18        68.20456
509.62        68.17626
510.06         68.1516
510.50        68.14014
510.94        68.11903
511.38        68.08661
511.82         68.0464
512.26        68.00116
512.70        67.96441
513.14        67.92599
513.58        67.86485
514.02        67.78307
514.46        67.68431
514.90        67.61156
515.34        67.63786
515.78        67.76086
516.22        67.95537
516.66        68.14529
517.10        68.21294
517.54        68.13297
517.98        67.94661
518.42        67.71561
518.86        67.54099
519.30        67.45626
519.74        67.43134
520.18        67.45216
520.62        67.49364
521.06        67.54341
521.50        67.61731
521.93        67.69544
522.37        67.72042
522.81        67.69158
523.25        67.61185
523.69        67.52844
524.13        67.52201
524.57        67.60081
525.01        67.73289
525.45        67.85398
525.89         67.8587
526.32        67.72065
526.76        67.50343
527.20         67.2556
527.64        67.05788
528.08         66.9404
528.52        66.87648
528.96         66.8764
529.40        66.95603
529.83        67.09886
530.27        67.30114
530.71         67.4905
531.15        67.55805
531.59        67.48197
532.03        67.28966
532.46        67.04079
532.90        66.88111
533.34        66.83557
533.78        66.83175
534.22        66.83024
534.66        66.85031
535.09        66.82751
535.53        66.63111
535.97        66.32115
536.41        66.16181
536.85        66.18217
537.28        66.24641
537.72        66.33376
538.16        66.46384
538.60        66.61403
539.04        66.77235
539.47        66.89668
539.91        66.96439
540.35        66.95741
540.79        66.89384
541.22        66.79274
541.66        66.70503
542.10        66.64133
542.54        66.59466
542.97        66.55681
543.41        66.54327
543.85        66.54177
544.29        66.55717
544.72        66.56184
545.16        66.55228
545.60        66.51584
546.04        66.46317
546.47        66.41779
546.91        66.43144
547.35        66.51088
547.79        66.58734
548.22        66.63802
548.66        66.74249
549.10        66.89815
549.53        66.79111
549.97        66.49949
550.41        66.26347
550.84        66.19118
551.28        66.27812
551.72          66.422
552.15        66.53982
552.59        66.77038
553.03        66.08406
553.46        66.53338
553.90        66.42921
554.34        66.36364
554.77         66.3393
555.21        66.37752
555.65        66.38433
556.08        66.45199
556.52        66.45103
556.96        66.41193
557.39        66.49605
557.83        66.65256
558.27        66.50009
558.70        66.09441
559.14        65.93474
559.57        65.99914
560.01        65.93992
560.45        65.79198
560.88        65.82673
561.32        66.05172
561.75        66.30305
562.19        66.51378
562.63        66.48561
563.06        66.26046
563.50        66.18567
563.93        66.21047
564.37        66.15064
564.80        66.04487
565.24        65.90311
565.68        65.59383
566.11        66.26994
566.55        65.55421
566.98        65.37817
567.42        65.19798
567.85         65.3624
568.29        65.81159
568.72        66.15165
569.16        66.44492
569.60        66.55612
570.03         66.6462
570.47        66.89294
570.90        67.47152
571.34        66.30968
571.77        66.85707
572.21        67.61913
572.64        66.88144
573.08        67.42674
573.51        66.50192
573.95         66.3902
574.38        66.58618
574.82        67.20399
575.25        66.61536
575.69        66.76372
576.12         67.2413
576.56        66.48783
576.99        66.02321
577.42        66.60195
577.86        66.63337
578.29        67.28506
578.73         67.2946
579.16        67.48361
579.60        66.75311
580.03        66.86835
580.47        66.59674
580.90        67.48412
581.33        67.40342
581.77        67.39101
582.20        66.84671
582.64        67.91228
583.07        67.67114
583.51        67.19786
583.94        66.67805
584.37        66.62947
584.81        66.62761
585.24        66.79499
585.68        66.84706
586.11        66.82108
586.54        67.17366
586.98        66.54542
587.41        65.82732
587.85        66.33739
588.28        66.38963
588.71        66.60625
589.15        66.21282
589.58        66.20885
590.01        66.04565
590.45        65.72913
590.88        66.82771
591.31        66.73913
591.75        66.09037
592.18        65.65282
592.61        65.60738
593.05         66.1119
593.48        66.37717
593.91        66.56904
594.35        66.81226
594.78        66.36219
595.21         65.5772
595.65        65.64611
596.08        66.64536
596.51        66.89713
596.94        66.17552
597.38        65.89662
597.81        65.97186
598.24        66.60574
598.68        66.45756
599.11        65.89902
599.54        66.74163
599.97        66.49586
600.41        66.31345
600.84        65.86575
601.27         66.3061
601.70        66.02617
602.14        66.26173
602.57        66.02962
603.00        65.81836
603.43         65.2682
603.87        65.90379
604.30        66.08464
604.73        66.08515
605.16        65.54665
605.60        65.62832
606.03        65.19978
606.46         64.6012
606.89        65.24041
607.32        65.72942
607.76        65.26541
608.19        65.49265
608.62        65.71992
609.05        65.35428
609.48         65.3259
609.92        66.15057
610.35        65.79021
610.78        65.27249
611.21         65.4021
611.64        65.33712
612.07        65.55334
612.50        65.37485
612.94        65.31005
613.37        65.20713
613.80         65.2307
614.23        64.62836
614.66        64.60096
615.09        64.91653
615.52        65.13932
615.96        65.13292
616.39        65.41506
616.82        65.48586
617.25        64.97211
617.68        64.91076
618.11        64.91776
618.54        65.24598
618.97         65.3409
619.40        65.06246
619.84        65.02706
620.27        64.71756
620.70        64.78761
621.13        64.95331
621.56        64.52808
621.99        63.66746
622.42        63.44276
622.85        63.86352
623.28        64.02726
623.71        63.91423
624.14        64.02779
624.57        64.57854
625.00        64.53005
625.43        64.55437
625.86        64.39293
626.29        64.36295
626.72        63.82349
627.15        64.12616
627.58        64.18462
628.01        64.30107
628.44        64.27917
628.87        64.11883
629.30        63.94899
629.73        63.82286
630.16        63.77445
630.59        63.82154
631.02         63.9688
631.45        64.16701
631.88         64.3129
632.31        64.37328
632.74        64.37627
633.17        64.32275
633.60        64.21738
634.03        64.07504
634.46        63.88997
634.89        63.70026
635.32        63.58578
635.75        63.56626
636.18        63.55543
636.61        63.54785
637.04        63.57073
637.47        63.61274
637.89        63.65937
638.32        63.67424
638.75        63.64441
639.18        63.56644
639.61        63.47727
640.04        63.41867
640.47        63.28997
640.90        63.37335
641.33        63.43987
641.76         63.5399
642.18        63.62232
642.61        63.65246
643.04        63.64624
643.47        63.62132
643.90        63.61481
644.33        63.63417
644.76        63.66912
645.18        63.69635
645.61        63.66322
646.04        63.56985
646.47        63.43567
646.90        63.30854
647.33        63.25317
647.75        63.25773
648.18        63.36254
648.61        63.54742
649.04        63.54285
649.47        63.28634
649.89          63.783
650.32        63.34603
650.75        63.35968
651.18        63.35158
651.61        63.25787
652.03        63.15208
652.46        63.38246
652.89        63.84527
653.32         63.8992
653.74        63.60957
654.17        63.30964
654.60        63.78928
655.03        63.65437
655.46        62.60896
655.88        62.83875
656.31        63.89962
656.74        64.67706
657.16        68.74795
657.59        73.08405
658.02        66.42733
658.45        64.81422
658.87        63.67429
659.30        63.79021
659.73        63.52985
660.15        64.73864
660.58        63.45007
661.01        63.38051
661.44         63.4982
661.86        63.23499
662.29        62.63183
662.72        63.02884
663.14        63.17434
663.57        63.24482
664.00        62.95429
664.42        62.99087
664.85        63.36026
665.27        63.67819
665.70        63.81769
666.13        63.82254
666.55        63.68289
666.98        63.32042
667.41        62.83187
667.83        62.79369
668.26        62.59361
668.69        62.70612
669.11        62.89291
669.54         63.0581
669.96        63.16776
670.39        63.30809
670.82        63.44957
671.24        63.40177
671.67        63.23156
672.09        63.16757
672.52        63.24718
672.94        63.40343
673.37        63.55947
673.80        63.48162
674.22        63.22899
674.65        63.12358
675.07        63.20423
675.50        63.25076
675.92        63.22258
676.35        63.14706
676.77        63.02132
677.20        62.84306
677.62        62.66948
678.05        62.59278
678.47        62.62918
678.90        62.75224
679.32        62.91316
679.75        63.04446
680.17        63.11823
680.60        63.15693
681.02         63.1678
681.45        63.16862
681.87        63.18172
682.30        63.15628
682.72        63.12395
683.15        63.18205
683.57        63.31055
684.00        63.30685
684.42        63.20843
684.85        63.24319
685.27        63.40775
685.70        63.58304
686.12        63.70327
686.54        63.73686
686.97        63.67042
687.39         63.5138
687.82        63.30503
688.24        63.17264
688.66         63.1509
689.09        63.03563
689.51        63.13437
689.94         63.1925
690.36        63.29056
690.78        63.40075
691.21        63.51141
691.63        63.58965
692.06        63.62752
692.48        63.64997
692.90        63.62463
693.33        63.50931
693.75        63.30714
694.17        63.00487
694.60        62.73348
695.02        62.70016
695.44        62.90536
695.87        63.32888
696.29        63.78731
696.71        63.69077
697.14        63.13915
697.56        62.91208
697.98        63.06214
698.41        63.06105
698.83        62.91022
699.25        62.99151
699.68        63.21935
700.10        63.31406
700.52        63.22203
700.94         63.0425
701.37        62.86905
701.79        62.85546
702.21        63.02692
702.64        63.30619
703.06        63.61224
703.48         63.8037
703.90        63.83535
704.33        63.75219
704.75        63.59428
705.17        63.41736
705.59        63.26223
706.01        63.12234
706.44        63.02737
706.86         63.0586
707.28        63.21281
707.70        63.41885
708.12        63.65115
708.55        63.95218
708.97        64.25008
709.39        64.31966
709.81        64.16708
710.23        64.04302
710.66        63.97437
711.08        63.83131
711.50        63.63756
711.92         63.5169
712.34        63.48752
712.76        63.53164
713.19         63.6043
713.61         63.6582
714.03        63.66487
714.45           63.65
714.87        63.65523
715.29        63.74647
715.71        63.92794
716.13        64.15437
716.56        64.36568
716.98        64.55238
717.40        64.65569
717.82        64.69067
718.24        64.62617
718.66        64.41171
719.08        64.07338
719.50        63.66211
719.92        63.28438
720.34        63.09845
720.76        63.13818
721.19        63.33253
721.61        63.65624
722.03         64.0117
722.45        64.33673
722.87         64.6373
723.29        64.82953
723.71        64.78516
724.13        64.50115
724.55        64.02917
724.97        63.51199
725.39         63.1938
725.81        63.14341
726.23        63.27562
726.65        63.51402
727.07        63.86639
727.49        64.04937
727.91        64.27886
728.33        64.46696
728.75        64.58779
729.17        64.63268
729.59        64.59023
730.01        64.49971
730.43        64.43514
730.85        64.41661
731.27        64.43174
731.69         64.4471
732.10        64.40297
732.52        64.28849
732.94        64.14039
733.36        64.02045
733.78        63.90235
734.20        63.79024
734.62         63.9151
735.04        64.30967
735.46         63.8281
735.88        64.34277
736.30        64.32836
736.72        64.37492
737.13        64.43937
737.55        64.47533
737.97         64.7073
738.39        64.99025
738.81        64.61366
739.23        63.80085
739.65         63.8631
740.06         64.6573
740.48        64.95448
740.90        64.68201
741.32        64.54633
741.74        64.61745
742.16         64.6565
742.57        64.67657
742.99        64.72478
743.41        64.77125
743.83        64.75117
744.25         64.6558
744.67        64.49189
745.08        64.32566
745.50        64.24619
745.92        64.28143
746.34        64.39636
746.75        64.52734
747.17        64.56017
747.59        64.48053
748.01         64.3304
748.42        64.16621
748.84        64.10464
749.26        64.17257
749.68        64.24306
750.09        64.31023
750.51        64.52571
750.93        64.76362
751.35        64.68549
751.76        64.36528
752.18         63.8865
752.60        63.93328
753.01        63.77348
753.43        63.62603
753.85        63.49119
754.27        63.35419
754.68        63.80334
755.10        63.82971
755.52        63.89011
755.93          64.114
756.35         64.1576
756.77        64.20953
757.18        64.27905
757.60        64.38242
758.02        64.67709
758.43        65.05045
758.85        64.64542
759.26        64.51926
759.68        64.12034
760.10        63.88123
760.51        64.09544
760.93        64.65921
761.34        64.64349
761.76        64.62024
762.18        64.59745
762.59         64.7977
763.01        64.82366
763.42        64.78658
763.84        64.72172
764.26        64.68528
764.67        64.52361
765.09        64.33909
765.50        64.39278
765.92        64.62814
766.33        64.56644
766.75        64.17471
767.16        63.97683
767.58         63.9544
768.00        63.81738
768.41        63.66978
768.83        63.67699
769.24        63.83287
769.66        64.39822
770.07        65.09784
770.49        64.78149
770.90        63.76083
771.32        63.94768
771.73        65.19471
772.15        65.59114
772.56        65.06454
772.97        64.58241
773.39        64.36217
773.80        64.49728
774.22         64.9102
774.63        65.16285
775.05         65.1207
775.46        65.11539
775.88        65.10102
776.29        64.83902
776.70        64.45044
777.12        64.31337
777.53        64.49423
777.95         64.8418
778.36         65.2347
778.77        65.43498
779.19        65.39583
779.60        65.21884
780.02        64.97372
780.43        64.84137
780.84        64.89256
781.26        64.79948
781.67        64.65729
782.09        65.21696
782.50        66.17813
782.91        66.10789
783.33        65.14062
783.74        64.77385
784.15        65.08983
784.57        65.27518
784.98        65.26379
785.39        65.22467
785.81        65.18884
786.22        65.32379
786.63        65.58573
787.04        65.69811
787.46        65.65694
787.87        65.59081
788.28        65.55437
788.70        65.55602
789.11        65.58556
789.52        65.65984
789.93        65.73983
790.35        65.75195
790.76        65.69233
791.17        65.57628
791.58        65.44492
792.00        65.32114
792.41        65.23517
792.82        65.25526
793.23        65.34939
793.65        65.26723
794.06        65.09934
794.47        65.31185
794.88        65.79895
795.29        66.02133
795.71        65.91592
796.12        65.79617
796.53        65.72993
796.94        65.71625
797.35        65.78165
797.76        65.92699
798.18        66.08007
798.59        66.16974
799.00        66.15363
799.41        66.06046
799.82        65.94049
800.23        65.88042
800.64         65.8976
801.06        65.92658
801.47        65.97522
801.88        65.97437
802.29        65.89872
802.70        65.76676
803.11        65.58573
803.52        65.36378
803.93        65.14669
804.34        64.96567
804.75        64.85065
805.17        64.94894
805.58         65.3276
805.99        65.55709
806.40        65.69079
806.81        66.69349
807.22         68.1189
807.63        67.93642
808.04        66.40471
808.45        65.72491
808.86        66.07642
809.27        66.26083
809.68        66.13199
810.09        66.02544
810.50        65.91795
810.91         65.7376
811.32        65.59959
811.73        65.67307
812.14        65.98002
812.55        66.47341
812.96        66.98965
813.37        67.21287
813.78        67.05567
814.19        66.63477
814.60        66.11127
815.01        65.70277
815.42        65.46684
815.83        65.33725
816.24        65.30157
816.65         65.3343
817.05        65.42312
817.46        65.57172
817.87         65.7384
818.28        65.80053
818.69        65.74055
819.10        65.56562
819.51        65.40874
819.92        65.51859
820.33        65.93664
820.74        66.56937
821.14        67.20823
821.55        67.51872
821.96        67.42409
822.37        67.02777
822.78        66.49903
823.19        66.12981
823.60        66.02352
824.00        66.12361
824.41        66.31181
824.82        66.48276
825.23        66.57716
825.64        66.64002
826.04        66.68407
826.45        66.68039
826.86        66.64752
827.27        66.58994
827.68        66.51347
828.08        66.46712
828.49        66.41608
828.90        66.36136
829.31        66.35816
829.72        66.49486
830.12        66.79405
830.53        67.17275
830.94        67.48242
831.35        67.42516
831.75         66.9642
832.16        66.18899
832.57        65.35329
832.97        64.83655
833.38        64.74412
833.79        64.94807
834.20        65.33532
834.60        65.71798
835.01        66.01989
835.42        66.33208
835.82        66.60004
836.23        66.65221
836.64        66.49818
837.04        66.13766
837.45        65.79996
837.86        65.93231
838.26        66.63374
838.67        67.74278
839.08        68.86912
839.48        69.26225
839.89        68.73079
840.29        67.54858
840.70         66.2836
841.11        65.58173
841.51         65.6141
841.92        66.16213
842.33        67.00342
842.73        67.74015
843.14         68.1041
843.54        68.25874
843.95        68.27422
844.35        68.31596
844.76        68.41545
845.17        68.50011
845.57        68.51556
845.98        68.36848
846.38        68.07027
846.79        67.66413
847.19        67.26129
847.60        67.00089
848.00        66.93217
848.41        67.00217
848.81        67.14227
849.22        67.15246
849.62        67.02715
850.03        66.81078
850.43        66.61604
850.84        66.56149
851.24        66.72055
851.65        66.98074
852.05        67.36002
852.46        67.77406
852.86         68.1628
853.27        68.53388
853.67        68.74245
854.07        68.70269
854.48        68.39435
854.88        67.87426
855.29        67.23922
855.69        66.80724
856.10        66.61723
856.50        66.67274
856.90        66.84142
857.31        66.90478
857.71        66.84171
858.12        66.64713
858.52        66.42016
858.92        66.21853
859.33        66.05162
859.73         65.9361
860.13        65.79781
860.54        65.54324
860.94        65.20946
861.34        64.83661
861.75        64.52623
862.15        64.47498
862.55        64.69881
862.96        65.08805
863.36        65.58458
863.76        66.00737
864.17        66.26322
864.57        66.42116
864.97        66.39432
865.38        66.06763
865.78        65.48405
866.18        64.67703
866.58        63.89256
866.99        63.56685
867.39         63.8353
867.79        64.57456
868.19        65.50581
868.60        66.17133
869.00        66.47138
869.40        66.48056
869.80        66.35075
870.21        66.37722
870.61        66.69119
871.01        67.11949
871.41        67.43217
871.81        67.32375
872.22        66.74514
872.62         65.8062
873.02        64.78629
873.42        64.14978
873.82        64.03942
874.22        64.33566
874.63        64.75327
875.03        64.84751
875.43        64.49718
875.83        63.85032
876.23        63.17256
876.63        62.86769
877.03         63.0318
877.44        63.50373
877.84        64.06863
878.24        64.39025
878.64        64.32094
879.04        63.83218
879.44         63.2151
879.84        63.02092
880.24        63.31869
880.64        63.88928
881.04        64.40708
881.44        64.37497
881.84         63.6936
882.24        62.56975
882.65        61.37483
883.05        60.66653
883.45        60.60169
883.85        61.02112
884.25        61.70813
884.65        62.28322
885.05        62.60191
885.45        62.76814
885.85        62.85667
886.25        62.98557
886.65         63.1896
887.05        63.39525
887.45        63.56756
887.85        63.67507
888.25        63.70191
888.65        63.67456
889.04        63.59782
889.44        63.49591
889.84        63.37035
890.24        63.22066
890.64         63.0654
891.04        62.94016
891.44        62.85227
891.84        62.79626
892.24        62.75627
892.64         62.6924
893.04        62.61544
893.44        62.57813
893.83        62.59935
894.23        62.65873
894.63        62.77257
895.03        62.88621
895.43        63.10525
895.83         63.6119
896.23        64.38002
896.63        65.31966
897.02        66.06725
897.42        66.07586
897.82        65.27806
898.22        63.91806
898.62        62.44393
899.01           61.52
899.41        61.33032
899.81        61.66449
900.21        62.30931
900.61        62.90202
901.00        63.28998
901.40        63.56849
901.80        63.71727
902.20        63.69574
902.59        63.53121
902.99        63.20711
903.39        62.81623
903.79        62.54081
904.18         62.4202
904.58        62.41141
904.98        62.50647
905.38        62.68007
905.77        62.90984
906.17        63.23935
906.57        63.50861
906.96        63.45419
907.36        63.03304
907.76        62.32457
908.15        61.68678
908.55        61.67511
908.95        62.39233
909.34        63.66787
909.74          65.008
910.14        65.66991
910.53        65.42981
910.93        64.54694
911.33        63.37135
911.72        62.44162
912.12        61.99413
912.52        61.87213
912.91        61.96006
913.31        62.10113
913.70        62.23348
914.10        62.39162
914.49        62.65688
914.89        63.05871
915.29        63.59834
915.68         64.2308
916.08        64.72996
916.47        64.81609
916.87        64.46093
917.26        63.74459
917.66        63.01609
918.05        62.66517
918.45        62.78631
918.84         63.3199
919.24        63.97047
919.64        64.34286
920.03        64.31767
920.42        63.95717
920.82        63.55758
921.21        63.52585
921.61         63.9296
922.00        64.68706
922.40        65.40642
922.79        65.54983
923.19        64.97541
923.58        63.91704
923.98        62.83652
924.37        62.33817
924.77        62.55914
925.16        63.26723
925.55        64.15369
925.95        64.66255
926.34        64.62705
926.74         64.2093
927.13        63.56295
927.52        62.86451
927.92        62.26761
928.31        61.71858
928.70        61.32166
929.10        61.21783
929.49        61.40273
929.89        61.79237
930.28        62.38696
930.67        63.04866
931.07        63.66575
931.46        64.32077
931.85         64.7524
932.24        64.61132
932.64         63.9209
933.03         62.7691
933.42         61.6916
933.82        61.46927
934.21         62.2442
934.60        63.84613
934.99        65.69088
935.39        66.70333
935.78        66.59875
936.17        65.57852
936.56        64.23271
936.96        63.50332
937.35        63.63044
937.74        64.33606
938.13        65.08978
938.53        65.08057
938.92        64.15599
939.31        62.65966
939.70        61.13961
940.09          60.349
940.49        60.43242
940.88         61.1882
941.27        62.25089
941.66        62.95448
942.05         63.0826
942.44        62.85635
942.84        62.55069
943.23          62.591
943.62        63.07943
944.01        63.78074
944.40        64.55474
944.79        65.21719
945.18        65.65443
945.57        65.93591
945.97        65.86296
946.36        65.20985
946.75        63.98701
947.14        62.37594
947.53        60.81418
947.92        59.90762
948.31        59.78483
948.70        60.29986
949.09        61.18453
949.48        61.94234
949.87        62.38023
950.26         62.5936
950.65         62.6893
951.04        62.87334
951.43        63.18734
951.82        63.50779
952.21        63.71542
952.60        63.65704
952.99        63.32681
953.38        62.84466
953.77        62.33121
954.16         61.9513
954.55        61.75384
954.94        61.66525
955.33        61.71886
955.72        61.95757
956.11        62.35758
956.50        62.93684
956.89        63.42888
957.28        63.38658
957.66        62.73944
958.05        61.65473
958.44        60.60177
958.83        60.27852
959.22        60.79392
959.61        61.94168
960.00        63.24061
960.39        63.79104
960.78        63.32281
961.16        62.13351
961.55        60.72805
961.94        59.74304
962.33        59.36816
962.72        59.46437
963.11        59.84573
963.49        60.18924
963.88        60.29993
964.27        60.27363
964.66        60.36423
965.04        60.98074
965.43        62.12444
965.82        63.68834
966.21        65.11731
966.60        65.37395
966.98        64.20444
967.37        62.09007
967.76         59.8722
968.15        58.59373
968.53        58.45499
968.92        59.18391
969.31        60.35241
969.69        61.08731
970.08        61.00051
970.47        60.40215
970.86        59.72492
971.24         59.5761
971.63        60.08962
972.02        61.04212
972.40        62.13301
972.79        62.57137
973.17        62.19202
973.56        61.30125
973.95         60.2865
974.33        59.61946
974.72        59.41347
975.11        59.46247
975.49        59.73193
975.88        60.09771
976.26        60.51419
976.65        61.00803
977.04        61.34448
977.42        61.11442
977.81        60.25413
978.19        58.85935
978.58        57.53576
978.96        57.23188
979.35        58.13247
979.74        60.00662
980.12        62.20119
980.51        63.28917
980.89        62.99497
981.28        61.72987
981.66        60.24167
982.05        59.58339
982.43        60.02448
982.82        61.21603
983.20        62.88263
983.59        64.40477
983.97        65.54797
984.35          66.448
984.74        66.95335
985.12        67.05782
985.51        66.73856
985.89        66.00061
986.28        65.15587
986.66        64.62488
987.04        64.57127
987.43        64.89216
987.81        65.40686
988.20        65.61719
988.58         65.3869
988.96         64.7791
989.35        64.03672
989.73        63.49144
990.12        63.21793
990.50        63.20774
990.88        63.15115
991.27         62.5598
991.65         61.4026
992.03        59.86716
992.42        58.65144
992.80         58.6911
993.18          60.146
993.56        62.81127
993.95        65.71931
994.33        67.15382
994.71         66.4603
995.10        64.24159
995.48        61.67859
995.86        60.61289
996.24        61.46489
996.63        63.60674
997.01        66.38055
997.39        68.04447
997.77        67.88947
998.15        66.62084
998.54        64.69843
998.92        62.63825
999.30        60.82066
999.68        59.06652
1000.06        57.93219
1000.45        58.22293
1000.83        60.10825
1001.21        63.54696
1001.59        67.63864
1001.97        70.06992
1002.35        69.96408
1002.73        67.98485
1003.12        65.51947
1003.50        64.37035
1003.88        65.05232
1004.26        66.89174
1004.64         69.5004
1005.02        71.95053
1005.40        73.62311
1005.78        74.94379
1006.16         75.2681
1006.54        73.56451
1006.92        70.05338
1007.30        65.22276
1007.69        60.83305
1008.07        59.26696
1008.45        61.15968
1008.83        66.02901
1009.21         72.5103
1009.59        76.98883
1009.97        77.59555
1010.35        75.25597
1010.73        71.16316
1011.11        67.16542
1011.49        64.05928
1011.86        61.42671
1012.24        59.53257
1012.62        58.70964
1013.00        58.91422
1013.38        60.21535
1013.76        62.29634
1014.14        64.07259
1014.52        64.91343
1014.90        64.88248
1015.28        64.25491
1015.66         63.5946
1016.04        63.09426
1016.41        62.61246
1016.79        62.08368
1017.17        61.53042
1017.55        60.98354
1017.93        60.49114
1018.31        60.24523
1018.69        60.43675
1019.06        61.13127
1019.44        62.43755
1019.82        63.86993
1020.20        64.31525
1020.58        63.41011
1020.95         61.3487
1021.33        59.53038
1021.71        59.57242
1022.09        61.71966
1022.46        65.95383
1022.84        70.70765
1023.22        72.07137
1023.60        68.71486
1023.97        61.97137
1024.35        55.49193
1024.73        53.37494
