SpectraSmart Spectrum 2.9.0.0
--------- Device Information -----------
Spectrum Name :  反射率_0
Saving Time :  2024/04/26 22:30:39
Spectro-Module Model Name : SE2030-DUVN
Spectro-Module Serial Number : OS361AC55029948
Wavelength Start : 200
Wavelength End : 1025
Wavelength Unit : Wavelength(nm)
Spectrum Unit : Reflectance(%)
-----------Spectrum Setting ------------
Integration Time : 20ms
Average : 10
Boxcar : 0
Background removal :  enabled
linearity correction :  enabled
SC :  disabled
Intensity correction :  disabled
DWT denoise :  enabled
savitzky-golay :  disabled
FFT :  disabled
Running average :  disabled
Kalman :  disabled
High pass :  disabled
---------------BEGIN--------------------
Wavelength(nm)             Reflectance(%)
200.29               0
200.75        59.41461
201.21        52.85049
201.67        47.52432
202.13        45.28839
202.58        46.06887
203.04        49.78712
203.50        56.52107
203.96        64.58907
204.42        72.01651
204.88        78.44849
205.34        82.54769
205.80        83.41472
206.26        81.31022
206.72        76.44421
207.18        71.24065
207.64        67.57188
208.10        65.30926
208.55        64.68606
209.01        64.22445
209.47        61.51565
209.93        57.43374
210.39        54.24768
210.85        53.41349
211.31        56.07317
211.77        63.40633
212.23        80.21473
212.69         121.815
213.14        190.3775
213.60        184.4647
214.06        134.3979
214.52        100.1443
214.98        82.53994
215.44        71.93813
215.90        62.62146
216.36        55.57233
216.81        53.61517
217.27        57.90998
217.73        70.33151
218.19        87.94583
218.65        92.31602
219.11         78.3319
219.57        59.28202
220.02        46.42966
220.48        44.48375
220.94        51.89863
221.40        68.48206
221.86        94.03033
222.32        112.8509
222.77        109.6345
223.23        94.51583
223.69        77.43851
224.15         63.9611
224.61        54.21693
225.06        46.18314
225.52        40.93169
225.98        39.55375
226.44        41.40688
226.90          45.819
227.36        50.58378
227.81        51.85128
228.27        49.17865
228.73        44.07236
229.19        39.05252
229.65        36.97823
230.10        37.95805
230.56        40.87375
231.02        44.04121
231.48         44.8358
231.93        42.82803
232.39        39.50114
232.85        36.16338
233.31        34.43741
233.77        34.52667
234.22        35.76588
234.68        37.61368
235.14        39.42391
235.60        40.92641
236.05        42.46711
236.51        43.80775
236.97        44.35279
237.43         43.9934
237.88        42.80913
238.34        41.63582
238.80        42.25092
239.26        45.41175
239.71         51.6105
240.17        60.35267
240.63        69.16632
241.08        76.05261
241.54        80.24084
242.00        83.15762
242.46        89.13048
242.91        101.8313
243.37        122.8308
243.83        153.4606
244.28        182.5922
244.74        190.3057
245.20        174.1064
245.66        150.0684
246.11        134.0168
246.57        127.4491
247.03        126.3117
247.48          124.66
247.94        114.6812
248.40        99.77263
248.85         85.7602
249.31        76.43371
249.77         72.9406
250.22        74.11934
250.68        78.94562
251.14        86.14937
251.59        90.59222
252.05        89.33262
252.51        85.07912
252.96        79.30949
253.42         73.9313
253.88        69.34212
254.33        64.70898
254.79        62.13858
255.25        63.07065
255.70        66.76251
256.16        72.36639
256.62        76.55373
257.07         74.6599
257.53        68.52762
257.99        61.36405
258.44        55.53714
258.90        53.07924
259.35        52.86891
259.81        53.99981
260.27        55.18197
260.72        54.97157
261.18        53.51385
261.63        51.24324
262.09        49.14969
262.55        47.80205
263.00        47.08996
263.46        46.83016
263.91        46.38341
264.37        45.21861
264.83        43.35635
265.28         41.1099
265.74        39.14473
266.19        38.02182
266.65         37.8273
267.11        38.22371
267.56        38.79903
268.02        38.90483
268.47        38.35852
268.93         37.3865
269.38        36.18858
269.84        35.11839
270.30        34.27373
270.75        33.53443
271.21        32.87792
271.66        32.23413
272.12        31.57944
272.57        30.93533
273.03        30.30439
273.48        29.66472
273.94         29.0535
274.39        28.44535
274.85        27.86895
275.31        27.25532
275.76        26.58864
276.22        25.91765
276.67        25.28507
277.13        24.81768
277.58         24.4869
278.04        24.26563
278.49        24.02506
278.95        23.67002
279.40        23.15063
279.86        22.57726
280.31        21.98004
280.77        21.47851
281.22        21.07274
281.68        20.76008
282.13        20.52661
282.59          20.415
283.04          20.392
283.50        20.45884
283.95        20.53954
284.41        20.51252
284.86        20.36226
285.32        20.15374
285.77        19.95849
286.22        19.92989
286.68        20.08893
287.13         20.3434
287.59        20.65208
288.04        20.91532
288.50        21.10937
288.95        21.24327
289.41        21.29764
289.86        21.19012
290.32        20.96752
290.77        20.66619
291.22        20.42372
291.68        20.43186
292.13        20.73117
292.59         21.2949
293.04        22.04025
293.50        22.83982
293.95         23.6419
294.40        24.48095
294.86        25.39755
295.31        26.44902
295.77        27.64916
296.22        28.95441
296.68        30.32022
297.13        31.67514
297.58        33.01531
298.04        34.37243
298.49        35.79475
298.95        37.36917
299.40        39.09779
299.85        40.94889
300.31        42.86643
300.76        44.75018
301.21        46.58045
301.67        48.39859
302.12        50.20882
302.58        52.09658
303.03         54.0348
303.48         56.0169
303.94         58.0392
304.39         60.0404
304.84        62.03737
305.30         64.0642
305.75        66.08522
306.20        68.12669
306.66         70.1965
307.11         72.2366
307.57        74.25779
308.02        76.18116
308.47        78.00896
308.93        79.75587
309.38        81.40972
309.83        83.06841
310.29         84.7553
310.74        86.44283
311.19        88.05044
311.65        89.41597
312.10        90.48401
312.55        91.29588
313.00         92.0056
313.46        92.86259
313.91        93.90368
314.36        95.09221
314.82        96.26622
315.27        97.17287
315.72        97.73127
316.18        98.04618
316.63        98.25758
317.08        98.63416
317.53        99.24577
317.99        100.0008
318.44        100.7829
318.89        101.3733
319.35        101.7043
319.80        101.8454
320.25        101.9013
320.70         102.038
321.16        102.3041
321.61        102.6967
322.06        103.1101
322.51        103.3824
322.97        103.4662
323.42        103.4145
323.87        103.4108
324.32          103.77
324.78        104.5104
325.23        105.6108
325.68        106.6936
326.13        107.1372
326.59        106.8017
327.04         105.908
327.49        104.9207
327.94        104.6058
328.39        105.1514
328.85         106.302
329.30        107.7681
329.75        108.7638
330.20        109.0217
330.66        108.7355
331.11        108.2505
331.56        108.0489
332.01        108.2883
332.46        108.7847
332.92        109.3164
333.37        109.6879
333.82        109.7626
334.27        109.6927
334.72        109.5682
335.17        109.4972
335.63        109.5395
336.08         109.719
336.53         110.099
336.98        110.8361
337.43        111.9229
337.88        113.2623
338.34        114.6592
338.79        115.9016
339.24        116.8206
339.69        117.4622
340.14        117.7605
340.59        117.6515
341.05        117.2231
341.50        116.5249
341.95        115.8697
342.40        115.7264
342.85        116.1953
343.30         117.159
343.75        118.3369
344.20        119.2343
344.66        119.6974
345.11        119.8478
345.56        119.8308
346.01        119.8962
346.46        120.1297
346.91        120.4469
347.36        120.7816
347.81        121.0573
348.26        121.2403
348.72        121.3527
349.17        121.4491
349.62        121.6393
350.07        121.9346
350.52        122.3217
350.97        122.6018
351.42        122.4658
351.87        121.8856
352.32        120.9684
352.77        120.0808
353.22        119.7575
353.67        120.0812
354.13        120.8839
354.58        121.7608
355.03        121.9917
355.48        121.4044
355.93        120.2279
356.38        118.9117
356.83        118.1337
357.28        118.0279
357.73        118.3448
358.18        118.7219
358.63        118.5825
359.08        117.7754
359.53         116.525
359.98        115.0696
360.43        113.7362
360.88         112.631
361.33        111.6538
361.78         110.764
362.23        109.9136
362.68        109.0909
363.13        108.3472
363.58        107.6683
364.03        107.0046
364.48        106.3292
364.93        105.6133
365.38        104.8844
365.83        104.2116
366.28        103.6041
366.73        103.0475
367.18        102.4471
367.63        101.6508
368.08         100.647
368.53        99.50148
368.98        98.37006
369.43        97.49451
369.88        96.92791
370.33        96.59166
370.78        96.35073
371.23        95.98117
371.68        95.40906
372.13        94.69449
372.58        93.90502
373.03        93.14959
373.48        92.46043
373.93        91.79135
374.38        91.11609
374.83        90.40933
375.28        89.66466
375.72        88.88501
376.17        88.13801
376.62        87.40355
377.07        86.70166
377.52        86.06989
377.97        85.49709
378.42        84.98017
378.87        84.52315
379.32        84.08303
379.77        83.76945
380.22        83.74677
380.67        83.99327
381.11        84.47443
381.56        84.80676
382.01        84.44428
382.46         83.3297
382.91        81.72008
383.36        80.10828
383.81        79.16825
384.26        79.01317
384.71        79.41785
385.15        80.08559
385.60        80.49133
386.05        80.45683
386.50        80.13314
386.95        79.60927
387.40        79.03034
387.85        78.47372
388.29        77.84299
388.74        77.28431
389.19        76.81327
389.64        76.43025
390.09        76.13432
390.54        75.89178
390.98        75.61753
391.43        75.33895
391.88        75.06783
392.33        74.82741
392.78        74.64986
393.23        74.53607
393.67        74.43086
394.12        74.37962
394.57        74.31237
395.02        74.20811
395.47        74.04539
395.91        73.85803
396.36        73.67848
396.81        73.55126
397.26        73.48311
397.71         73.3821
398.15        73.15551
398.60        72.89162
399.05        72.34304
399.50         71.7261
399.95        71.87241
400.39        72.58108
400.84        72.50058
401.29        71.66188
401.74        71.24598
402.18        71.31368
402.63        71.13853
403.08         70.7668
403.53        70.58601
403.97         70.6037
404.42        70.71408
404.87        70.82337
405.32        70.75446
405.76        70.46653
406.21        70.13525
406.66        69.83727
407.11        69.53576
407.55        69.38109
408.00         69.6456
408.45        70.21116
408.90        70.62947
409.34        70.69309
409.79        70.27345
410.24        69.61147
410.68        69.30757
411.13        69.44424
411.58         69.7141
412.03        69.92773
412.47        69.89417
412.92        69.53462
413.37        68.96688
413.81        68.39704
414.26        68.17947
414.71        68.35365
415.15        68.84148
415.60         69.4491
416.05        69.90665
416.49        70.11422
416.94        70.13546
417.39        70.06805
417.83        70.05705
418.28        70.14915
418.73        70.27796
419.17         70.4122
419.62        70.51565
420.07        70.56762
420.51        70.57837
420.96         70.5656
421.41        70.48657
421.85        70.32597
422.30        70.18088
422.74        70.03138
423.19        69.92587
423.64        69.86823
424.08        69.93395
424.53        70.09978
424.98        70.31709
425.42         70.5787
425.87         70.8938
426.31        71.20547
426.76        71.33952
427.21        71.30949
427.65        71.24197
428.10        71.18444
428.54        71.19366
428.99        71.32533
429.44        71.41218
429.88        71.49062
430.33        71.88596
430.77        72.40538
431.22        72.69336
431.66         72.6762
432.11        72.46457
432.56         72.2459
433.00        72.19321
433.45        72.44866
433.89        73.26461
434.34        74.07645
434.78        74.22823
435.23        74.10188
435.67        71.81307
436.12          72.934
436.57        73.10426
437.01        73.68941
437.46        73.90517
437.90        73.70651
438.35        73.49131
438.79        73.36013
439.24         73.3862
439.68         73.5658
440.13        74.05634
440.57        74.70339
441.02        74.77308
441.46        74.38839
441.91        74.67095
442.35        75.37722
442.80        75.59122
443.24        75.31723
443.69        75.21202
444.13        75.36115
444.58        75.72295
445.02        76.21239
445.47         76.5324
445.91        76.66408
446.36        76.92328
446.80        77.28603
447.24        77.53249
447.69        77.65836
448.13        77.75229
448.58        77.83613
449.02        77.86217
449.47        77.86276
449.91        77.85061
450.36        77.85666
450.80        77.86343
451.25        77.88962
451.69        77.89262
452.13        77.88849
452.58        77.88241
453.02        77.87897
453.47        77.91311
453.91        77.98259
454.36        78.02638
454.80         78.0175
455.24        78.01694
455.69        77.96201
456.13        77.62199
456.58        77.15912
457.02        76.69675
457.46        76.49454
457.91        76.67648
458.35        77.01018
458.79        76.86232
459.24        76.26182
459.68        75.44234
460.13        74.71609
460.57          74.522
461.01        75.02716
461.46        75.27488
461.90         75.9731
462.34        77.00494
462.79        76.99729
463.23        76.63526
463.68        77.01357
464.12        76.55918
464.56        75.78703
465.01        74.87624
465.45        74.05214
465.89        73.75833
466.34        73.90884
466.78        74.29656
467.22        74.80429
467.67        74.40801
468.11        74.37681
468.55        74.47577
468.99        74.97327
469.44         75.0624
469.88        74.73426
470.32        74.44503
470.77        74.26656
471.21        74.12775
471.65         74.0406
472.10        74.03391
472.54        74.06901
472.98        74.05494
473.42        73.96359
473.87        73.95047
474.31         73.9245
474.75        73.56837
475.20        73.02805
475.64        72.85648
476.08        73.08084
476.52        73.12328
476.97        72.92447
477.41        73.07116
477.85         73.6087
478.29        73.08734
478.74        73.24145
479.18        73.60567
479.62        73.46407
480.06        73.46131
480.50        73.24886
480.95        72.98279
481.39        72.69688
481.83        72.86895
482.27        72.35057
482.72        73.28305
483.16         72.9745
483.60        73.01755
484.04        73.30832
484.48        73.40017
484.93        73.01939
485.37        73.35907
485.81        72.35387
486.25        71.42751
486.69        69.46304
487.14        72.71949
487.58        74.41422
488.02         73.0537
488.46        72.21006
488.90        72.06268
489.34        73.74356
489.79        74.54952
490.23        73.99371
490.67        73.05225
491.11        72.07434
491.55        71.99684
491.99        72.70374
492.43         72.8351
492.88        72.32719
493.32        72.11539
493.76        72.28141
494.20        72.43015
494.64         72.5462
495.08        72.82344
495.52        73.12116
495.96        73.05727
496.41        72.69852
496.85        72.44713
497.29        72.30169
497.73        72.55331
498.17        72.23019
498.61        72.22857
499.05        72.23775
499.49        72.30692
499.93        72.18845
500.37        72.26038
500.82        72.42466
501.26        72.48811
501.70         72.4603
502.14         72.5483
502.58        72.74612
503.02        72.87794
503.46        72.92828
503.90        72.99043
504.34        73.03277
504.78        72.95028
505.22        72.71907
505.66        72.45087
506.10        72.24414
506.54        72.00587
506.98        71.70662
507.42        72.32442
507.86        72.03358
508.30        72.18569
508.74         72.2247
509.18        72.21323
509.62        72.15885
510.06        72.11584
510.50        72.11507
510.94        72.11813
511.38        72.13592
511.82        72.18749
512.26        72.27063
512.70        72.38271
513.14        72.49522
513.58        72.55929
514.02        72.56454
514.46        72.52238
514.90         72.4642
515.34        72.44395
515.78        72.47227
516.22        72.52885
516.66        72.58664
517.10        72.60102
517.54        72.56323
517.98        72.49773
518.42        72.41569
518.86        72.33362
519.30         72.2625
519.74        72.19331
520.18        72.15548
520.62        72.19383
521.06        72.31203
521.50        72.50337
521.93        72.70483
522.37        72.78803
522.81        72.73859
523.25        72.58714
523.69        72.42789
524.13        72.41264
524.57         72.5634
525.01        72.81748
525.45        73.07356
525.89        73.16883
526.32         73.0541
526.76        72.81042
527.20        72.49295
527.64        72.19275
528.08         71.9529
528.52         71.7523
528.96        71.61833
529.40        71.59245
529.83         71.6685
530.27        71.84271
530.71        72.04464
531.15        72.16405
531.59        72.17142
532.03        72.08618
532.46        71.94753
532.90        71.87473
533.34         71.8817
533.78        71.89555
534.22        71.88209
534.66        71.87943
535.09        71.82555
535.53        71.57605
535.97        71.20045
536.41        70.98977
536.85        70.97729
537.28        71.01971
537.72        71.09048
538.16        71.20066
538.60        71.32595
539.04        71.45814
539.47        71.55818
539.91        71.61402
540.35        71.60574
540.79        71.54002
541.22        71.43844
541.66        71.36209
542.10        71.32074
542.54         71.3065
542.97         71.2939
543.41        71.27388
543.85        71.23241
544.29        71.18505
544.72        71.13678
545.16        71.13018
545.60        71.15705
546.04        71.23018
546.47        71.33541
546.91        71.40598
547.35        71.44781
547.79        71.54565
548.22        71.67686
548.66        71.74355
549.10        71.80068
549.53        71.80125
549.97        71.76588
550.41         71.6078
550.84        71.40858
551.28        71.36139
551.72        71.41917
552.15        71.47961
552.59        71.59805
553.03        71.14699
553.46        71.57662
553.90         71.5396
554.34        71.43934
554.77        71.42757
555.21        71.57236
555.65        71.28336
556.08         71.5858
556.52        71.58891
556.96        71.58021
557.39        71.68964
557.83        71.86301
558.27        71.69032
558.70        71.23283
559.14        71.05333
559.57        71.12683
560.01        71.06998
560.45        70.92218
560.88         70.9601
561.32        71.19619
561.75        71.51538
562.19        71.81612
562.63        71.75954
563.06           71.44
563.50        71.37115
563.93        71.50089
564.37        71.65192
564.80        71.75397
565.24        71.47738
565.68        70.78684
566.11        71.37477
566.55        70.69691
566.98        70.67479
567.42        70.63999
567.85        70.61842
568.29         70.8611
568.72        71.17454
569.16        71.62222
569.60        71.70245
570.03        71.62024
570.47        71.56688
570.90        71.71695
571.34        70.92346
571.77        71.23392
572.21        71.93856
572.64        71.18806
573.08         72.1402
573.51        71.02302
573.95        70.76498
574.38        70.72777
574.82        71.02769
575.25        70.86565
575.69         71.1953
576.12        71.35371
576.56        71.06321
576.99        70.53134
577.42        70.14388
577.86        70.86086
578.29        71.52606
578.73        70.98573
579.16        71.32431
579.60        70.99324
580.03        71.32697
580.47        70.87111
580.90        71.54118
581.33          71.373
581.77        71.27406
582.20        70.06799
582.64        71.01665
583.07        70.91396
583.51        71.23765
583.94        71.27131
584.37        71.30635
584.81        71.35497
585.24         71.1701
585.68        70.98103
586.11        70.52064
586.54        71.31901
586.98        70.71395
587.41        70.25142
587.85        70.76797
588.28         70.1102
588.71        70.74522
589.15         70.1848
589.58        70.60299
590.01        70.65168
590.45        70.57838
590.88        71.60686
591.31        71.51555
591.75        70.91908
592.18        70.41583
592.61        70.15656
593.05        70.78918
593.48        70.72478
593.91        70.65413
594.35        71.34491
594.78        70.49843
595.21        70.31281
595.65        70.31017
596.08        71.23345
596.51        71.02369
596.94        71.11652
597.38        70.90474
597.81        70.69497
598.24        71.61398
598.68         71.4549
599.11        70.77991
599.54        71.10666
599.97        71.05552
600.41        71.06091
600.84          70.056
601.27           70.74
601.70        70.86564
602.14        70.99178
602.57        70.85064
603.00         70.6834
603.43        69.69924
603.87        70.65928
604.30        70.87355
604.73        71.13014
605.16         70.5741
605.60        70.54993
606.03        70.12589
606.46        69.75059
606.89        69.95162
607.32         70.3269
607.76          70.253
608.19        70.44321
608.62        70.51876
609.05         70.6208
609.48        70.65926
609.92        71.46793
610.35        71.18434
610.78        70.09174
611.21        70.37939
611.64        70.25796
612.07        70.64665
612.50        70.55643
612.94        70.63536
613.37        70.73029
613.80        70.47097
614.23        70.00531
614.66        69.90611
615.09        70.19559
615.52        70.31312
615.96        70.17584
616.39        70.26887
616.82        70.64938
617.25         69.9269
617.68        70.23933
618.11        70.22685
618.54        70.46809
618.97        70.64996
619.40        70.71194
619.84        70.60019
620.27        70.19098
620.70        70.17963
621.13        70.40499
621.56        70.04478
621.99        69.23859
622.42        68.98134
622.85        69.29323
623.28        69.51038
623.71         69.6012
624.14        69.60281
624.57        70.05909
625.00        70.11405
625.43        70.06447
625.86        70.00534
626.29        70.11087
626.72        69.36102
627.15           69.81
627.58        69.76917
628.01         69.7553
628.44        69.82744
628.87        69.75455
629.30        69.57529
629.73        69.24826
630.16        69.69329
630.59        69.68346
631.02        70.03748
631.45        70.30592
631.88        70.47066
632.31        70.48172
632.74        70.32809
633.17        70.08578
633.60        69.87002
634.03         69.7238
634.46         69.6424
634.89        69.59303
635.32        69.46955
635.75        69.30023
636.18        69.18764
636.61        69.16637
637.04        69.18772
637.47        69.24866
637.89        69.40709
638.32        69.58091
638.75         69.6247
639.18        69.50814
639.61        69.42155
640.04        69.17541
640.47        69.10824
640.90        69.16955
641.33         69.3284
641.76        69.51376
642.18        69.62109
642.61        69.60012
643.04        69.49358
643.47        69.35606
643.90        69.27459
644.33        69.27155
644.76         69.3158
645.18        69.37496
645.61        69.37831
646.04        69.31905
646.47        69.23255
646.90        69.14236
647.33        69.06843
647.75         68.9921
648.18         68.9707
648.61        69.05284
649.04        69.03128
649.47        68.84381
649.89         69.6356
650.32        69.47457
650.75        69.47494
651.18        69.17123
651.61        69.11401
652.03        69.34711
652.46           69.47
652.89        69.44776
653.32        69.51789
653.74        69.60815
654.17        69.03037
654.60        69.80479
655.03        69.09251
655.46        67.47878
655.88        68.13252
656.31        68.85867
656.74        63.73781
657.16        69.16307
657.59        76.30151
658.02        71.37283
658.45        70.45464
658.87        69.49635
659.30        69.73339
659.73        69.45002
660.15        70.53301
660.58        69.55442
661.01        69.37186
661.44        69.27521
661.86        68.91385
662.29        68.37132
662.72        68.98058
663.14        69.27369
663.57        69.21161
664.00        68.56325
664.42        68.49312
664.85        69.04277
665.27         69.5655
665.70        69.86827
666.13        70.00645
666.55        69.94077
666.98        69.58337
667.41        69.04166
667.83        68.95511
668.26         68.6637
668.69        68.68652
669.11        68.79731
669.54        68.96318
669.96        69.15564
670.39        69.40981
670.82        69.65328
671.24        69.67876
671.67        69.49113
672.09        69.23191
672.52        69.01589
672.94        68.90204
673.37         68.9199
673.80        69.03036
674.22        69.19157
674.65        69.30728
675.07        69.35796
675.50        69.33871
675.92        69.26701
676.35        69.17059
676.77        69.06588
677.20        68.94142
677.62        68.81429
678.05        68.71746
678.47        68.65737
678.90        68.63528
679.32        68.64255
679.75        68.67281
680.17        68.71549
680.60        68.77539
681.02        68.83772
681.45        68.88213
681.87        68.91862
682.30        68.91082
682.72        68.89619
683.15        68.96527
683.57        69.10503
684.00        69.12957
684.42        69.06578
684.85        69.10795
685.27         69.2505
685.70        69.39651
686.12        69.48895
686.54        69.50211
686.97        69.42104
687.39        69.26423
687.82        69.07511
688.24        68.94554
688.66        68.89996
689.09        68.91926
689.51        68.98719
689.94        69.04158
690.36        69.07063
690.78        69.07062
691.21        69.07808
691.63        69.14019
692.06        69.26508
692.48        69.45399
692.90        69.60319
693.33        69.58775
693.75        69.38515
694.17        69.00716
694.60        68.62752
695.02        68.55111
695.44        68.80544
695.87        69.26348
696.29        69.71529
696.71         69.7485
697.14        69.38171
697.56        68.93522
697.98         68.5657
698.41        68.64986
698.83        68.53148
699.25        68.89127
699.68        69.33927
700.10        69.55492
700.52        69.43583
700.94         69.1106
701.37         68.7503
701.79        68.61293
702.21        68.75882
702.64        69.08039
703.06        69.45988
703.48        69.69396
703.90        69.71728
704.33        69.59559
704.75        69.39184
705.17        69.19321
705.59         69.0476
706.01        68.93535
706.44        68.86044
706.86        68.86739
707.28        68.95085
707.70        69.05968
708.12        69.20142
708.55        69.47406
708.97        69.81006
709.39        69.93874
709.81        69.86128
710.23        69.83914
710.66        69.88299
711.08        69.85236
711.50        69.71762
711.92        69.52946
712.34          69.303
712.76        69.04798
713.19        68.81166
713.61        68.70739
714.03        68.74603
714.45         68.9059
714.87        69.14735
715.29        69.40615
715.71        69.64787
716.13         69.8645
716.56        70.02388
716.98        70.17417
717.40        70.27584
717.82        70.32007
718.24        70.27502
718.66        70.09533
719.08         69.8036
719.50        69.45409
719.92        69.13826
720.34        68.98578
720.76        69.02509
721.19         69.1902
721.61         69.4726
722.03         69.8012
722.45        70.12078
722.87        70.42705
723.29        70.62674
723.71        70.57596
724.13        70.26667
724.55        69.75912
724.97        69.19569
725.39        68.81879
725.81        68.70249
726.23         68.7635
726.65        68.93953
727.07        69.27396
727.49        69.46744
727.91        69.74089
728.33         69.9889
728.75        70.16474
729.17        70.24937
729.59        70.23714
730.01        70.15472
730.43         70.0586
730.85        69.96904
731.27        69.87502
731.69        69.77954
732.10        69.68017
732.52        69.57684
732.94        69.49696
733.36        69.45399
733.78        69.32788
734.20        69.10699
734.62        69.07367
735.04         69.3363
735.46        68.77648
735.88        69.44081
736.30        69.64427
736.72        69.95332
737.13         70.2409
737.55        70.42406
737.97        70.64707
738.39        70.79987
738.81        70.49466
739.23        69.86141
739.65        69.61075
740.06        69.76739
740.48        69.85114
740.90        69.83524
741.32        70.06035
741.74        70.46667
742.16        70.74327
742.57        70.83408
742.99         70.8027
743.41         70.6889
743.83        70.54037
744.25        70.38628
744.67        70.20248
745.08        70.04533
745.50        69.98376
745.92        70.03921
746.34        70.19495
746.75        70.37698
747.17        70.44413
747.59        70.36851
748.01        70.18533
748.42        69.96821
748.84        69.83897
749.26        69.82658
749.68         69.8886
750.09        69.96567
750.51        69.96485
750.93        69.86613
751.35        69.72743
751.76        69.56604
752.18        69.40899
752.60        69.26803
753.01        69.15087
753.43        69.06879
753.85        69.07287
754.27        69.16877
754.68        69.34509
755.10        69.54718
755.52        69.68313
755.93        69.72169
756.35        69.68298
756.77        69.65728
757.18        69.64256
757.60         69.6395
758.02        69.90588
758.43        70.40652
758.85        69.70579
759.26        70.14787
759.68        69.75413
760.10        69.31947
760.51        69.49924
760.93        69.84355
761.34        69.83421
761.76        69.86948
762.18        70.06226
762.59        70.53026
763.01        70.66524
763.42         70.5061
763.84        70.37489
764.26        70.31218
764.67        70.13406
765.09        69.93421
765.50        69.71826
765.92        69.57854
766.33        69.74761
766.75        70.08995
767.16          70.114
767.58        69.79608
768.00         69.7927
768.41        70.12456
768.83        70.20885
769.24        70.02526
769.66        70.06683
770.07         70.2617
770.49        69.97398
770.90        69.40517
771.32         69.6406
771.73        70.54625
772.15        70.89804
772.56        70.63036
772.97        70.36627
773.39        70.24705
773.80        70.24746
774.22        70.38368
774.63        70.69497
775.05        71.01747
775.46         71.1702
775.88         71.0723
776.29        70.80644
776.70        70.48995
777.12        70.33556
777.53        70.41101
777.95        70.61593
778.36        70.87069
778.77        70.99931
779.19        70.96516
779.60         70.8407
780.02         70.6655
780.43        70.53764
780.84        70.50278
781.26        70.36546
781.67        70.21202
782.09        70.50158
782.50        71.08101
782.91        71.14084
783.33        70.70805
783.74        70.56696
784.15        70.74284
784.57        70.77306
784.98        70.69466
785.39        70.77209
785.81        71.01097
786.22        71.33615
786.63        71.65816
787.04        71.83494
787.46        71.85119
787.87         71.7319
788.28        71.56734
788.70        71.48118
789.11        71.48064
789.52        71.54897
789.93        71.64908
790.35        71.71232
790.76        71.73399
791.17         71.7309
791.58        71.71285
792.00        71.67556
792.41         71.6444
792.82        71.60446
793.23        71.56271
793.65         71.5507
794.06        71.57331
794.47        71.62035
794.88        71.67454
795.29        71.69312
795.71        71.63119
796.12        71.57552
796.53        71.55875
796.94        71.52482
797.35        71.53564
797.76        71.85416
798.18         72.3242
798.59        72.48688
799.00        72.26333
799.41        71.87382
799.82        71.49907
800.23        71.35965
800.64        71.51814
801.06        71.87518
801.47        72.30243
801.88        72.48251
802.29         72.3283
802.70         71.9354
803.11        71.44456
803.52        71.08808
803.93        70.96297
804.34        71.00967
804.75        71.17408
805.17        71.43226
805.58        71.79244
805.99        71.99663
806.40        72.07327
806.81        72.66364
807.22        73.47507
807.63         73.1245
808.04        71.85048
808.45         71.2608
808.86        71.50673
809.27        71.75461
809.68        71.85577
810.09        71.94285
810.50        71.96169
810.91        71.87538
811.32        71.79821
811.73        71.91027
812.14        72.23878
812.55        72.72772
812.96        73.20071
813.37         73.3325
813.78        73.04723
814.19        72.47977
814.60        71.83948
815.01        71.40332
815.42        71.23842
815.83        71.26801
816.24        71.43066
816.65        71.60207
817.05        71.72974
817.46        71.82648
817.87        71.90807
818.28         71.9439
818.69        71.93615
819.10        71.86707
819.51        71.80041
819.92        71.86543
820.33        72.08212
820.74        72.40768
821.14        72.73692
821.55         72.8902
821.96        72.83006
822.37        72.61526
822.78        72.33489
823.19         72.1424
823.60        72.09266
824.00        72.16637
824.41        72.28287
824.82        72.41568
825.23        72.53141
825.64        72.64568
826.04        72.74553
826.45        72.76413
826.86        72.70976
827.27        72.60194
827.68        72.46854
828.08        72.39174
828.49        72.34224
828.90        72.31422
829.31        72.33681
829.72        72.45546
830.12        72.68864
830.53        72.96733
830.94        73.17981
831.35        73.08855
831.75        72.67183
832.16        71.98875
832.57        71.27032
832.97        70.85818
833.38        70.84021
833.79        71.10169
834.20        71.50761
834.60        71.83551
835.01        72.01315
835.42        72.14457
835.82        72.24099
836.23        72.23879
836.64        72.17722
837.04        72.02462
837.45        71.93636
837.86        72.24416
838.26         73.0081
838.67        74.07974
839.08        75.10258
839.48        75.39149
839.89        74.77951
840.29        73.52832
840.70        72.18179
841.11        71.33485
841.51        71.15707
841.92        71.45192
842.33        72.06325
842.73        72.71241
843.14        73.15664
843.54        73.52003
843.95         73.7909
844.35        74.00958
844.76        74.16491
845.17        74.21656
845.57        74.14084
845.98        73.89465
846.38        73.52142
846.79        73.05874
847.19        72.62688
847.60        72.38079
848.00        72.37017
848.41        72.52564
848.81        72.79136
849.22        72.97775
849.62        73.06225
850.03        73.07078
850.43        73.02854
850.84        72.91003
851.24        72.77526
851.65        72.55988
852.05        72.41588
852.46        72.49821
852.86        72.82307
853.27        73.31364
853.67        73.74317
854.07        73.91799
854.48         73.7701
854.88        73.39888
855.29          72.833
855.69        72.27577
856.10        71.76084
856.50        71.34277
856.90        71.04846
857.31        70.93767
857.71        71.06369
858.12        71.33167
858.52        71.72994
858.92        72.10676
859.33        72.37199
859.73        72.59106
860.13        72.62844
860.54        72.30408
860.94        71.66682
861.34        70.76945
861.75        69.88361
862.15        69.50188
862.55         69.7148
862.96         70.3549
863.36        71.20506
863.76        71.77834
864.17        71.89821
864.57        71.73504
864.97        71.33813
865.38        70.80259
865.78        70.23403
866.18        69.59374
866.58        69.05636
866.99        68.94341
867.39        69.33387
867.79        70.11887
868.19        71.05202
868.60        71.71857
869.00        72.03368
869.40        72.07102
869.80        71.91111
870.21        71.73376
870.61        71.68591
871.01        71.66174
871.41        71.61707
871.81        71.49733
872.22        71.27872
872.62        70.98227
873.02        70.69648
873.42        70.54212
873.82        70.54484
874.22        70.67913
874.63        70.77634
875.03        70.59103
875.43        70.07927
875.83        69.33173
876.23        68.60988
876.63        68.31322
877.03        68.52509
877.44        69.10265
877.84        69.80177
878.24        70.20152
878.64        70.13742
879.04        69.61743
879.44        68.94946
879.84        68.69959
880.24        68.95081
880.64        69.48669
881.04        69.99429
881.44        69.99225
881.84        69.38267
882.24        68.36923
882.65        67.29933
883.05        66.69005
883.45        66.68717
883.85         67.1377
884.25        67.84002
884.65        68.44241
885.05        68.80815
885.45        69.03382
885.85        69.17966
886.25        69.34265
886.65        69.55537
887.05        69.75121
887.45        69.91323
887.85        70.04169
888.25        70.11812
888.65        70.14256
889.04        70.09439
889.44        69.96199
889.84        69.73756
890.24        69.44886
890.64        69.11032
891.04        68.74565
891.44        68.39785
891.84        68.09847
892.24        67.90567
892.64        67.89306
893.04        68.06826
893.44        68.39944
893.83        68.85727
894.23        69.33224
894.63        69.78693
895.03        70.20646
895.43        70.54289
895.83        70.74225
896.23        70.77929
896.63        70.63775
897.02        70.35373
897.42        70.02365
897.82        69.68823
898.22        69.38278
898.62         69.0652
899.01        68.64016
899.41        68.13828
899.81        67.59618
900.21        67.18429
900.61        67.17182
901.00        67.58854
901.40        68.31516
901.80         69.1064
902.20        69.56871
902.59        69.60762
902.99        69.33411
903.39        68.89933
903.79        68.55921
904.18        68.39996
904.58        68.34296
904.98        68.41171
905.38        68.65475
905.77        69.05428
906.17        69.62853
906.57        70.18531
906.96        70.39103
907.36        70.16607
907.76        69.61121
908.15        69.03925
908.55         68.9368
908.95        69.41329
909.34        70.31956
909.74        71.28841
910.14        71.80593
910.53        71.69157
910.93        71.12541
911.33        70.30674
911.72        69.52735
912.12        68.97141
912.52        68.57836
912.91        68.30219
913.31        68.09413
913.70        67.93853
914.10        67.82775
914.49        67.90773
914.89        68.31704
915.29        69.06378
915.68         70.0743
916.08        70.96941
916.47        71.20551
916.87        70.70126
917.26        69.63253
917.66        68.49405
918.05        67.88017
918.45         67.9427
918.84        68.55338
919.24        69.40151
919.64        70.06527
920.03        70.38595
920.42        70.42988
920.82        70.39827
921.21        70.55262
921.61        70.93132
922.00         71.4739
922.40        71.90401
922.79        71.92159
923.19        71.44641
923.58        70.64915
923.98        69.85538
924.37        69.45358
924.77         69.5462
925.16         69.9753
925.55        70.55804
925.95        70.94812
926.34        71.03905
926.74        70.91299
927.13        70.61371
927.52        70.14634
927.92        69.61448
928.31        69.01672
928.70        68.50854
929.10        68.30522
929.49        68.42644
929.89        68.74985
930.28        69.27385
930.67        69.85826
931.07        70.38228
931.46        70.94205
931.85        71.25259
932.24        70.92092
932.64        69.97805
933.03        68.54411
933.42        67.19534
933.82        66.76488
934.21        67.41054
934.60         68.9465
934.99         70.8027
935.39        71.92145
935.78        72.01738
936.17        71.28436
936.56        70.23933
936.96         69.7139
937.35          69.919
937.74        70.58022
938.13        71.26033
938.53         71.3095
938.92        70.59901
939.31        69.42751
939.70        68.19978
940.09        67.45321
940.49        67.29817
940.88        67.60125
941.27        68.17683
941.66        68.68509
942.05        68.98983
942.44        69.19661
942.84        69.38184
943.23        69.64792
943.62        70.02541
944.01        70.41917
944.40        70.78412
944.79        71.09396
945.18        71.30251
945.57        71.38686
945.97        71.27315
946.36        70.95239
946.75        70.41009
947.14        69.75344
947.53        69.02252
947.92        68.23829
948.31        67.45484
948.70        66.69167
949.09         66.1613
949.48         66.2148
949.87        66.90224
950.26        68.09463
950.65        69.42979
951.04         70.3056
951.43        70.52475
951.82        70.20825
952.21        69.60052
952.60          69.131
952.99        68.96117
953.38        69.01165
953.77        69.15329
954.16        69.18492
954.55        69.05322
954.94        68.80355
955.33        68.64839
955.72        68.92742
956.11        69.68213
956.50        70.79125
956.89         71.7778
957.28        71.86095
957.66        70.89185
958.05        69.20642
958.44         67.4253
958.83         66.4305
959.22        66.41021
959.61        67.11438
960.00        68.15614
960.39        68.80733
960.78        68.79659
961.16        68.33024
961.55        67.70818
961.94        67.27847
962.33        67.16306
962.72        67.27914
963.11        67.48259
963.49        67.57346
963.88        67.41423
964.27        67.07282
964.66        66.87032
965.04         67.3006
965.43        68.37863
965.82        70.03006
966.21        71.59895
966.60        71.83395
966.98        70.43224
967.37        67.93019
967.76        65.38214
968.15        64.11664
968.53         64.3742
968.92        65.83141
969.31        67.78464
969.69        68.80941
970.08        68.35293
970.47        66.90203
970.86        65.35545
971.24        64.97449
971.63        66.02892
972.02         68.1553
972.40        70.63419
972.79        71.76343
973.17        71.08721
973.56        69.22211
973.95        67.12453
974.33        66.02901
974.72        66.20194
975.11        67.21738
975.49        68.66843
975.88        69.69078
976.26        69.97941
976.65        69.77822
977.04        69.23312
977.42        68.50941
977.81        67.69945
978.19        66.72601
978.58        65.89651
978.96        65.70388
979.35        66.19666
979.74        67.27139
980.12        68.58892
980.51        69.25542
980.89        69.14265
981.28        68.49261
981.66        67.64104
982.05        67.05386
982.43        66.88926
982.82        66.96561
983.20        67.43349
983.59        68.44852
983.97        70.04601
984.35        72.14594
984.74        74.13142
985.12          75.199
985.51        75.05875
985.89        73.91924
986.28        72.46603
986.66        71.69079
987.04        71.91739
987.43        72.88807
987.81        74.12203
988.20        74.53558
988.58        73.85165
988.96        72.35217
989.35        70.73444
989.73        69.95285
990.12        70.17963
990.50        71.17181
990.88        72.22075
991.27        72.11543
991.65        70.62016
992.03        68.21998
992.42         65.8933
992.80        64.91632
993.18        65.57309
993.56        67.52792
993.95        69.95959
994.33        71.46703
994.71        71.41835
995.10        70.32473
995.48        68.94487
995.86          68.515
996.24        69.31799
996.63        70.78712
997.01        72.56818
997.39        73.58793
997.77        73.38264
998.15         72.4587
998.54        70.94277
998.92        68.82411
999.30        66.41877
999.68        63.83134
1000.06        61.85614
1000.45        61.59223
1000.83        63.31034
1001.21        66.84656
1001.59        71.36599
1001.97        74.65933
1002.35        75.69957
1002.73        74.95658
1003.12        73.47742
1003.50        72.64862
1003.88        72.93353
1004.26        73.78301
1004.64        74.88464
1005.02        75.60338
1005.40        75.64673
1005.78        75.49565
1006.16          74.931
1006.54        73.49514
1006.92        71.35526
1007.30        68.70923
1007.69         66.6524
1008.07        66.60394
1008.45        68.97132
1008.83         73.4883
1009.21        78.93243
1009.59        82.21509
1009.97        81.82558
1010.35        78.52947
1010.73        73.85258
1011.11        70.04635
1011.49        67.82785
1011.86        66.68395
1012.24        66.17519
1012.62        65.62242
1013.00        64.80207
1013.38        63.86593
1013.76        63.28064
1014.14          63.923
1014.52        65.97076
1014.90         68.9828
1015.28         71.6775
1015.66        72.45313
1016.04        71.12439
1016.41        68.12697
1016.79        64.71907
1017.17         63.3363
1017.55        64.58186
1017.93         67.5433
1018.31        70.86864
1018.69        72.67004
1019.06        72.47996
1019.44        70.80814
1019.82        67.99496
1020.20        65.09504
1020.58        62.93924
1020.95        61.29874
1021.33        60.43867
1021.71        60.44798
1022.09        61.26157
1022.46        63.17746
1022.84        65.68117
1023.22        67.26995
1023.60         67.2577
1023.97        65.71516
1024.35        64.20759
1024.73        64.64803
