SpectraSmart Spectrum 2.9.0.0
--------- Device Information -----------
Spectrum Name :  反射率_0
Saving Time :  2024/04/26 22:33:31
Spectro-Module Model Name : SE2030-DUVN
Spectro-Module Serial Number : OS361AC55029948
Wavelength Start : 200
Wavelength End : 1025
Wavelength Unit : Wavelength(nm)
Spectrum Unit : Reflectance(%)
-----------Spectrum Setting ------------
Integration Time : 20ms
Average : 10
Boxcar : 0
Background removal :  enabled
linearity correction :  enabled
SC :  disabled
Intensity correction :  disabled
DWT denoise :  enabled
savitzky-golay :  disabled
FFT :  disabled
Running average :  disabled
Kalman :  disabled
High pass :  disabled
---------------BEGIN--------------------
Wavelength(nm)             Reflectance(%)
200.29               0
200.75        51.81409
201.21         51.9849
201.67         52.3791
202.13        51.72063
202.58        49.70036
203.04        46.59854
203.50        43.49593
203.96        43.59538
204.42        48.86437
204.88        58.84617
205.34        69.56102
205.80        73.89048
206.26        70.38033
206.72        61.84069
207.18        53.30613
207.64        48.86827
208.10          48.675
208.55        52.46028
209.01        58.54164
209.47        60.15459
209.93        55.09842
210.39        48.46824
210.85         44.4516
211.31        45.23239
211.77        51.66715
212.23        68.00565
212.69         109.773
213.14        180.4045
213.60        177.2468
214.06        127.6387
214.52         93.1805
214.98        75.62309
215.44        65.34415
215.90        56.69903
216.36        49.87518
216.81        46.36766
217.27        46.98392
217.73        53.05098
218.19        63.79698
218.65        69.92908
219.11        66.93346
219.57        59.93362
220.02        55.45736
220.48        57.98593
220.94        67.49103
221.40        84.75095
221.86        108.9241
222.32        123.5306
222.77        114.7733
223.23        94.45956
223.69        74.33375
224.15        60.37661
224.61        51.72326
225.06        45.82265
225.52        42.21857
225.98        40.34473
226.44        39.70014
226.90        40.20715
227.36        41.20451
227.81         41.5475
228.27        41.04588
228.73        39.83655
229.19        38.59487
229.65        38.14956
230.10        38.51616
230.56        39.46877
231.02        40.24289
231.48         39.6867
231.93         37.7646
232.39        35.27473
232.85        33.20752
233.31        32.86525
233.77        34.29713
234.22        36.99771
234.68        40.10044
235.14        42.36523
235.60        43.38606
236.05        43.51394
236.51        43.01485
236.97         42.4884
237.43        42.27816
237.88        42.26496
238.34        42.52246
238.80        43.41661
239.26        45.20873
239.71        48.51886
240.17        53.34103
240.63        59.18574
241.08        65.49886
241.54        71.38139
242.00        77.60841
242.46        86.99818
242.91         102.503
243.37        126.3223
243.83        158.5975
244.28        184.1301
244.74        181.1814
245.20          150.77
245.66        115.5568
246.11        94.77559
246.57        88.54801
247.03        91.06445
247.48        96.13931
247.94        93.87509
248.40        85.01291
248.85        75.47803
249.31        68.28038
249.77        64.04613
250.22        61.92491
250.68        60.57129
251.14        60.29473
251.59        62.29389
252.05        66.44043
252.51        71.87529
252.96        75.34784
253.42        74.54079
253.88        70.34004
254.33        64.16785
254.79        59.45698
255.25        58.76664
255.70        61.65052
256.16        66.81471
256.62         71.5346
257.07        71.78252
257.53         68.5509
257.99        64.24944
258.44        60.49349
258.90        58.94407
259.35        58.76506
259.81        59.44162
260.27        60.11983
260.72         59.9021
261.18        58.94474
261.63        57.37458
262.09         55.9132
262.55        54.82092
263.00         53.9939
263.46        53.42964
263.91        52.63742
264.37        51.31157
264.83        49.48248
265.28        47.36029
265.74         45.5172
266.19         44.3676
266.65        43.98843
267.11         44.0925
267.56        44.34112
268.02        44.20338
268.47        43.53259
268.93         42.5277
269.38        41.33389
269.84        40.22766
270.30        39.28833
270.75        38.42228
271.21        37.66233
271.66        37.01124
272.12        36.45606
272.57        35.98181
273.03         35.5205
273.48        34.94115
273.94        34.25919
274.39        33.47567
274.85        32.69768
275.31        31.94987
275.76        31.23246
276.22        30.57731
276.67        29.95637
277.13        29.40918
277.58        28.89466
278.04        28.42683
278.49        27.96243
278.95         27.5408
279.40        27.11647
279.86        26.74501
280.31        26.34357
280.77        25.88815
281.22        25.35327
281.68        24.80595
282.13        24.31032
282.59        24.02567
283.04        23.93947
283.50        24.02099
283.95        24.15052
284.41        24.14474
284.86        23.96572
285.32        23.69751
285.77        23.44306
286.22        23.40284
286.68        23.60444
287.13        23.94077
287.59        24.31649
288.04        24.54759
288.50        24.60676
288.95        24.53004
289.41        24.39491
289.86        24.25179
290.32        24.16605
290.77        24.12301
291.22        24.14763
291.68        24.26429
292.13        24.47845
292.59        24.81379
293.04        25.29875
293.50        25.98423
293.95        26.85894
294.40        27.90687
294.86        29.05363
295.31        30.17447
295.77        31.25259
296.22        32.31156
296.68         33.4361
297.13        34.74929
297.58        36.28456
298.04        37.99628
298.49        39.81452
298.95        41.64595
299.40        43.43974
299.85        45.22345
300.31        47.00665
300.76         48.7853
301.21         50.5771
301.67         52.3978
302.12        54.23564
302.58        56.16017
303.03        58.13496
303.48        60.16342
303.94        62.24933
304.39        64.33412
304.84        66.42531
305.30        68.53738
305.75         70.6097
306.20        72.63908
306.66        74.63391
307.11        76.56087
307.57        78.43677
308.02        80.18347
308.47        81.82364
308.93        83.37969
309.38        84.90186
309.83        86.58428
310.29        88.45551
310.74         90.4511
311.19        92.38773
311.65        93.93355
312.10        94.98965
312.55        95.64552
313.00        96.14322
313.46        96.87085
313.91        97.89981
314.36        99.15144
314.82        100.4152
315.27        101.3598
315.72        101.8829
316.18        102.1252
316.63         102.255
317.08          102.58
317.53         103.182
317.99        103.9502
318.44        104.7638
318.89        105.3978
319.35        105.7803
319.80        105.9901
320.25        106.1146
320.70        106.2916
321.16        106.5652
321.61        106.9334
322.06        107.3309
322.51        107.6656
322.97        107.8984
323.42        108.0612
323.87        108.2634
324.32        108.7019
324.78        109.3666
325.23        110.2698
325.68        111.1149
326.13         111.426
326.59        111.1067
327.04        110.3379
327.49        109.5054
327.94        109.2518
328.39        109.7334
328.85         110.732
329.30        112.0221
329.75        112.9206
330.20        113.1976
330.66        113.0135
331.11        112.6709
331.56        112.5822
332.01        112.8836
332.46        113.4134
332.92        113.9717
333.37        114.4048
333.82        114.5838
334.27          114.64
334.72        114.6431
335.17        114.6734
335.63        114.7798
336.08        114.9984
336.53        115.3978
336.98        116.1449
337.43         117.239
337.88        118.5813
338.34        119.9822
338.79        121.2457
339.24        122.2039
339.69         122.903
340.14        123.2684
340.59        123.2183
341.05        122.8392
341.50        122.1884
341.95        121.5866
342.40        121.5168
342.85        122.0826
343.30        123.1564
343.75        124.4611
344.20        125.5082
344.66        126.1357
345.11        126.4589
345.56        126.5925
346.01        126.7376
346.46        126.9805
346.91        127.2663
347.36        127.5668
347.81        127.8651
348.26        128.1433
348.72        128.3935
349.17        128.6726
349.62        129.0981
350.07        129.6578
350.52        130.3225
350.97        130.8125
351.42        130.6881
351.87        129.9134
352.32        128.6646
352.77        127.4075
353.22        126.8228
353.67        127.0376
354.13        127.8366
354.58        128.8226
355.03        129.2761
355.48        128.9886
355.93        128.1729
356.38        127.1672
356.83         126.483
357.28        126.2332
357.73        126.2202
358.18        126.2024
358.63         125.815
359.08        124.9713
359.53        123.8355
359.98        122.5823
360.43        121.4349
360.88        120.4632
361.33        119.6032
361.78         118.804
362.23        117.9999
362.68        117.1756
363.13         116.365
363.58        115.5979
364.03        114.9014
364.48        114.2647
364.93        113.6563
365.38        113.0214
365.83        112.2915
366.28        111.4585
366.73         110.551
367.18        109.6252
367.63        108.7632
368.08        107.9889
368.53        107.2892
368.98        106.6291
369.43         105.945
369.88        105.2209
370.33        104.4741
370.78        103.7447
371.23        103.1055
371.68        102.5689
372.13        102.0972
372.58        101.6377
373.03        101.1068
373.48        100.4739
373.93        99.76129
374.38        98.98142
374.83        98.16442
375.28        97.33392
375.72        96.46775
376.17        95.65412
376.62        94.90691
377.07        94.24353
377.52         93.6872
377.97        93.19913
378.42         92.7239
378.87         92.2501
379.32        91.75638
379.77        91.34794
380.22        91.18084
380.67         91.2443
381.11        91.51092
381.56        91.65434
382.01        91.23898
382.46        90.22495
382.91        88.82464
383.36        87.44535
383.81        86.64071
384.26        86.49448
384.71        86.81334
385.15        87.33703
385.60        87.60275
386.05        87.46324
386.50         87.0581
386.95        86.47178
387.40        85.84411
387.85         85.2487
388.29        84.58604
388.74        84.02187
389.19        83.57542
389.64        83.24231
390.09        83.01913
390.54        82.82448
390.98        82.49446
391.43        82.04752
391.88        81.52884
392.33        81.05093
392.78         80.7068
393.23        80.50043
393.67        80.50948
394.12        80.69966
394.57        80.37914
395.02        79.95782
395.47        79.89755
395.91        80.21685
396.36        80.13847
396.81        79.66203
397.26        79.22977
397.71        78.89334
398.15        78.57315
398.60        78.38187
399.05        78.12382
399.50        77.86041
399.95        78.02431
400.39        78.46733
400.84        78.30419
401.29        77.57394
401.74        77.14513
402.18        77.04442
402.63        76.60178
403.08        75.94891
403.53        75.65791
403.97        75.75164
404.42        75.99628
404.87         76.2515
405.32        76.30451
405.76          76.089
406.21        75.82411
406.66        75.53279
407.11        75.08343
407.55        74.66879
408.00        74.56813
408.45        74.79254
408.90        75.33751
409.34         75.8671
409.79        75.49401
410.24        74.46716
410.68        74.00699
411.13        74.20044
411.58        74.34509
412.03        74.29987
412.47        74.18263
412.92        73.94427
413.37         73.5965
413.81         73.2634
414.26        73.19432
414.71        73.39864
415.15        73.83891
415.60        74.34491
416.05        74.69342
416.49        74.80747
416.94        74.73386
417.39        74.58022
417.83         74.5019
418.28        74.54965
418.73        74.67429
419.17        74.81113
419.62        74.86295
420.07        74.79433
420.51        74.62135
420.96        74.44377
421.41        74.30762
421.85        74.20038
422.30        74.29189
422.74        74.41277
423.19        74.16019
423.64        73.61818
424.08        73.46803
424.53        73.72398
424.98        73.89894
425.42        73.97958
425.87        74.26791
426.31        74.66682
426.76        74.74824
427.21        74.53136
427.65        74.29924
428.10        74.10266
428.54        74.01571
428.99        74.11509
429.44         74.0006
429.88        73.85177
430.33        74.66883
430.77        75.97377
431.22         76.3997
431.66        75.88948
432.11         75.1507
432.56        74.51563
433.00        74.43424
433.45        75.04127
433.89        75.70686
434.34        75.77039
434.78         76.9349
435.23        76.00107
435.67         74.2172
436.12        74.56443
436.57        74.57742
437.01        75.04012
437.46        75.40773
437.90        75.81297
438.35        74.09135
438.79        75.18349
439.24        75.13105
439.68         75.3239
440.13        75.82279
440.57        76.53159
441.02        76.62141
441.46          76.146
441.91        76.54998
442.35        77.45095
442.80        77.15454
443.24         75.9315
443.69        75.87683
444.13        76.90037
444.58        77.37137
445.02         77.2161
445.47        77.29008
445.91        77.70426
446.36        77.99133
446.80        78.15479
447.24        78.29092
447.69        78.39992
448.13        78.44987
448.58        78.46491
449.02        78.44758
449.47        78.42982
449.91        78.37994
450.36        78.32489
450.80        78.32622
451.25        78.37915
451.69        78.25942
452.13        78.04682
452.58        78.06775
453.02        78.29221
453.47        78.40717
453.91        78.38027
454.36        78.39302
454.80        78.42616
455.24        78.29567
455.69        77.99918
456.13        77.72623
456.58        77.57271
457.02        76.95593
457.46        76.56084
457.91        76.69009
458.35        77.20228
458.79        77.11722
459.24        76.49664
459.68        75.63126
460.13        74.76186
460.57        74.63095
461.01        75.49234
461.46        74.72382
461.90        75.58633
462.34        77.01508
462.79        76.59573
463.23        76.57726
463.68        76.65765
464.12        76.38898
464.56          75.911
465.01        75.01981
465.45        73.99327
465.89        73.70213
466.34        74.04358
466.78         74.3951
467.22        74.61763
467.67        74.30402
468.11        74.02176
468.55        74.11574
468.99         74.6205
469.44        74.68121
469.88         74.2794
470.32        73.93873
470.77        73.74163
471.21        73.57864
471.65        73.46208
472.10        73.43091
472.54        73.46005
472.98        73.46091
473.42        73.39752
473.87        73.46955
474.31        73.56063
474.75        73.16335
475.20         72.4724
475.64        72.42046
476.08        73.04785
476.52         73.0556
476.97         72.2996
477.41        72.61201
477.85        72.82314
478.29        71.79995
478.74        72.11463
479.18        73.16949
479.62        72.45023
480.06        72.05061
480.50        72.36928
480.95        72.36167
481.39        72.44391
481.83        71.96439
482.27        72.10627
482.72        72.37042
483.16        72.34112
483.60        71.92922
484.04        72.04572
484.48        72.09459
484.93         71.9878
485.37        71.97392
485.81        71.53024
486.25        70.78243
486.69        70.52448
487.14        73.87245
487.58         73.4503
488.02        72.51761
488.46        71.36715
488.90        71.09023
489.34        72.43169
489.79        73.66386
490.23        72.63307
490.67        72.00167
491.11        71.45184
491.55        71.38168
491.99        71.70932
492.43        71.67966
492.88        71.29067
493.32        71.14353
493.76        71.28172
494.20        71.38025
494.64        71.41202
495.08        71.56557
495.52         71.7479
495.96        71.60637
496.41        71.21647
496.85        71.07706
497.29         71.1095
497.73        71.25728
498.17        70.63223
498.61        70.63895
499.05        70.95168
499.49        71.07072
499.93        70.73651
500.37        70.82641
500.82        71.23554
501.26        71.20907
501.70        70.71205
502.14        71.21314
502.58        70.95435
503.02        71.12702
503.46        71.19479
503.90        71.33963
504.34        71.47498
504.78        71.41777
505.22        71.14999
505.66        70.77965
506.10        70.46685
506.54        70.19416
506.98        69.95156
507.42        70.56304
507.86        70.75928
508.30        70.53915
508.74        70.93047
509.18        70.85159
509.62        70.75038
510.06        70.64759
510.50        70.58565
510.94        70.51253
511.38         70.4398
511.82         70.4298
512.26        70.48492
512.70        70.60104
513.14        70.72667
513.58        70.77037
514.02         70.7148
514.46         70.5843
514.90        70.44544
515.34        70.40917
515.78        70.49654
516.22        70.66291
516.66        70.83437
517.10        70.91566
517.54        70.88239
517.98        70.73424
518.42        70.50205
518.86        70.44591
519.30         70.2459
519.74        70.18266
520.18        70.16183
520.62        70.16334
521.06        70.20215
521.50        70.37399
521.93        70.62676
522.37        70.76827
522.81        70.74895
523.25        70.66803
523.69        70.56719
524.13        70.50661
524.57        70.50185
525.01        70.52498
525.45        70.54248
525.89        70.49953
526.32        70.37789
526.76        70.22794
527.20        70.05338
527.64        69.86364
528.08        69.67441
528.52        69.48161
528.96        69.33985
529.40         69.3339
529.83        69.46576
530.27        69.71442
530.71        69.97272
531.15          70.076
531.59        69.98912
532.03        69.75658
532.46        69.47418
532.90        69.34467
533.34        69.39964
533.78        69.53921
534.22        69.67734
534.66        69.76938
535.09        69.73386
535.53        69.45483
535.97        69.03181
536.41        68.79789
536.85        68.79852
537.28        68.87577
537.72        68.98618
538.16        69.11299
538.60        69.22789
539.04        69.34116
539.47        69.42379
539.91        69.47508
540.35        69.47967
540.79        69.43261
541.22        69.36633
541.66        69.36088
542.10        69.41948
542.54        69.52275
542.97         69.6021
543.41        69.58064
543.85          69.439
544.29        69.22239
544.72        68.98701
545.16        68.85951
545.60        68.85441
546.04        68.93886
546.47        69.08372
546.91        69.24285
547.35        69.38742
547.79        69.50092
548.22        69.55946
548.66        69.58957
549.10        69.62669
549.53        69.46586
549.97         69.1975
550.41        68.96938
550.84        68.86593
551.28        69.02267
551.72        69.33276
552.15        69.44347
552.59        69.34317
553.03         69.1881
553.46         69.2051
553.90         69.1237
554.34        68.98151
554.77        69.00307
555.21        69.26759
555.65        68.82825
556.08        69.31624
556.52        69.40488
556.96        69.50347
557.39        69.49703
557.83        69.39357
558.27        69.11241
558.70        68.72526
559.14        68.56781
559.57        68.62077
560.01        68.62733
560.45        68.60009
560.88        68.75888
561.32        69.06666
561.75        69.29296
562.19        69.38996
562.63         69.2346
563.06        68.92925
563.50        68.87988
563.93        69.01644
564.37        69.09846
564.80        69.10946
565.24        68.95084
565.68        68.51383
566.11        69.18582
566.55        68.50067
566.98        68.32177
567.42        68.07594
567.85        68.31638
568.29        68.94342
568.72        69.21148
569.16         69.1657
569.60        69.43968
570.03        69.44624
570.47        69.64885
570.90        69.88697
571.34        69.17757
571.77         69.3737
572.21        69.47277
572.64        69.80592
573.08        69.94514
573.51         69.3969
573.95        69.16489
574.38        69.38092
574.82        69.48554
575.25        69.22506
575.69        69.44181
576.12        70.04391
576.56        69.22868
576.99        68.91779
577.42         69.1116
577.86         69.1748
578.29        69.96124
578.73        69.67056
579.16        70.34024
579.60        69.73276
580.03         69.3438
580.47        69.35568
580.90        70.12276
581.33        69.59449
581.77         69.7653
582.20        69.17714
582.64        70.29044
583.07         70.3688
583.51         70.0091
583.94        69.63436
584.37        69.57682
584.81        69.67403
585.24         69.5413
585.68        69.05222
586.11        69.40147
586.54        69.96609
586.98        68.92113
587.41        68.79224
587.85         68.9685
588.28        69.00548
588.71        68.93243
589.15        68.70094
589.58        69.25336
590.01        68.63483
590.45        68.68845
590.88        69.57059
591.31        69.54999
591.75        68.95295
592.18        68.52753
592.61        68.44398
593.05        69.00464
593.48        69.15393
593.91        69.34731
594.35        69.20289
594.78        68.75119
595.21        68.18623
595.65        68.32326
596.08        69.21774
596.51        69.53492
596.94        69.03916
597.38        68.75076
597.81        68.51273
598.24        69.54733
598.68        69.01292
599.11        68.56683
599.54        69.47395
599.97        69.51961
600.41        69.31538
600.84        68.41737
601.27        69.29229
601.70        68.72179
602.14        68.93592
602.57        68.59856
603.00        68.50875
603.43        67.72088
603.87        68.74512
604.30        69.09898
604.73        69.54175
605.16        68.23164
605.60        68.25562
606.03         67.8132
606.46        67.78165
606.89        67.97269
607.32        68.62779
607.76        68.12496
608.19        68.47784
608.62        68.71466
609.05        68.52643
609.48        68.30907
609.92        69.07552
610.35        68.85696
610.78        67.71384
611.21        68.25358
611.64        67.99213
612.07        68.42561
612.50        68.40523
612.94        68.49203
613.37        68.51375
613.80        68.37704
614.23         67.9088
614.66        67.70237
615.09        67.82805
615.52        68.08221
615.96        68.32398
616.39        68.47929
616.82        68.54977
617.25        67.85748
617.68        67.68317
618.11        67.71813
618.54        68.21327
618.97        68.39861
619.40        68.18813
619.84        68.15455
620.27        67.73816
620.70        67.76515
621.13         67.9493
621.56        67.52982
621.99        66.65041
622.42        66.52065
622.85        67.13902
623.28         67.2961
623.71        66.91138
624.14        67.38522
624.57        67.69148
625.00        67.38554
625.43        67.65816
625.86        67.49535
626.29        67.43324
626.72         67.0867
627.15        67.34311
627.58        67.44977
628.01        67.51877
628.44        67.57294
628.87        67.35775
629.30        67.01147
629.73        66.87054
630.16         67.1372
630.59        66.89266
631.02        67.05784
631.45        67.28151
631.88        67.44299
632.31        67.49591
632.74        67.50667
633.17        67.49489
633.60        67.37856
634.03        67.31173
634.46        67.17096
634.89        67.01736
635.32        66.90063
635.75        66.83871
636.18        66.75259
636.61        66.65863
637.04        66.62473
637.47        66.64956
637.89        66.70464
638.32        66.74233
638.75        66.74432
639.18        66.70099
639.61        66.63695
640.04        66.57055
640.47        66.49361
640.90        66.43534
641.33        66.47694
641.76        66.59326
642.18        66.66935
642.61        66.66768
643.04        66.65483
643.47        66.64435
643.90        66.63344
644.33        66.62482
644.76        66.61903
645.18        66.60005
645.61         66.5246
646.04        66.40227
646.47        66.25645
646.90        66.12827
647.33        66.08237
647.75        66.10107
648.18        66.18874
648.61        66.35899
649.04        66.43716
649.47        66.32681
649.89         66.9729
650.32        66.55737
650.75         66.4786
651.18        66.30253
651.61        66.14214
652.03         66.0996
652.46        66.48797
652.89        67.15672
653.32        67.28587
653.74        66.84892
654.17        66.61693
654.60        67.00472
655.03        66.48345
655.46        65.34447
655.88        65.61816
656.31        67.47191
656.74        65.77572
657.16        70.96265
657.59        76.58373
658.02        69.31021
658.45        67.94706
658.87        67.20497
659.30        67.00326
659.73        66.89868
660.15        68.03535
660.58         66.8575
661.01        66.60445
661.44        66.36906
661.86        66.15633
662.29        65.90495
662.72        66.26113
663.14        65.96616
663.57        65.98751
664.00        66.01657
664.42        66.19614
664.85        66.51686
665.27        66.88125
665.70        67.14514
666.13        67.19994
666.55        67.02499
666.98        66.57102
667.41        65.97819
667.83        65.91399
668.26        65.75338
668.69        65.98069
669.11        66.28281
669.54        66.47955
669.96        66.51614
670.39        66.44283
670.82        66.33604
671.24        66.28831
671.67         66.3269
672.09        66.40319
672.52        66.48711
672.94        66.49735
673.37        66.42526
673.80        66.28987
674.22        66.15653
674.65        66.09242
675.07        66.13354
675.50        66.24506
675.92        66.36073
676.35        66.36256
676.77        66.23126
677.20        66.00454
677.62        65.77347
678.05        65.68223
678.47        65.75916
678.90        65.95909
679.32        66.19171
679.75        66.32819
680.17        66.32899
680.60        66.23777
681.02        66.11241
681.45        66.05045
681.87        66.09315
682.30        66.16411
682.72        66.24551
683.15        66.35426
683.57        66.44781
684.00        66.34319
684.42        66.12648
684.85        66.10384
685.27        66.28867
685.70        66.54555
686.12        66.77618
686.54        66.86368
686.97        66.79084
687.39        66.67819
687.82        66.55447
688.24        66.41226
688.66        66.27558
689.09        66.17575
689.51        66.14059
689.94        66.15852
690.36        66.23277
690.78         66.3501
691.21        66.49049
691.63        66.61009
692.06        66.69349
692.48        66.75443
692.90         66.7643
693.33        66.68433
693.75        66.51712
694.17        66.26339
694.60        66.01868
695.02        65.92556
695.44        66.00517
695.87        66.25959
696.29        66.55986
696.71        66.54284
697.14        66.26038
697.56        66.04835
697.98        65.95991
698.41        66.22858
698.83        66.08565
699.25        66.33752
699.68        66.63723
700.10        66.77075
700.52        66.67031
700.94        66.42691
701.37        66.16831
701.79        66.08572
702.21        66.21744
702.64        66.47904
703.06        66.77399
703.48        66.92908
703.90         66.8942
704.33        66.73341
704.75        66.49821
705.17        66.25883
705.59        66.06357
706.01        65.89923
706.44        65.80657
706.86        65.88599
707.28         66.1311
707.70        66.46027
708.12        66.81422
708.55        67.19072
708.97        67.50555
709.39        67.53059
709.81        67.30849
710.23        67.16765
710.66        67.15028
711.08        67.09807
711.50        66.99194
711.92        66.89304
712.34        66.80691
712.76        66.74236
713.19        66.68723
713.61        66.65005
714.03        66.62168
714.45         66.6096
714.87        66.64879
715.29        66.79535
715.71        67.04414
716.13        67.35336
716.56        67.64075
716.98        67.86008
717.40        67.94415
717.82        67.91935
718.24        67.78197
718.66        67.53041
719.08        67.20255
719.50        66.82935
719.92        66.50748
720.34        66.37933
720.76        66.46811
721.19         66.7092
721.61         67.0539
722.03        67.36101
722.45        67.56741
722.87        67.69688
723.29        67.71854
723.71        67.59315
724.13        67.33865
724.55        66.97607
724.97        66.60758
725.39        66.41166
725.81         66.4322
726.23        66.60051
726.65        66.83515
727.07        67.14449
727.49        67.24045
727.91        67.34989
728.33        67.41642
728.75         67.4758
729.17         67.5365
729.59        67.57573
730.01        67.59856
730.43        67.61877
730.85        67.63478
731.27         67.6422
731.69        67.62983
732.10        67.57626
732.52        67.48276
732.94        67.37002
733.36        67.24466
733.78        67.09174
734.20        66.93094
734.62        66.82761
735.04        66.83788
735.46        66.80756
735.88         67.1077
736.30        67.40446
736.72        67.75539
737.13        68.04362
737.55        68.17178
737.97        68.32761
738.39        68.45459
738.81        68.14462
739.23        67.56393
739.65         67.5322
740.06        67.97091
740.48        68.14505
740.90        67.99935
741.32        67.97961
741.74        68.10419
742.16        68.16742
742.57        68.16307
742.99        68.13214
743.41        68.06945
743.83        67.94776
744.25        67.77396
744.67        67.54978
745.08        67.35078
745.50        67.27643
745.92        67.35101
746.34        67.53494
746.75        67.74278
747.17         67.8102
747.59        67.70606
748.01        67.51672
748.42        67.30503
748.84        67.10355
749.26        66.98869
749.68        67.06631
750.09        67.28264
750.51        67.48212
750.93        67.58437
751.35        67.52921
751.76        67.34658
752.18        67.20776
752.60         67.1279
753.01        67.02147
753.43        66.86859
753.85        66.72469
754.27         66.6069
754.68        66.51725
755.10        66.48732
755.52        66.55931
755.93        66.72425
756.35        66.95084
756.77        67.22707
757.18        67.44453
757.60        67.57285
758.02         67.7942
758.43        68.08061
758.85        67.63689
759.26        67.80013
759.68        67.39461
760.10         66.9803
760.51        67.11671
760.93         67.6992
761.34        67.91909
761.76        67.85448
762.18        67.87226
762.59        68.08599
763.01        68.35286
763.42        68.64041
763.84        68.68436
764.26        68.48017
764.67         68.1603
765.09        67.85811
765.50        67.59817
765.92        67.44389
766.33        67.36034
766.75        67.26374
767.16         67.1767
767.58        67.03817
768.00        66.87405
768.41         66.7858
768.83        66.82143
769.24        66.97803
769.66        67.41994
770.07        67.94965
770.49        67.81275
770.90        67.21345
771.32         67.4304
771.73        68.36238
772.15        68.66779
772.56        68.29736
772.97        67.98607
773.39         67.8472
773.80        67.74233
774.22        67.68394
774.63        67.75703
775.05        67.87467
775.46        67.96912
775.88         67.9843
776.29        67.95985
776.70        67.92056
777.12        67.93198
777.53        68.01913
777.95        68.12088
778.36        68.22208
778.77        68.26054
779.19        68.23569
779.60        68.18595
780.02         68.1128
780.43        68.05331
780.84        68.03474
781.26        67.89553
781.67        67.73698
782.09        68.03416
782.50        68.66531
782.91        68.82941
783.33        68.48009
783.74        68.55212
784.15        68.49289
784.57        68.36805
784.98        68.11684
785.39        68.10051
785.81        68.34894
786.22        68.77216
786.63        69.22305
787.04        69.44938
787.46        69.41031
787.87        69.16282
788.28        68.86224
788.70        68.72649
789.11        68.78406
789.52         68.9926
789.93         69.2369
790.35        69.31975
790.76        69.19747
791.17        68.92455
791.58         68.6227
792.00         68.3914
792.41        68.27813
792.82        68.45877
793.23        68.79939
793.65        68.54151
794.06        67.91004
794.47        68.18047
794.88        69.15182
795.29        69.51157
795.71        69.16766
796.12        68.88383
796.53        68.79814
796.94        68.75945
797.35        68.84219
797.76        69.21984
798.18        69.72494
798.59        69.99085
799.00        69.92516
799.41        69.67417
799.82        69.36418
800.23        69.17074
800.64        69.14989
801.06        69.21539
801.47        69.32398
801.88        69.31735
802.29        69.14915
802.70        68.86703
803.11        68.54918
803.52        68.31538
803.93        68.23233
804.34        68.28913
804.75        68.42175
805.17        68.63038
805.58         68.9437
805.99        68.96392
806.40        68.82911
806.81        69.66741
807.22        71.06982
807.63        70.92826
808.04        69.44673
808.45        68.77238
808.86        69.06436
809.27         69.1375
809.68        68.89619
810.09        68.77169
810.50        68.76109
810.91         68.7476
811.32         68.8002
811.73        69.02174
812.14        69.41029
812.55          69.942
812.96        70.44382
813.37        70.58761
813.78        70.29973
814.19        69.70493
814.60        69.02947
815.01        68.57993
815.42        68.42927
815.83        68.50209
816.24        68.71136
816.65        68.88018
817.05        68.94594
817.46        68.94038
817.87        68.92868
818.28        68.95804
818.69        69.04358
819.10        69.14029
819.51        69.25562
819.92        69.41786
820.33        69.61392
820.74        69.83273
821.14        70.00746
821.55        70.02146
821.96        69.86141
822.37        69.56884
822.78        69.23762
823.19        69.02773
823.60         68.9937
824.00         69.1238
824.41        69.31504
824.82        69.49127
825.23        69.60445
825.64        69.67001
826.04        69.71254
826.45        69.73521
826.86        69.75515
827.27        69.76904
827.68        69.74117
828.08        69.64444
828.49        69.43433
828.90        69.15442
829.31         68.9089
829.72        68.86405
830.12        69.07417
830.53        69.43021
830.94        69.80457
831.35        69.92706
831.75        69.74218
832.16        69.31761
832.57        68.80272
832.97        68.41433
833.38        68.22879
833.79        68.16666
834.20         68.2294
834.60        68.41345
835.01        68.69975
835.42        69.14167
835.82        69.61897
836.23        69.83802
836.64        69.76115
837.04         69.4062
837.45        69.06024
837.86        69.26563
838.26        70.13771
838.67        71.48412
839.08        72.78825
839.48        73.08887
839.89        72.17301
840.29        70.41606
840.70        68.60384
841.11        67.66945
841.51        67.83604
841.92        68.80379
842.33         70.1927
842.73        71.30538
843.14        71.75723
843.54        71.79049
843.95        71.58953
844.35        71.51299
844.76        71.64848
845.17        71.85562
845.57        72.01009
845.98        71.91217
846.38        71.54626
846.79        71.00401
847.19        70.45281
847.60        70.10873
848.00        70.04223
848.41        70.16677
848.81        70.37547
849.22        70.40784
849.62        70.23557
850.03        69.91676
850.43        69.58195
850.84        69.37149
851.24        69.37569
851.65        69.48695
852.05        69.72448
852.46        70.00365
852.86        70.28077
853.27        70.57353
853.67        70.77551
854.07        70.85724
854.48        70.79433
854.88        70.61777
855.29        70.34489
855.69        70.15491
856.10        70.02969
856.50        70.00111
856.90        69.99624
857.31         69.9082
857.71        69.76294
858.12        69.53709
858.52        69.30443
858.92        69.07006
859.33        68.83498
859.73        68.64379
860.13        68.47244
860.54        68.30322
860.94        68.17758
861.34        68.08707
861.75        68.05002
862.15        68.13926
862.55        68.32966
862.96        68.54337
863.36        68.76023
863.76        68.86674
864.17        68.81725
864.57        68.68613
864.97         68.4183
865.38        67.93739
865.78        67.29327
866.18        66.51379
866.58        65.83018
866.99        65.64071
867.39        66.05031
867.79        66.92204
868.19         67.9409
868.60        68.60578
869.00         68.8074
869.40        68.62239
869.80        68.23521
870.21        68.02006
870.61        68.15626
871.01        68.47639
871.41        68.73518
871.81        68.58633
872.22        67.97631
872.62        67.03638
873.02         66.0764
873.42        65.60795
873.82        65.76669
874.22        66.38296
874.63        67.12402
875.03        67.48066
875.43        67.30066
875.83        66.74641
876.23        66.05766
876.63        65.60262
877.03        65.49367
877.44        65.59651
877.84        65.80309
878.24        65.95235
878.64        65.94759
879.04        65.72144
879.44        65.45901
879.84        65.54005
880.24        65.98596
880.64        66.61555
881.04        67.16048
881.44         67.2197
881.84        66.71165
882.24        65.80115
882.65        64.78783
883.05         64.1236
883.45        63.95351
883.85        64.17081
884.25         64.6426
884.65        65.12569
885.05        65.51098
885.45        65.84483
885.85        66.15643
886.25        66.49748
886.65         66.8672
887.05        67.20888
887.45        67.43713
887.85        67.43746
888.25        67.19574
888.65        66.77463
889.04        66.28453
889.44        65.91701
889.84        65.71339
890.24        65.62915
890.64        65.62346
891.04        65.61911
891.44        65.58743
891.84         65.5677
892.24        65.53674
892.64        65.44751
893.04        65.31235
893.44        65.15299
893.83        65.06406
894.23        65.15727
894.63        65.46419
895.03        65.90646
895.43        66.40848
895.83        66.85139
896.23        67.16244
896.63        67.35152
897.02        67.33583
897.42        67.02004
897.82        66.43154
898.22        65.66295
898.62        64.88477
899.01        64.33788
899.41        64.10787
899.81        64.12144
900.21        64.34604
900.61        64.71205
901.00        65.15398
901.40        65.66158
901.80        66.11723
902.20         66.3336
902.59        66.28963
902.99        66.03206
903.39        65.68183
903.79         65.4506
904.18        65.39885
904.58        65.46645
904.98        65.65812
905.38        65.98759
905.77        66.42065
906.17        66.96015
906.57        67.42517
906.96        67.50962
907.36        67.15204
907.76         66.4752
908.15        65.75904
908.55        65.43159
908.95         65.6087
909.34         66.1624
909.74        66.86877
910.14        67.44068
910.53        67.72611
910.93        67.81684
911.33        67.68153
911.72        67.25579
912.12        66.64956
912.52        65.91799
912.91        65.20734
913.31        64.76708
913.70        64.65752
914.10        64.77092
914.49        65.15365
914.89        65.77783
915.29        66.58667
915.68        67.57332
916.08         68.3696
916.47         68.4407
916.87        67.73499
917.26        66.42617
917.66        65.07658
918.05        64.39075
918.45        64.52747
918.84        65.32516
919.24        66.39837
919.64        67.17455
920.03        67.45705
920.42        67.37625
920.82        67.17576
921.21         67.1886
921.61        67.47973
922.00        67.93703
922.40        68.35599
922.79        68.55072
923.19        68.43494
923.58        68.14686
923.98        67.78921
924.37        67.42638
924.77         67.1212
925.16        66.80489
925.55        66.59132
925.95        66.65686
926.34        67.02441
926.74        67.61456
927.13        68.13824
927.52        68.07131
927.92        67.37774
928.31        66.21671
928.70        64.99617
929.10        64.31165
929.49         64.2919
929.89        64.72195
930.28         65.4227
930.67        65.95998
931.07        66.15115
931.46        66.20793
931.85        66.09977
932.24        65.82106
932.64        65.46421
933.03        64.98116
933.42        64.64537
933.82        64.86501
934.21        65.68298
934.60          67.009
934.99        68.45094
935.39        69.28213
935.78         69.3263
936.17        68.69004
936.56        67.72931
936.96         67.0173
937.35        66.72705
937.74        66.71535
938.13        66.75266
938.53        66.49844
938.92        65.89423
939.31        65.11062
939.70        64.38059
940.09        64.00114
940.49        64.00334
940.88        64.30625
941.27        64.76171
941.66        65.10194
942.05        65.23242
942.44        65.24522
942.84         65.2145
943.23        65.24513
943.62        65.38107
944.01         65.5471
944.40        65.76646
944.79        66.10507
945.18        66.52833
945.57        66.98637
945.97        67.28398
946.36        67.19485
946.75        66.64963
947.14        65.81344
947.53        64.85996
947.92        64.01675
948.31        63.38255
948.70        62.91071
949.09        62.71803
949.48        62.99149
949.87         63.7226
950.26        64.82859
950.65        66.00854
951.04        66.75931
951.43        66.92189
951.82        66.59467
952.21        65.97897
952.60        65.44054
952.99        65.12886
953.38        64.98627
953.77        64.95913
954.16        64.95463
954.55        64.94098
954.94         64.9437
955.33        65.05279
955.72        65.39715
956.11        65.96256
956.50        66.66972
956.89        67.23585
957.28        67.21017
957.66        66.51688
958.05        65.38869
958.44        64.18299
958.83         63.4058
959.22        63.17299
959.61        63.32864
960.00        63.74762
960.39        64.18369
960.78        64.49016
961.16        64.70716
961.55        64.79427
961.94          64.627
962.33        64.22753
962.72        63.64228
963.11        62.99471
963.49        62.60356
963.88        62.52329
964.27        62.66293
964.66        63.05016
965.04        63.75467
965.43        64.67739
965.82         65.8418
966.21        66.80923
966.60        66.74806
966.98        65.49443
967.37        63.44738
967.76        61.35625
968.15        60.15519
968.53        60.02396
968.92        60.73869
969.31        61.91442
969.69        62.75051
970.08        62.86278
970.47        62.49171
970.86        62.05473
971.24        62.16132
971.63        62.94561
972.02        64.21398
972.40        65.54981
972.79        65.92767
973.17        65.15139
973.56        63.60888
973.95        61.99533
974.33        61.18476
974.72        61.36006
975.11        62.26383
975.49        63.52638
975.88        64.34757
976.26        64.48111
976.65         64.1135
977.04        63.54809
977.42        63.22804
977.81        63.24475
978.19        63.41159
978.58        63.69659
978.96        64.03144
979.35         64.3338
979.74        64.67093
980.12        64.97871
980.51        64.90021
980.89        64.51619
981.28        63.90915
981.66        63.33684
982.05         63.1431
982.43        63.41175
982.82        64.01627
983.20        64.94576
983.59        66.04188
983.97        67.24671
984.35        68.53249
984.74        69.53292
985.12        69.90176
985.51        69.51999
985.89        68.53557
986.28        67.42957
986.66        66.86382
987.04        67.05946
987.43        67.79711
987.81        68.81682
988.20        69.45679
988.58          69.481
988.96        68.99454
989.35        68.17649
989.73        67.25532
990.12        66.32283
990.50        65.39931
990.88         64.3952
991.27        63.24412
991.65        62.04549
992.03         60.8829
992.42        60.19392
992.80        60.52404
993.18        61.94121
993.56        64.33086
993.95        66.88823
994.33        68.22713
994.71        67.78818
995.10        66.04138
995.48        63.96654
995.86        63.14049
996.24        63.92303
996.63        65.75543
997.01        68.11572
997.39        69.53413
997.77        69.39856
998.15         68.3112
998.54        66.61191
998.92        64.62695
999.30        62.71381
999.68        60.82029
1000.06        59.51257
1000.45        59.59664
1000.83        61.25181
1001.21        64.35176
1001.59        68.21111
1001.97        70.96589
1002.35        71.77832
1002.73        71.12653
1003.12        69.76692
1003.50        68.64072
1003.88        68.13505
1004.26        67.76617
1004.64        67.77879
1005.02        68.64645
1005.40        70.32648
1005.78        72.87106
1006.16        74.99951
1006.54        74.62891
1006.92        71.64613
1007.30        66.85418
1007.69        62.23638
1008.07         60.5035
1008.45        62.39507
1008.83        67.23692
1009.21        73.64491
1009.59        78.04502
1009.97        78.57437
1010.35        76.25902
1010.73        72.16555
1011.11        67.89271
1011.49        64.28136
1011.86        61.05306
1012.24        58.74254
1012.62         58.0658
1013.00        59.05248
1013.38        61.68183
1013.76        65.47178
1014.14        68.77464
1014.52        70.55482
1014.90         70.9109
1015.28        70.16366
1015.66        69.05453
1016.04        67.86883
1016.41        66.37737
1016.79        64.72806
1017.17        63.37232
1017.55         62.5177
1017.93        62.25296
1018.31         62.3944
1018.69        62.52446
1019.06        62.57428
1019.44        62.65945
1019.82        62.91513
1020.20        63.61158
1020.58        64.62157
1020.95        65.41739
1021.33         66.0527
1021.71        66.60742
1022.09        67.13629
1022.46          67.975
1022.84        68.25417
1023.22        66.27989
1023.60        62.00389
1023.97        56.20085
1024.35        51.58564
1024.73         51.1016
