SpectraSmart Spectrum 2.9.0.0
--------- Device Information -----------
Spectrum Name :  反射率_0
Saving Time :  2024/04/26 22:37:11
Spectro-Module Model Name : SE2030-DUVN
Spectro-Module Serial Number : OS361AC55029948
Wavelength Start : 200
Wavelength End : 1025
Wavelength Unit : Wavelength(nm)
Spectrum Unit : Reflectance(%)
-----------Spectrum Setting ------------
Integration Time : 20ms
Average : 10
Boxcar : 0
Background removal :  enabled
linearity correction :  enabled
SC :  disabled
Intensity correction :  disabled
DWT denoise :  enabled
savitzky-golay :  disabled
FFT :  disabled
Running average :  disabled
Kalman :  disabled
High pass :  disabled
---------------BEGIN--------------------
Wavelength(nm)             Reflectance(%)
200.29               0
200.75        49.70619
201.21        51.51855
201.67        53.12225
202.13        53.47708
202.58        52.43534
203.04        50.40794
203.50        47.99437
203.96        47.03557
204.42        48.92091
204.88        53.57187
205.34         59.2432
205.80        62.62174
206.26         62.5979
206.72        59.87075
207.18         56.9833
207.64        56.33017
208.10        58.22722
208.55        63.39684
209.01        69.32148
209.47        67.52898
209.93         57.2561
210.39        45.74966
210.85        38.56045
211.31        37.74311
211.77        43.53599
212.23        60.55678
212.69        105.5023
213.14        180.8752
213.60        176.5242
214.06        122.7062
214.52        86.54684
214.98        70.32745
215.44          63.347
215.90        59.04683
216.36        56.70817
216.81        56.36369
217.27         58.2622
217.73        64.38595
218.19        73.30274
218.65        75.26595
219.11        67.92813
219.57        57.74182
220.02        51.50744
220.48         53.1007
220.94        62.02835
221.40        79.17649
221.86        103.6733
222.32        118.5713
222.77        109.9652
223.23         89.8414
223.69        70.27432
224.15        57.62886
224.61        50.74854
225.06         46.5477
225.52        44.47953
225.98        43.96188
226.44        44.47992
226.90        46.11523
227.36        47.74933
227.81        47.44334
228.27        45.13896
228.73         41.4971
229.19        38.14327
229.65        36.92466
230.10        37.88594
230.56        40.44018
231.02        43.13483
231.48        43.69111
231.93        41.77419
232.39         38.5335
232.85         35.5536
233.31        34.88524
233.77         36.6679
234.22        40.17209
234.68        43.98141
235.14         45.9735
235.60        45.54366
236.05        43.24373
236.51        40.11913
236.97        38.42286
237.43        39.11228
237.88        41.66716
238.34        45.05971
238.80        47.79733
239.26        49.43244
239.71        50.69604
240.17        51.85885
240.63        54.03661
241.08        57.96191
241.54        62.82445
242.00        68.79284
242.46        76.89973
242.91        88.92448
243.37        106.7334
243.83        131.3777
244.28        153.9767
244.74        158.9261
245.20        143.9309
245.66        122.3366
246.11        107.1934
246.57        99.62798
247.03        96.21429
247.48         93.5274
247.94        87.05686
248.40        78.71245
248.85         71.7868
249.31         67.5221
249.77        65.68836
250.22        65.61552
250.68        66.51176
251.14        69.09081
251.59        74.29002
252.05        80.98438
252.51        87.98842
252.96        91.20789
253.42        88.02865
253.88        80.06413
254.33        69.46888
254.79        61.35049
255.25        59.69241
255.70        63.77781
256.16        71.60292
256.62        78.88097
257.07        79.30618
257.53        74.26242
257.99        67.58743
258.44        62.05068
258.90        60.07901
259.35        60.52847
259.81        62.34428
260.27        64.11304
260.72        64.23941
261.18         62.8912
261.63        60.57151
262.09        58.35902
262.55        56.83154
263.00        55.89026
263.46        55.37995
263.91        54.69006
264.37        53.38668
264.83        51.48105
265.28        49.25487
265.74        47.31411
266.19        46.09784
266.65        45.68834
267.11        45.76091
267.56        45.99834
268.02        45.91181
268.47        45.34719
268.93        44.49524
269.38        43.40243
269.84        42.19869
270.30        40.94904
270.75        39.60763
271.21        38.36232
271.66        37.44824
272.12        36.89462
272.57        36.61901
273.03        36.39235
273.48        35.82267
273.94        34.88566
274.39         33.6938
274.85        32.51749
275.31        31.60113
275.76        30.97661
276.22        30.57793
276.67        30.27293
277.13        29.95956
277.58        29.55464
278.04        29.11702
278.49        28.62914
278.95        28.16876
279.40        27.70295
279.86        27.26901
280.31        26.78781
280.77        26.24768
281.22        25.62772
281.68        25.00514
282.13         24.4347
282.59         24.0564
283.04        23.85697
283.50        23.81097
283.95        23.82524
284.41        23.76022
284.86        23.58454
285.32        23.36466
285.77        23.16327
286.22        23.12406
286.68        23.26239
287.13        23.48531
287.59        23.73276
288.04        23.87577
288.50        23.90001
288.95        23.82874
289.41        23.69799
289.86        23.50033
290.32        23.29101
290.77         23.0713
291.22        22.92123
291.68        22.94566
292.13        23.15927
292.59         23.5578
293.04        24.08624
293.50        24.66612
293.95        25.26204
294.40        25.89539
294.86        26.59315
295.31        27.39208
295.77        28.30395
296.22         29.2971
296.68        30.34585
297.13        31.40375
297.58        32.46719
298.04        33.55263
298.49        34.68647
298.95        35.92244
299.40        37.25946
299.85        38.68678
300.31        40.15915
300.76         41.5934
301.21        42.98072
301.67        44.35679
302.12        45.75693
302.58        47.30725
303.03        48.98321
303.48        50.76102
303.94        52.57559
304.39        54.27938
304.84        55.87389
305.30        57.42307
305.75        58.96172
306.20        60.61745
306.66        62.42334
307.11            64.3
307.57        66.20805
308.02        68.00118
308.47        69.66606
308.93          71.245
309.38        72.76935
309.83        74.38944
310.29        76.13818
310.74        77.96426
311.19         79.7557
311.65        81.30231
312.10        82.53078
312.55        83.49274
313.00        84.34811
313.46        85.36035
313.91        86.57343
314.36        87.93809
314.82        89.29452
315.27        90.39148
315.72        91.14268
316.18        91.64819
316.63        92.03076
317.08         92.5322
317.53        93.21739
317.99        93.99934
318.44        94.78656
318.89        95.40108
319.35        95.78899
319.80        96.01985
320.25        96.16513
320.70        96.33587
321.16        96.57298
321.61        96.88476
322.06        97.23344
322.51        97.56687
322.97        97.85482
323.42        98.11367
323.87        98.41763
324.32        98.90578
324.78        99.55779
325.23        100.3966
325.68        101.1646
326.13        101.4521
326.59        101.1804
327.04        100.5051
327.49        99.78164
327.94        99.60349
328.39        100.1125
328.85        101.1111
329.30        102.3758
329.75        103.2479
330.20          103.51
330.66        103.3217
331.11        102.9834
331.56        102.9118
332.01        103.2447
332.46        103.8219
332.92        104.4535
333.37        104.9862
333.82        105.2855
334.27         105.463
334.72        105.5634
335.17        105.6315
335.63        105.7057
336.08        105.8318
336.53        106.0783
336.98        106.6077
337.43         107.439
337.88        108.4946
338.34        109.6459
338.79        110.7842
339.24        111.7661
339.69        112.6009
340.14        113.1728
340.59        113.3267
341.05        113.1059
341.50        112.5804
341.95         112.021
342.40        111.8405
342.85        112.1465
343.30        112.8353
343.75        113.7377
344.20        114.5503
344.66        115.1552
345.11        115.6154
345.56        115.9471
346.01        116.1856
346.46        116.3708
346.91         116.503
347.36        116.6011
347.81        116.7203
348.26        116.8727
348.72        117.0269
349.17        117.2483
349.62        117.6682
350.07        118.2737
350.52        119.0376
350.97        119.6581
351.42        119.6541
351.87        118.9712
352.32        117.7813
352.77        116.5643
353.22        116.0286
353.67        116.3085
354.13        117.1886
354.58        118.2377
355.03        118.6844
355.48        118.3207
355.93        117.3864
356.38        116.2916
356.83        115.6536
357.28        115.6012
357.73        115.8986
358.18        116.2264
358.63        116.0884
359.08        115.3554
359.53        114.2262
359.98        112.9228
360.43         111.746
360.88         110.789
361.33        109.9609
361.78        109.1974
362.23        108.4111
362.68        107.5852
363.13        106.7794
363.58        106.0253
364.03        105.3456
364.48        104.7348
364.93        104.1574
365.38        103.5941
365.83        103.0326
366.28        102.4652
366.73        101.8981
367.18        101.3095
367.63        100.6623
368.08        99.95666
368.53        99.20985
368.98         98.4724
369.43        97.82136
369.88        97.27418
370.33        96.80819
370.78        96.37711
371.23        95.90921
371.68        95.37641
372.13        94.78374
372.58        94.16215
373.03        93.56091
373.48        92.98464
373.93        92.41763
374.38        91.79896
374.83        91.04085
375.28        90.14617
375.72        89.14671
376.17        88.20604
376.62        87.45376
377.07        86.93424
377.52        86.62572
377.97        86.42226
378.42        86.20521
378.87        85.93266
379.32         85.5145
379.77        85.06651
380.22        85.17009
380.67        85.17346
381.11        85.55614
381.56        85.76386
382.01        85.31458
382.46        84.16447
382.91         82.5741
383.36        81.02802
383.81        80.16434
384.26        80.08531
384.71        80.56915
385.15        81.30936
385.60        81.76451
386.05        81.75337
386.50        81.43243
386.95         80.8988
387.40        80.31258
387.85        79.76019
388.29        79.14306
388.74        78.61945
389.19        78.21951
389.64        77.94059
390.09        77.77055
390.54        77.65278
390.98        77.46136
391.43        77.20895
391.88        76.91948
392.33        76.62297
392.78        76.35408
393.23        76.12385
393.67        75.90786
394.12        75.77057
394.57        75.60541
395.02        75.42707
395.47        75.34702
395.91        75.34998
396.36        75.25905
396.81        75.09019
397.26         74.9461
397.71        74.78797
398.15        74.55389
398.60        74.34113
399.05        73.92341
399.50        73.45246
399.95        73.58403
400.39        74.14743
400.84        74.01372
401.29        73.22646
401.74         72.8251
402.18        72.85256
402.63        72.61185
403.08        72.16337
403.53        71.93396
403.97        71.94164
404.42        72.04826
404.87        72.15972
405.32        72.14679
405.76         71.9693
406.21        71.70111
406.66         71.4223
407.11        71.29261
407.55        71.36877
408.00        71.49326
408.45        71.61037
408.90        71.78433
409.34        71.87505
409.79        71.50943
410.24        70.86304
410.68        70.52844
411.13        70.57339
411.58        70.70423
412.03        70.80704
412.47        70.81241
412.92        70.65784
413.37        70.40501
413.81        70.15131
414.26        70.10397
414.71        70.27155
415.15        70.61824
415.60        71.01348
416.05        71.30795
416.49        71.44652
416.94        71.45969
417.39        71.41071
417.83        71.38664
418.28        71.42077
418.73        71.47951
419.17         71.5463
419.62        71.60272
420.07        71.63186
420.51        71.62185
420.96        71.60347
421.41        71.55338
421.85        71.44849
422.30        71.39513
422.74        71.31278
423.19        71.12887
423.64        70.85519
424.08          70.668
424.53          70.616
424.98        70.72024
425.42        71.00242
425.87        71.42695
426.31        71.86497
426.76         72.1104
427.21        72.10258
427.65         71.7804
428.10         71.2896
428.54        71.08885
428.99        71.28239
429.44        71.38554
429.88        71.45765
430.33         72.1776
430.77        73.15636
431.22        73.48627
431.66        73.15395
432.11        72.58098
432.56        72.04945
433.00        72.18901
433.45        73.04091
433.89        73.47722
434.34        73.00816
434.78        73.90792
435.23        73.68935
435.67        71.61838
436.12        72.19556
436.57        72.24939
437.01        73.02279
437.46        73.34331
437.90        73.20465
438.35        72.66364
438.79        72.80375
439.24        72.80951
439.68        72.95432
440.13         73.4083
440.57        74.04465
441.02        74.05196
441.46        73.55854
441.91        73.96586
442.35        74.92635
442.80        74.90502
443.24          74.061
443.69        74.05233
444.13        74.81213
444.58        75.12757
445.02        74.95828
445.47        74.95118
445.91        75.15477
446.36        75.38252
446.80        75.61617
447.24         75.9173
447.69        76.23397
448.13        76.32349
448.58         76.4229
449.02        76.33013
449.47        76.18539
449.91        76.10229
450.36         76.1141
450.80        76.08012
451.25        76.03942
451.69        76.07685
452.13        76.20377
452.58        76.35666
453.02        76.50018
453.47        76.60782
453.91        76.65309
454.36        76.65479
454.80        76.62256
455.24        76.44865
455.69        76.12587
456.13        75.93152
456.58        76.00407
457.02        75.23724
457.46        75.13055
457.91        75.57982
458.35        75.92873
458.79        75.92306
459.24         75.3734
459.68        74.55235
460.13         73.7308
460.57        73.53651
461.01        74.19868
461.46        73.95244
461.90        74.66099
462.34         75.9232
462.79        75.66012
463.23        75.30765
463.68        75.43303
464.12        75.32231
464.56        75.20214
465.01        74.29785
465.45        72.98239
465.89        72.72483
466.34        73.36321
466.78        73.77806
467.22        73.87277
467.67        73.41129
468.11        73.52953
468.55        73.59471
468.99        73.85132
469.44        73.82867
469.88        73.54484
470.32        73.28238
470.77        73.09944
471.21         73.0568
471.65        73.18042
472.10        73.04288
472.54        73.35518
472.98         73.3718
473.42        73.27766
473.87        73.24384
474.31        73.20198
474.75        72.77235
475.20        72.14954
475.64         72.0858
476.08        72.51271
476.52        72.57665
476.97        72.19019
477.41         72.0193
477.85        72.25813
478.29        71.82089
478.74        72.09684
479.18         73.0221
479.62        72.30656
480.06        72.37099
480.50        72.39054
480.95        72.40026
481.39        72.38829
481.83        72.10094
482.27        71.85246
482.72        72.42857
483.16        71.84399
483.60        71.95814
484.04        72.17857
484.48        72.60393
484.93        72.68058
485.37        72.71918
485.81        71.65649
486.25        70.47014
486.69        69.53793
487.14        72.42622
487.58        73.10915
488.02        72.45698
488.46        70.93606
488.90        71.33915
489.34        72.38725
489.79        73.45958
490.23        72.75602
490.67        72.02321
491.11        71.27219
491.55        71.11797
491.99        71.52235
492.43        71.55011
492.88        71.18923
493.32        71.13164
493.76        71.37996
494.20        71.55585
494.64        71.62935
495.08        71.68187
495.52        71.68553
495.96        71.68745
496.41        71.65826
496.85        71.40715
497.29        70.95546
497.73        70.99106
498.17        70.63907
498.61        70.79317
499.05        71.09299
499.49        71.29126
499.93         71.1007
500.37        71.18947
500.82        71.47482
501.26        71.23196
501.70        71.08981
502.14        71.09512
502.58        71.39622
503.02        71.55872
503.46        71.56074
503.90        71.63854
504.34        71.74644
504.78         71.6946
505.22        71.44977
505.66        71.15891
506.10        70.94859
506.54        70.71311
506.98        70.42124
507.42        71.18327
507.86        71.05793
508.30        71.11592
508.74        71.32333
509.18        71.30589
509.62        71.22656
510.06        71.10098
510.50        70.96993
510.94        70.80032
511.38        70.64305
511.82        70.59653
512.26        70.67434
512.70         70.8546
513.14         71.0667
513.58        71.18929
514.02        71.19128
514.46        71.10365
514.90          70.983
515.34        70.93021
515.78        70.97205
516.22        71.05045
516.66        71.14957
517.10        71.21195
517.54        71.23974
517.98        71.17402
518.42        71.01033
518.86        71.17527
519.30         70.9854
519.74        70.98033
520.18        70.96507
520.62        71.00364
521.06        71.10029
521.50         71.2077
521.93        71.27196
522.37        71.45526
522.81        71.28665
523.25        71.16216
523.69        71.03175
524.13        71.05004
524.57        71.22908
525.01        71.51144
525.45        71.78989
525.89        71.87901
526.32        71.73285
526.76        71.44302
527.20        71.07834
527.64        70.76288
528.08        70.54787
528.52        70.36823
528.96        70.25877
529.40        70.34489
529.83        70.57853
530.27        70.78746
530.71        70.90463
531.15        70.97035
531.59        70.96287
532.03        70.81076
532.46        70.57056
532.90        70.43256
533.34         70.4193
533.78        70.44247
534.22        70.44957
534.66        70.44569
535.09        70.36378
535.53        70.07629
535.97        69.66987
536.41        69.45571
536.85         69.4736
537.28        69.57465
537.72         69.7192
538.16        69.89693
538.60        70.07524
539.04        70.24801
539.47        70.38499
539.91        70.48767
540.35          70.538
540.79        70.53682
541.22        70.48788
541.66        70.42635
542.10        70.35737
542.54        70.27953
542.97        70.19435
543.41        70.13531
543.85        70.09706
544.29        70.08282
544.72         70.0655
545.16        70.04302
545.60        70.00329
546.04         69.9603
546.47         69.9369
546.91        69.98396
547.35        70.10576
547.79        70.22269
548.22        70.31301
548.66         70.4752
549.10        70.70102
549.53        70.63684
549.97        70.36021
550.41        70.12611
550.84        70.02502
551.28        70.10968
551.72        70.31255
552.15        70.38518
552.59        70.33147
553.03        70.17514
553.46        70.43692
553.90        70.17108
554.34        70.27313
554.77        70.18599
555.21        70.16369
555.65        70.14349
556.08        70.22844
556.52        70.26862
556.96        70.25962
557.39        70.34402
557.83        70.46126
558.27        70.21918
558.70        69.71761
559.14        69.54808
559.57        69.69511
560.01        69.76039
560.45        69.73096
560.88        69.83133
561.32        70.05469
561.75        70.22982
562.19        70.32319
562.63        70.23603
563.06        70.02528
563.50        69.92868
563.93        69.90588
564.37        69.95003
564.80        70.03635
565.24         69.8711
565.68        69.35701
566.11        70.01267
566.55        69.33678
566.98        69.21939
567.42        69.05195
567.85        69.20229
568.29        69.63194
568.72        69.96812
569.16        70.20606
569.60        70.41454
570.03        70.26011
570.47        70.27492
570.90        70.44009
571.34        69.50652
571.77        69.84312
572.21        70.13453
572.64        69.73747
573.08        70.55276
573.51        70.04128
573.95        69.82969
574.38        69.62456
574.82        69.67861
575.25        69.70119
575.69        69.97048
576.12         70.3222
576.56        69.95895
576.99        69.45503
577.42        69.50889
577.86        69.75775
578.29        70.30813
578.73        70.09324
579.16        70.46889
579.60        70.03363
580.03        69.84251
580.47        69.83389
580.90          70.509
581.33        70.05824
581.77        70.47173
582.20        69.33517
582.64        70.43003
583.07         70.3046
583.51        70.23087
583.94        70.17987
584.37          70.131
584.81        70.21204
585.24        70.02533
585.68         69.6655
586.11        69.67011
586.54         69.9224
586.98        69.45298
587.41        69.37586
587.85        69.76482
588.28        69.33589
588.71        69.75998
589.15        69.24146
589.58        69.65958
590.01        69.42274
590.45        69.36542
590.88        70.50218
591.31        70.37936
591.75        69.58655
592.18        69.19852
592.61        69.37703
593.05        69.68185
593.48        70.04335
593.91         69.9153
594.35        70.01935
594.78         69.6246
595.21        69.11069
595.65         69.2255
596.08        70.13714
596.51        70.13921
596.94        70.04647
597.38        69.86346
597.81        69.80489
598.24        70.31282
598.68        69.91425
599.11        69.49362
599.54        70.30563
599.97        69.70234
600.41        70.05007
600.84        69.23433
601.27        69.80675
601.70        69.62622
602.14        69.73775
602.57        69.55108
603.00        69.47713
603.43        68.73122
603.87        69.79477
604.30        70.05241
604.73        70.24828
605.16        69.49159
605.60        69.42797
606.03        69.00924
606.46        68.74088
606.89         68.9083
607.32        69.95653
607.76        69.12642
608.19        69.72556
608.62        69.67722
609.05        69.44552
609.48        69.37968
609.92        70.22562
610.35        69.81979
610.78        69.08599
611.21        69.22366
611.64        69.26579
612.07        69.65703
612.50        69.59692
612.94         69.6388
613.37        69.62256
613.80        69.33168
614.23        68.64577
614.66        68.60531
615.09        69.08753
615.52        69.30608
615.96        69.17181
616.39        69.25221
616.82        69.57698
617.25         69.1964
617.68        69.19147
618.11        69.25411
618.54        69.63595
618.97        69.71428
619.40        69.46111
619.84         69.5684
620.27        69.39732
620.70        69.38215
621.13        69.29638
621.56        68.93185
621.99        68.37102
622.42        68.23876
622.85        68.57492
623.28        68.44492
623.71         68.2901
624.14        68.69259
624.57        68.98795
625.00        68.75391
625.43        69.01903
625.86        68.91602
626.29        68.90513
626.72        68.59359
627.15        68.80109
627.58        68.91856
628.01        69.06863
628.44        68.94045
628.87        68.60879
629.30        68.44532
629.73        68.46059
630.16        68.65586
630.59        68.64023
631.02        68.64832
631.45        68.97269
631.88        69.10837
632.31        69.15656
632.74        69.14164
633.17        69.08308
633.60        69.00231
634.03        68.91232
634.46         68.8024
634.89        68.68263
635.32        68.59219
635.75        68.54313
636.18         68.4563
636.61        68.36084
637.04        68.34279
637.47        68.40536
637.89        68.51638
638.32        68.60454
638.75         68.6208
639.18        68.55012
639.61        68.40903
640.04         68.2573
640.47        68.19075
640.90        68.23228
641.33        68.35814
641.76        68.51092
642.18        68.60268
642.61        68.58739
643.04        68.49673
643.47        68.38713
643.90        68.35835
644.33        68.42925
644.76        68.53282
645.18        68.66222
645.61        68.65517
646.04        68.51439
646.47        68.28671
646.90        68.04205
647.33        67.88226
647.75        67.81609
648.18        67.86454
648.61        68.02905
649.04        68.10368
649.47        67.98323
649.89        68.62505
650.32        68.21804
650.75        68.25952
651.18        68.23904
651.61        68.30453
652.03        68.46159
652.46        68.43702
652.89         68.2821
653.32        68.47581
653.74        68.90314
654.17          68.557
654.60        68.65626
655.03        68.32217
655.46        67.11129
655.88        67.40157
656.31        68.59753
656.74        65.23903
657.16        69.51182
657.59        74.58309
658.02        69.59805
658.45        69.38589
658.87        68.98722
659.30        68.54297
659.73        68.72881
660.15        69.57621
660.58        68.55917
661.01        68.19052
661.44        67.84965
661.86        67.57232
662.29        67.33115
662.72        67.96809
663.14        68.04916
663.57        67.98952
664.00        67.54893
664.42        67.54124
664.85         67.9978
665.27        68.44086
665.70        68.70282
666.13         68.8108
666.55         68.7345
666.98        68.39546
667.41        67.88961
667.83        67.82188
668.26        67.54003
668.69        67.57542
669.11        67.69273
669.54         67.8342
669.96        67.97063
670.39        68.15696
670.82        68.30054
671.24        68.40473
671.67        68.43197
672.09        68.38364
672.52        68.29639
672.94        68.19084
673.37        68.09061
673.80        67.98397
674.22        67.90817
674.65         67.8854
675.07        67.93632
675.50        68.04136
675.92        68.15324
676.35        68.17947
676.77        68.10292
677.20        67.94621
677.62        67.77077
678.05        67.67673
678.47        67.68666
678.90         67.7776
679.32        67.89192
679.75         67.9473
680.17        67.91774
680.60        67.84378
681.02        67.77449
681.45        67.75417
681.87        67.82507
682.30         68.0065
682.72        68.24297
683.15        68.36601
683.57        68.34949
684.00        68.20396
684.42        68.02489
684.85        67.99708
685.27        68.14053
685.70        68.38702
686.12        68.63335
686.54        68.75278
686.97        68.70708
687.39        68.54478
687.82        68.33015
688.24        68.18985
688.66        68.15672
689.09        68.18826
689.51        68.26229
689.94        68.31505
690.36        68.33375
690.78        68.32461
691.21        68.31535
691.63        68.33651
692.06        68.39964
692.48        68.50664
692.90        68.60165
693.33         68.5989
693.75        68.47778
694.17        68.24248
694.60        68.02004
695.02        67.96445
695.44        68.09299
695.87        68.51136
696.29        69.00954
696.71        68.79314
697.14        68.00292
697.56        67.67361
697.98         67.8783
698.41        67.92963
698.83        67.82539
699.25        68.04642
699.68        68.45511
700.10         68.6368
700.52        68.50932
700.94        68.20361
701.37        67.87405
701.79        67.77594
702.21        67.96067
702.64        68.32263
703.06        68.72346
703.48        68.92744
703.90        68.86893
704.33        68.62614
704.75         68.3045
705.17        68.06096
705.59        67.95709
706.01        67.94982
706.44        68.00718
706.86         68.1047
707.28        68.21182
707.70         68.3175
708.12        68.43829
708.55        68.62798
708.97        68.85792
709.39        68.99268
709.81        69.00809
710.23        69.00224
710.66        68.97427
711.08        68.86825
711.50        68.71289
711.92        68.61026
712.34         68.5813
712.76         68.6139
713.19        68.65316
713.61        68.64312
714.03        68.56023
714.45        68.43932
714.87        68.35737
715.29        68.43167
715.71         68.6746
716.13        69.02695
716.56        69.38406
716.98        69.66295
717.40        69.77951
717.82        69.76884
718.24        69.63639
718.66        69.39439
719.08        69.08518
719.50        68.73606
719.92        68.43168
720.34        68.29634
720.76        68.35353
721.19        68.54781
721.61        68.85563
722.03          69.173
722.45        69.44084
722.87        69.66605
723.29        69.78089
723.71        69.68468
724.13        69.38043
724.55        68.91434
724.97        68.40994
725.39        68.07883
725.81        67.98452
726.23          68.054
726.65         68.2266
727.07        68.54623
727.49        68.72088
727.91        68.96911
728.33        69.19789
728.75        69.38109
729.17        69.50371
729.59        69.55305
730.01        69.54394
730.43        69.51278
730.85        69.47035
731.27        69.40787
731.69        69.32713
732.10        69.22477
732.52        69.10435
732.94        68.99727
733.36        68.92146
733.78        68.76706
734.20         68.5266
734.62        68.47562
735.04        68.73243
735.46        68.20262
735.88        68.91434
736.30        69.19686
736.72        69.57708
737.13        69.86175
737.55        69.95657
737.97        70.04282
738.39        70.07111
738.81        69.70828
739.23        69.12907
739.65        69.10732
740.06        69.55548
740.48        69.82135
740.90        69.71629
741.32        69.77993
741.74        69.98359
742.16        70.11405
742.57        70.15771
742.99        70.15537
743.41        70.10545
743.83        69.98681
744.25        69.81028
744.67        69.57451
745.08        69.36476
745.50        69.29522
745.92        69.39211
746.34        69.61349
746.75        69.85519
747.17        69.92133
747.59        69.77646
748.01        69.52025
748.42        69.24169
748.84        69.01639
749.26        68.92235
749.68         69.0733
750.09        69.28253
750.51          69.561
750.93        69.75677
751.35        69.67961
751.76        69.37867
752.18        69.17881
752.60        69.11003
753.01        68.99864
753.43         68.8428
753.85         68.7644
754.27        68.77805
754.68        68.86423
755.10        68.99373
755.52        69.10912
755.93        69.18189
756.35         69.2149
756.77        69.24935
757.18        69.27867
757.60        69.30145
758.02        69.48573
758.43        69.73833
758.85        69.38664
759.26        69.08395
759.68        68.96997
760.10        69.14021
760.51        69.40131
760.93        69.82125
761.34        68.85129
761.76        69.84145
762.18        69.78727
762.59        69.74988
763.01         69.9048
763.42         70.2665
763.84         70.3777
764.26        70.19393
764.67        69.93176
765.09        69.69952
765.50        69.48689
765.92         69.3643
766.33        69.30647
766.75        69.26334
767.16        69.31577
767.58        69.39735
768.00        69.48595
768.41        69.59911
768.83        69.70123
769.24        69.75405
769.66        69.85985
770.07        69.95351
770.49        69.61335
770.90        69.05866
771.32        69.31924
771.73        70.24619
772.15        70.59312
772.56        70.28985
772.97        69.96989
773.39        69.79658
773.80        69.79452
774.22        69.97033
774.63        70.28946
775.05        70.57248
775.46        70.67575
775.88        70.52002
776.29        70.16006
776.70        69.74113
777.12        69.54498
777.53        69.64687
777.95        69.91428
778.36        70.25311
778.77          70.465
779.19        70.50826
779.60        70.47188
780.02        70.35584
780.43        70.24975
780.84        70.21558
781.26        69.89861
781.67        69.49097
782.09        70.05283
782.50        71.24261
782.91        71.23816
783.33        70.17875
783.74        69.81831
784.15        70.22551
784.57        70.56448
784.98        70.70099
785.39        70.43546
785.81        69.95782
786.22        70.21761
786.63        71.09431
787.04        71.49036
787.46        71.35303
787.87        71.27634
788.28          71.332
788.70         71.3445
789.11        71.31335
789.52        71.31871
789.93        71.33503
790.35        71.31168
790.76        71.25254
791.17        71.14944
791.58        71.06527
792.00        71.04172
792.41        71.09711
792.82        71.34474
793.23        71.65392
793.65        71.46981
794.06        70.93571
794.47        70.89906
794.88        71.30375
795.29        71.41784
795.71         71.1925
796.12        71.08485
796.53        71.15317
796.94        71.27977
797.35        71.46122
797.76        71.73338
798.18          71.985
798.59        72.08687
799.00        71.98906
799.41        71.72513
799.82        71.41953
800.23        71.29017
800.64        71.38416
801.06        71.60437
801.47        71.88184
801.88        71.99825
802.29         71.8935
802.70        71.64128
803.11        71.31507
803.52        71.03184
803.93         70.8527
804.34        70.74904
804.75        70.73902
805.17        70.87762
805.58        71.19342
805.99        71.52097
806.40        71.80453
806.81        72.25024
807.22        72.67121
807.63        72.39419
808.04        71.58913
808.45        71.15376
808.86        71.19825
809.27        71.28802
809.68        71.33425
810.09        71.37955
810.50        71.39175
810.91        71.36253
811.32        71.37942
811.73        71.57893
812.14        71.97225
812.55        72.50056
812.96        72.99883
813.37        73.16767
813.78        72.93071
814.19         72.4092
814.60        71.77754
815.01        71.26466
815.42        70.93526
815.83        70.73135
816.24        70.65108
816.65        70.68682
817.05        70.82637
817.46        71.04954
817.87        71.31229
818.28        71.48877
818.69         71.5513
819.10        71.50908
819.51        71.43559
819.92        71.47997
820.33        71.67456
820.74        71.96298
821.14         72.2607
821.55        72.42712
821.96        72.42853
822.37        72.31519
822.78        72.13917
823.19        71.98608
823.60        71.89249
824.00        71.85748
824.41        71.83102
824.82        71.84393
825.23        71.88258
825.64        71.94357
826.04        72.00568
826.45        71.98697
826.86        71.88795
827.27        71.74164
827.68        71.56001
828.08        71.39377
828.49        71.21735
828.90        71.03911
829.31        70.93604
829.72        71.03198
830.12        71.36344
830.53        71.83927
830.94        72.30243
831.35        72.43312
831.75        72.17274
832.16        71.59103
832.57        70.92698
832.97        70.54416
833.38         70.5379
833.79        70.78109
834.20        71.14368
834.60        71.41276
835.01        71.52483
835.42        71.59927
835.82        71.64198
836.23        71.57755
836.64         71.4448
837.04        71.20778
837.45        71.06636
837.86        71.41867
838.26         72.3364
838.67        73.66918
839.08        74.95266
839.48        75.31167
839.89        74.54292
840.29        72.96194
840.70        71.30214
841.11        70.43263
841.51        70.56371
841.92        71.42445
842.33         72.6451
842.73        73.55002
843.14        73.78011
843.54        73.58426
843.95        73.19742
844.35          73.053
844.76        73.24705
845.17        73.62056
845.57        73.98071
845.98        74.00629
846.38        73.64929
846.79        73.03462
847.19        72.37767
847.60        71.97709
848.00        71.93082
848.41        72.12277
848.81        72.43685
849.22        72.59642
849.62        72.55986
850.03        72.38913
850.43         72.1918
850.84        72.06657
851.24        72.09641
851.65        72.17577
852.05        72.34733
852.46        72.57212
852.86        72.82024
853.27         73.0931
853.67        73.27106
854.07        73.30762
854.48        73.17066
854.88        72.90629
855.29        72.52168
855.69        72.18046
856.10        71.87817
856.50        71.67309
856.90        71.53905
857.31        71.44479
857.71        71.43311
858.12        71.44234
858.52        71.52375
858.92        71.64113
859.33        71.75233
859.73         71.8945
860.13        71.95794
860.54        71.79314
860.94        71.43053
861.34        70.91122
861.75        70.38493
862.15        70.14403
862.55        70.23536
862.96        70.53658
863.36        70.97195
863.76         71.3109
864.17        71.45184
864.57        71.49242
864.97        71.36475
865.38        70.97621
865.78        70.37462
866.18        69.57508
866.58        68.81455
866.99        68.52114
867.39        68.81661
867.79        69.56476
868.19        70.46847
868.60        71.03921
869.00        71.17411
869.40        70.96494
869.80        70.57529
870.21        70.33549
870.61        70.42281
871.01        70.67637
871.41        70.91171
871.81        70.87566
872.22        70.51807
872.62        69.93259
873.02        69.33067
873.42        69.04993
873.82         69.1796
874.22        69.61029
874.63        70.10019
875.03        70.28862
875.43        70.07301
875.83        69.57017
876.23        68.99768
876.63        68.68986
877.03        68.73237
877.44        68.99676
877.84        69.33498
878.24        69.50464
878.64        69.39484
879.04        68.97285
879.44        68.46188
879.84        68.29004
880.24        68.50702
880.64        68.93922
881.04        69.32534
881.44        69.27291
881.84        68.70121
882.24        67.76389
882.65        66.77138
883.05        66.18822
883.45        66.14651
883.85        66.53055
884.25        67.12426
884.65        67.55187
885.05        67.69239
885.45        67.64767
885.85        67.58648
886.25        67.76892
886.65        68.24497
887.05        68.90687
887.45         69.5639
887.85        69.91662
888.25        69.88424
888.65        69.56426
889.04        69.14051
889.44         68.9278
889.84         68.9885
890.24        69.22705
890.64        69.49899
891.04        69.56763
891.44        69.38044
891.84        69.04895
892.24        68.67886
892.64        68.40997
893.04        68.29622
893.44        68.29857
893.83        68.43054
894.23        68.66358
894.63        68.98457
895.03        69.36431
895.43        69.75048
895.83        70.06287
896.23          70.249
896.63        70.29308
897.02         70.1498
897.42        69.79082
897.82        69.24662
898.22         68.5953
898.62        67.92322
899.01        67.33531
899.41        66.90149
899.81         66.5977
900.21        66.49343
900.61        66.68567
901.00        67.15558
901.40        67.84379
901.80        68.55679
902.20        68.98429
902.59        69.06017
902.99        68.85278
903.39        68.51228
903.79        68.30455
904.18        68.29247
904.58        68.38017
904.98        68.53913
905.38        68.73191
905.77        68.93629
906.17        69.22372
906.57        69.43748
906.96        69.30781
907.36        68.80265
907.76        68.01203
908.15        67.33609
908.55        67.39367
908.95        68.29446
909.34        69.84138
909.74        71.47414
910.14        72.34605
910.53        72.18977
910.93        71.27841
911.33        69.99175
911.72        68.91984
912.12        68.32966
912.52        68.06673
912.91        68.00362
913.31        67.96622
913.70        67.89713
914.10        67.84301
914.49        67.95042
914.89        68.34526
915.29        69.04401
915.68        69.96462
916.08        70.76807
916.47        70.99333
916.87        70.56596
917.26        69.62115
917.66        68.60698
918.05        68.04868
918.45         68.0787
918.84        68.60005
919.24        69.28896
919.64        69.70338
920.03        69.71556
920.42        69.42527
920.82        69.12772
921.21        69.22417
921.61        69.77669
922.00         70.6741
922.40        71.56855
922.79        72.01104
923.19        71.84297
923.58        71.26081
923.98        70.55796
924.37        70.08939
924.77        69.97555
925.16        70.06207
925.55        70.28262
925.95        70.50393
926.34        70.66582
926.74        70.78865
927.13        70.77551
927.52        70.39433
927.92        69.69423
928.31        68.76293
928.70        67.84123
929.10        67.27254
929.49        67.12188
929.89        67.22234
930.28        67.59827
930.67        68.15572
931.07        68.78279
931.46        69.59307
931.85        70.20456
932.24        70.05207
932.64        69.12703
933.03        67.56893
933.42        66.11095
933.82        65.84158
934.21        66.95728
934.60        69.19965
934.99        71.75949
935.39        73.15049
935.78        72.96882
936.17        71.52972
936.56        69.65326
936.96        68.65541
937.35        68.87521
937.74        69.91018
938.13        71.07491
938.53         71.3065
938.92        70.38516
939.31        68.76859
939.70        67.07515
940.09         66.1528
940.49        66.17247
940.88        66.86413
941.27         67.9072
941.66        68.72722
942.05        69.09776
942.44        69.22447
942.84        69.18394
943.23        69.07777
943.62        68.97448
944.01        68.76093
944.40        68.59705
944.79        68.79061
945.18        69.36452
945.57        70.25164
945.97        71.03303
946.36         71.0811
946.75         70.2401
947.14        68.78898
947.53        67.23853
947.92         66.3173
948.31        66.19897
948.70        66.67626
949.09        67.48686
949.48        68.16622
949.87        68.53412
950.26        68.71531
950.65        68.80039
951.04        68.94273
951.43        69.18336
951.82        69.42133
952.21        69.59514
952.60        69.64141
952.99        69.56379
953.38        69.43826
953.77        69.30821
954.16        69.22825
954.55        69.20591
954.94        69.17468
955.33        69.20201
955.72        69.39851
956.11        69.76122
956.50        70.29826
956.89        70.68467
957.28        70.38048
957.66        69.32413
958.05        67.75289
958.44         66.2718
958.83        65.75443
959.22        66.33611
959.61        67.75852
960.00        69.42613
960.39        70.21767
960.78        69.78737
961.16        68.49565
961.55        66.93571
961.94        65.87175
962.33        65.52383
962.72        65.68832
963.11        66.15964
963.49         66.5912
963.88        66.74329
964.27        66.72306
964.66        66.72453
965.04        67.05229
965.43        67.69476
965.82        68.58467
966.21        69.27793
966.60        68.98801
966.98        67.58732
967.37        65.51113
967.76        63.52789
968.15        62.57843
968.53        62.82568
968.92        64.01878
969.31        65.68935
969.69        66.85571
970.08         67.0498
970.47        66.56597
970.86        65.87518
971.24        65.66859
971.63        66.11446
972.02        66.98421
972.40        67.96478
972.79        68.22978
973.17        67.63258
973.56        66.50937
973.95        65.33299
974.33        64.66772
974.72        64.64304
975.11        65.06104
975.49        65.74273
975.88        66.26974
976.26        66.51756
976.65          66.548
977.04        66.42773
977.42        66.23015
977.81        65.95995
978.19        65.56311
978.58        65.19475
978.96        65.07768
979.35        65.23041
979.74        65.64634
980.12        66.17632
980.51        66.30927
980.89        66.05701
981.28        65.53242
981.66        65.04571
982.05        65.02309
982.43        65.55508
982.82        66.47284
983.20         67.6541
983.59        68.74045
983.97        69.63258
984.35        70.37537
984.74        70.76825
985.12        70.75157
985.51        70.29321
985.89        69.45763
986.28         68.6422
986.66        68.36246
987.04        68.80685
987.43        69.85317
987.81        71.17851
988.20        71.98492
988.58        72.01127
988.96        71.32166
989.35        70.38937
989.73        69.90953
990.12        70.01652
990.50        70.61348
990.88        71.04742
991.27         70.2249
991.65        68.04105
992.03        64.97332
992.42        62.23506
992.80        61.43172
993.18        62.85463
993.56        66.10583
993.95        69.93419
994.33         72.0414
994.71        71.52107
995.10        69.15854
995.48        66.26411
995.86        64.88187
996.24        65.49008
996.63        67.30886
997.01        69.76612
997.39        71.31887
997.77        71.29591
998.15        70.41124
998.54        68.81104
998.92        66.50188
999.30          63.847
999.68        60.87391
1000.06        58.60244
1000.45        58.51458
1000.83        60.93316
1001.21        65.66502
1001.59        71.45968
1001.97        75.13718
1002.35        75.38993
1002.73          73.066
1003.12        69.92509
1003.50        68.31952
1003.88        68.90098
1004.26        70.81803
1004.64        73.49847
1005.02        75.68256
1005.40        76.69118
1005.78         77.1897
1006.16        76.75349
1006.54        74.62816
1006.92        71.10023
1007.30        66.50307
1007.69        62.56527
1008.07        61.66753
1008.45        64.39812
1008.83        70.29117
1009.21        77.66363
1009.59        82.18713
1009.97        81.78411
1010.35        77.67017
1010.73        71.65945
1011.11        66.44853
1011.49        63.00959
1011.86         60.6676
1012.24        59.42064
1012.62        59.26208
1013.00        60.04876
1013.38        61.96772
1013.76        64.69642
1014.14        67.02798
1014.52        68.25352
1014.90        68.41324
1015.28         67.7989
1015.66        67.09296
1016.04        66.52977
1016.41        65.88937
1016.79        65.30573
1017.17        65.12177
1017.55        65.38686
1017.93        66.08991
1018.31        66.87383
1018.69        67.14597
1019.06          66.811
1019.44        65.97249
1019.82        64.92203
1020.20         64.4068
1020.58         64.6829
1020.95        65.33306
1021.33        66.17644
1021.71        66.91331
1022.09        67.53764
1022.46        68.40768
1022.84        69.11658
1023.22        68.83829
1023.60        67.42945
1023.97        64.96567
1024.35        63.09037
1024.73        63.65009
