SpectraSmart Spectrum 2.9.0.0
--------- Device Information -----------
Spectrum Name :  反射率_0
Saving Time :  2024/04/26 22:37:55
Spectro-Module Model Name : SE2030-DUVN
Spectro-Module Serial Number : OS361AC55029948
Wavelength Start : 200
Wavelength End : 1025
Wavelength Unit : Wavelength(nm)
Spectrum Unit : Reflectance(%)
-----------Spectrum Setting ------------
Integration Time : 20ms
Average : 10
Boxcar : 0
Background removal :  enabled
linearity correction :  enabled
SC :  disabled
Intensity correction :  disabled
DWT denoise :  enabled
savitzky-golay :  disabled
FFT :  disabled
Running average :  disabled
Kalman :  disabled
High pass :  disabled
---------------BEGIN--------------------
Wavelength(nm)             Reflectance(%)
200.29               0
200.75        34.40487
201.21        32.19768
201.67        32.06758
202.13        34.42569
202.58        39.17667
203.04        47.36854
203.50        58.02404
203.96        65.63393
204.42        66.06535
204.88         59.0967
205.34        48.43659
205.80        42.88446
206.26        44.67543
206.72        50.19619
207.18        55.97124
207.64        59.12223
208.10         59.5792
208.55        59.21072
209.01        56.94139
209.47        52.39187
209.93        48.04276
210.39        44.81045
210.85        44.03297
211.31        46.93419
211.77          54.814
212.23        73.66001
212.69        120.1868
213.14        192.6315
213.60        179.1662
214.06        120.0344
214.52        83.17318
214.98        68.50178
215.44        64.24276
215.90        63.67838
216.36        65.34547
216.81        67.87611
217.27        71.04371
217.73        77.40525
218.19        84.71407
218.65        82.46629
219.11        70.53999
219.57        56.97198
220.02        49.24096
220.48        51.07321
220.94        61.73851
221.40         82.6017
221.86        112.8334
222.32        132.0569
222.77        122.9707
223.23        99.35487
223.69        75.98939
224.15        60.92648
224.61        52.87053
225.06        48.15461
225.52        45.81088
225.98        44.86494
226.44        44.74573
226.90          45.602
227.36        46.74687
227.81        46.88128
228.27        45.92432
228.73        44.20889
229.19        42.52282
229.65        41.81442
230.10        42.14242
230.56        43.20489
231.02        44.45675
231.48        45.06419
231.93        44.78429
232.39        44.09348
232.85        43.43985
233.31        43.47448
233.77        44.23604
234.22         45.5277
234.68         46.8251
235.14        47.42643
235.60        47.16797
236.05        46.29708
236.51        45.22699
236.97        44.84601
237.43        45.52868
237.88        47.07793
238.34        49.19881
238.80        51.66643
239.26        54.53505
239.71        58.51254
240.17        63.29015
240.63        67.98967
241.08        71.93292
241.54        74.14285
242.00        76.28093
242.46        82.64725
242.91        96.74702
243.37        121.2275
243.83        156.7046
244.28         186.546
244.74        186.4157
245.20        156.5876
245.66        119.8948
246.11         96.3758
246.57        86.84225
247.03         85.7361
247.48        88.01581
247.94        86.04251
248.40        80.09367
248.85        74.08659
249.31        70.70049
249.77        71.18884
250.22        75.25191
250.68         82.2902
251.14        91.33407
251.59        97.44726
252.05        97.33138
252.51        93.60114
252.96        87.54443
253.42        81.03964
253.88        74.90639
254.33        68.76736
254.79        65.45629
255.25        67.01958
255.70        72.69231
256.16        81.41592
256.62        89.01855
257.07         89.2728
257.53        83.86763
257.99        76.60412
258.44        70.67115
258.90        68.94439
259.35        70.05642
259.81        72.78056
260.27        75.22796
260.72        75.18037
261.18        72.95097
261.63        69.41486
262.09         66.1123
262.55        64.00536
263.00        62.97142
263.46        62.66671
263.91        62.28147
264.37        61.19069
264.83        59.33443
265.28        57.04565
265.74        54.99466
266.19        53.64884
266.65        53.11651
267.11        53.06305
267.56        53.12433
268.02        52.75849
268.47        51.82142
268.93        50.53456
269.38        49.08686
269.84        47.81998
270.30         46.8165
270.75        45.96091
271.21        45.22339
271.66         44.4985
272.12        43.75906
272.57        43.02234
273.03        42.28859
273.48        41.53646
273.94        40.80535
274.39        40.03288
274.85        39.29062
275.31        38.53546
275.76        37.74749
276.22        37.00516
276.67        36.24715
277.13        35.48347
277.58        34.67727
278.04        33.85666
278.49         33.0794
278.95        32.55008
279.40        32.22471
279.86        32.10512
280.31        31.94276
280.77        31.49397
281.22         30.7057
281.68        29.74791
282.13        28.83236
282.59        28.33688
283.04        28.27627
283.50        28.54582
283.95        28.91827
284.41        29.04105
284.86        28.83427
285.32        28.45865
285.77        28.07799
286.22        27.98539
286.68        28.22985
287.13        28.65118
287.59        29.15094
288.04        29.53943
288.50        29.77162
288.95        29.87707
289.41        29.87601
289.86        29.72094
290.32        29.48176
290.77         29.1822
291.22         28.9445
291.68        28.93279
292.13        29.18889
292.59        29.71264
293.04        30.46826
293.50        31.40283
293.95        32.47246
294.40        33.67959
294.86        35.01123
295.31        36.43884
295.77        37.94829
296.22        39.50831
296.68        41.09557
297.13        42.66705
297.58        44.23859
298.04        45.84307
298.49        47.51866
298.95        49.34631
299.40         51.3207
299.85        53.40103
300.31        55.57398
300.76        57.79174
301.21        60.03328
301.67        62.32572
302.12        64.55315
302.58        66.63869
303.03        68.53535
303.48        70.30904
303.94        72.12579
304.39        74.16206
304.84        76.47401
305.30        78.99687
305.75        81.53914
306.20        83.90427
306.66         86.0499
307.11        87.99899
307.57        89.82881
308.02        91.53613
308.47        93.17297
308.93        94.72886
309.38        96.24311
309.83        97.91397
310.29         99.7674
310.74        101.7495
311.19        103.6606
311.65        105.1323
312.10        106.0656
312.55        106.5667
313.00        106.9189
313.46        107.5721
313.91        108.6036
314.36        109.9126
314.82        111.2532
315.27        112.2389
315.72        112.7467
316.18        112.9381
316.63        112.9862
317.08        113.2122
317.53        113.7087
317.99        114.3617
318.44        115.0724
318.89        115.6514
319.35        116.0313
319.80        116.2785
320.25        116.4561
320.70        116.6607
321.16        116.9231
321.61        117.2602
322.06        117.6051
322.51        117.8654
322.97        118.0101
323.42         118.072
323.87        118.1995
324.32        118.6562
324.78        119.4371
325.23        120.5419
325.68        121.6049
326.13        122.0296
326.59        121.6861
327.04        120.7922
327.49        119.7962
327.94        119.4447
328.39        119.9244
328.85        120.9829
329.30        122.3754
329.75        123.3603
330.20        123.6833
330.66        123.5207
331.11        123.1886
331.56        123.1089
332.01        123.4264
332.46        123.9775
332.92         124.552
333.37        124.9994
333.82         125.186
334.27        125.2406
334.72         125.262
335.17        125.3764
335.63        125.6314
336.08        126.0501
336.53        126.6312
336.98        127.4308
337.43        128.4257
337.88        129.5514
338.34        130.6936
338.79        131.8005
339.24         132.743
339.69        133.5258
340.14        134.0284
340.59        134.0878
341.05         133.763
341.50        133.1427
341.95          132.54
342.40        132.4241
342.85        132.9044
343.30        133.8439
343.75        135.0221
344.20        136.0514
344.66        136.7826
345.11        137.3014
345.56        137.6218
346.01        137.7815
346.46        137.8404
346.91        137.8036
347.36        137.7497
347.81         137.831
348.26        138.0658
348.72        138.3811
349.17          138.77
349.62        139.2482
350.07        139.7734
350.52         140.369
350.97        140.7405
351.42        140.4254
351.87        139.4015
352.32        137.8369
352.77        136.3143
353.22         135.691
353.67        136.1111
354.13        137.3182
354.58        138.7122
355.03        139.2261
355.48        138.5859
355.93        137.1168
356.38        135.4329
356.83        134.4645
357.28        134.4026
357.73        134.9101
358.18        135.4897
358.63        135.3544
359.08        134.3079
359.53        132.6623
359.98        130.7914
360.43        129.2129
360.88        128.0745
361.33        127.2085
361.78        126.4737
362.23        125.6666
362.68        124.7303
363.13        123.7645
363.58        122.8226
364.03        121.9545
364.48        121.1631
364.93        120.3919
365.38        119.6183
365.83        118.8367
366.28        118.0418
366.73        117.2455
367.18        116.4251
367.63        115.5346
368.08        114.5767
368.53        113.5792
368.98        112.5985
369.43        111.7182
369.88        110.9598
370.33        110.2969
370.78         109.696
371.23        109.1085
371.68        108.5046
372.13         107.876
372.58        107.2184
373.03        106.5253
373.48        105.7865
373.93        105.0011
374.38        104.1351
374.83        103.1474
375.28        102.0604
375.72         100.896
376.17        99.81696
376.62        98.93426
377.07        98.28668
377.52        97.86275
377.97        97.57378
378.42        97.28426
378.87        96.94358
379.32         96.5334
379.77        96.17159
380.22        96.03929
380.67        96.13066
381.11         96.4131
381.56        96.52225
382.01        95.97147
382.46        94.73232
382.91        93.05901
383.36        91.44368
383.81        90.55082
384.26        90.47657
384.71        90.98566
385.15        91.74816
385.60        92.17918
386.05        92.08826
386.50        91.64799
386.95        90.96403
387.40        90.21353
387.85        89.49493
388.29        88.70259
388.74         88.0331
389.19        87.53468
389.64        87.21004
390.09        87.05737
390.54        86.96796
390.98        86.72509
391.43        86.32162
391.88        85.79761
392.33        85.29556
392.78        84.93429
393.23        84.71729
393.67        84.79796
394.12        85.05495
394.57        84.56809
395.02        83.57055
395.47        83.44859
395.91        84.09879
396.36        84.11754
396.81        83.46964
397.26        82.96751
397.71        82.68839
398.15        82.38251
398.60        82.16004
399.05        81.95808
399.50         81.7873
399.95        81.79391
400.39        81.92224
400.84        81.80237
401.29         81.4326
401.74        81.12641
402.18        80.89454
402.63        80.44675
403.08        79.91423
403.53        79.64656
403.97        79.66267
404.42        79.82326
404.87        80.00647
405.32         79.9885
405.76        79.70716
406.21        79.42786
406.66        79.17477
407.11        78.68831
407.55         78.2103
408.00        78.33282
408.45         78.9702
408.90        79.58051
409.34        79.82286
409.79        79.24941
410.24        78.17323
410.68        77.65064
411.13        77.79001
411.58        77.99213
412.03        78.08532
412.47        78.06919
412.92        77.86563
413.37        77.52168
413.81        77.16969
414.26        77.07672
414.71        77.25505
415.15        77.64967
415.60        78.09777
416.05        78.40269
416.49        78.49277
416.94        78.41618
417.39         78.2486
417.83        78.08793
418.28        77.98296
418.73          77.911
419.17        77.86819
419.62         77.8529
420.07        77.84367
420.51        77.81709
420.96        77.82211
421.41        77.79588
421.85        77.69579
422.30         77.8047
422.74        77.94636
423.19        77.54144
423.64        76.75888
424.08        76.66553
424.53         77.2348
424.98        77.52166
425.42        77.47011
425.87        77.73071
426.31        78.20182
426.76        78.10328
427.21        77.55388
427.65        77.38311
428.10        77.56799
428.54        77.58365
428.99           77.48
429.44        77.26134
429.88        77.12723
430.33        77.78728
430.77        78.87196
431.22        79.45147
431.66        79.37666
432.11        78.83295
432.56        78.11575
433.00        77.96025
433.45        78.49475
433.89        79.05466
434.34        79.05462
434.78        79.77629
435.23        78.95715
435.67        77.25383
436.12        78.29828
436.57        78.52109
437.01        78.91283
437.46        79.14411
437.90        79.25941
438.35        78.36311
438.79        78.58195
439.24        78.45967
439.68        78.57229
440.13        79.03923
440.57        79.73609
441.02         79.7448
441.46        79.19279
441.91        79.70442
442.35        80.83497
442.80        80.68842
443.24        79.48101
443.69        79.29469
444.13        80.09182
444.58        80.38517
445.02          80.123
445.47        80.16299
445.91        80.55176
446.36        80.85689
446.80        81.00606
447.24        81.74298
447.69        81.86289
448.13        82.00108
448.58        81.87016
449.02        81.72688
449.47        81.63538
449.91        81.50395
450.36        81.40218
450.80        81.39268
451.25        81.49225
451.69        81.59771
452.13        81.71004
452.58        81.84499
453.02        81.99257
453.47        82.14296
453.91        82.26449
454.36        82.35429
454.80        82.39824
455.24        82.19731
455.69        81.73499
456.13        81.43474
456.58        81.43788
457.02         80.2054
457.46         79.9314
457.91        80.04192
458.35        80.78035
458.79        80.80479
459.24        80.11534
459.68        79.30612
460.13        78.65576
460.57        78.42972
461.01        78.77488
461.46        79.13954
461.90        79.26534
462.34        80.85349
462.79        80.32239
463.23        80.56523
463.68        80.49416
464.12        80.18471
464.56        79.63847
465.01        78.95554
465.45        78.32121
465.89        78.01517
466.34        77.96634
466.78         78.3203
467.22        79.02814
467.67        77.93694
468.11        78.02579
468.55        78.01888
468.99        78.65004
469.44        78.79047
469.88        78.41672
470.32        78.11105
470.77        77.93791
471.21        77.79638
471.65        77.70113
472.10        77.69509
472.54        77.72164
472.98        77.68783
473.42        77.57107
473.87        77.46432
474.31         77.3352
474.75        77.09921
475.20        76.82274
475.64        76.73831
476.08        76.88565
476.52        76.84299
476.97        76.52415
477.41        76.86522
477.85        77.15691
478.29        76.46252
478.74        76.62659
479.18         77.0783
479.62        76.93739
480.06        76.97939
480.50        76.76853
480.95        76.64551
481.39        76.64045
481.83        76.29037
482.27        76.34035
482.72         76.6737
483.16        76.49792
483.60        76.54817
484.04        76.51526
484.48        76.89726
484.93        76.61525
485.37        76.56272
485.81        75.80569
486.25        75.06276
486.69        73.77325
487.14        76.88689
487.58        77.35593
488.02        76.44347
488.46        75.61777
488.90        75.84271
489.34        76.97225
489.79        77.51019
490.23        76.92494
490.67        76.09904
491.11        75.32574
491.55        75.21525
491.99        75.69559
492.43        75.78374
492.88        75.44191
493.32         75.3833
493.76        75.61156
494.20         75.7522
494.64        75.78056
495.08        75.78379
495.52        75.76115
495.96        75.76448
496.41        75.77655
496.85        75.69453
497.29        75.45914
497.73        75.51616
498.17        74.94927
498.61        75.03043
499.05        75.37385
499.49        75.43806
499.93        75.00095
500.37        75.05262
500.82        75.46499
501.26        75.56224
501.70        75.34766
502.14        75.31382
502.58        75.48082
503.02        75.57652
503.46         75.5974
503.90        75.67809
504.34        75.76817
504.78        75.74839
505.22         75.6116
505.66        75.34533
506.10        75.04777
506.54         74.9882
506.98        75.14047
507.42        75.20214
507.86        75.14617
508.30        75.11488
508.74        75.18494
509.18         75.1543
509.62        75.07084
510.06        75.04359
510.50        75.08346
510.94        75.14851
511.38        75.21976
511.82        75.27094
512.26        75.29395
512.70        75.30935
513.14        75.31272
513.58        75.29278
514.02        75.25514
514.46         75.1995
514.90        75.16678
515.34        75.22482
515.78        75.37492
516.22        75.58514
516.66        75.78156
517.10        75.84525
517.54        75.75007
517.98        75.54261
518.42        75.27792
518.86        75.03604
519.30        74.85471
519.74        74.74326
520.18        74.71286
520.62        74.71487
521.06        74.77096
521.50        75.01601
521.93        75.37383
522.37        75.56387
522.81        75.55322
523.25        75.45316
523.69        75.32455
524.13        75.23482
524.57         75.2077
525.01        75.21146
525.45        75.22219
525.89        75.20169
526.32        75.12928
526.76        75.04928
527.20        74.94147
527.64         74.7764
528.08         74.5654
528.52        74.32256
528.96        74.12137
529.40         74.0778
529.83        74.20243
530.27        74.45799
530.71        74.74645
531.15        74.91805
531.59        74.93118
532.03        74.82674
532.46        74.64672
532.90        74.51266
533.34        74.44803
533.78        74.38022
534.22        74.30518
534.66        74.31013
535.09        74.33621
535.53        74.21782
535.97        73.98312
536.41        73.86578
536.85        73.88244
537.28        73.89959
537.72        73.92204
538.16        74.01627
538.60        74.17145
539.04        74.36237
539.47        74.52051
539.91        74.59087
540.35        74.54652
540.79        74.41375
541.22        74.24489
541.66        74.14878
542.10        74.14376
542.54        74.20049
542.97        74.26884
543.41        74.30383
543.85        74.27953
544.29        74.22487
544.72        74.14407
545.16        74.08595
545.60        74.04736
546.04        74.02186
546.47        74.02125
546.91        74.05843
547.35        74.12646
547.79        74.22529
548.22        74.31895
548.66        74.33096
549.10        74.33148
549.53        74.30318
549.97         74.2699
550.41        74.10429
550.84        73.89061
551.28        73.86213
551.72        73.96183
552.15        74.04176
552.59        74.15047
553.03        73.68064
553.46        74.13477
553.90        74.08322
554.34        74.00739
554.77        74.16999
555.21         74.0891
555.65        74.19793
556.08        74.30715
556.52        74.37446
556.96         74.3693
557.39        74.42286
557.83        74.49242
558.27        74.24905
558.70        73.78174
559.14        73.48978
559.57        73.57899
560.01         73.5017
560.45        73.38095
560.88        73.45422
561.32        73.73288
561.75        74.21848
562.19        74.72836
562.63        74.56219
563.06        73.87386
563.50        73.70602
563.93        73.99564
564.37        74.02278
564.80        73.82126
565.24        73.69645
565.68        73.47424
566.11        74.28547
566.55        73.45593
566.98        73.15718
567.42        72.81745
567.85        72.97475
568.29        73.54346
568.72        73.86661
569.16        73.97112
569.60        74.03917
570.03        74.08145
570.47        74.14854
570.90        74.31704
571.34        73.50787
571.77        73.74632
572.21        74.16831
572.64        74.09043
573.08        74.50352
573.51        73.80607
573.95        73.63301
574.38        73.84187
574.82        73.75526
575.25        73.38629
575.69        73.56735
576.12         73.9046
576.56         73.7907
576.99        73.31019
577.42        73.10117
577.86        73.54291
578.29        74.03391
578.73        73.74131
579.16        74.17796
579.60        73.51652
580.03        73.71236
580.47        73.41674
580.90        74.31379
581.33        74.24403
581.77        74.10838
582.20        73.20689
582.64        73.94251
583.07        73.91799
583.51        73.90282
583.94        73.72602
584.37         74.0241
584.81        73.96177
585.24        73.80736
585.68        73.49084
586.11        73.52374
586.54        74.45399
586.98        73.79978
587.41        73.02848
587.85         72.8623
588.28        73.13007
588.71        73.61595
589.15        72.77171
589.58        73.27526
590.01        73.43194
590.45        73.14321
590.88        73.88402
591.31        73.76823
591.75        73.49379
592.18        73.18993
592.61        72.91417
593.05        73.80882
593.48        73.60501
593.91        73.60193
594.35        73.85085
594.78          73.376
595.21        72.83086
595.65        73.02461
596.08        74.12369
596.51        74.29742
596.94        73.85552
597.38        73.52863
597.81        73.34873
598.24        74.25855
598.68        73.47396
599.11        73.15604
599.54        73.99748
599.97        73.60986
600.41        73.38857
600.84        72.75725
601.27        73.29664
601.70        72.85616
602.14        73.23972
602.57        73.03516
603.00        72.96414
603.43        72.13659
603.87        72.99083
604.30        73.47075
604.73         73.8613
605.16        72.82143
605.60        73.03197
606.03        72.46767
606.46        71.99944
606.89        72.54673
607.32         73.2593
607.76        72.98834
608.19        73.18114
608.62        73.47797
609.05        73.16219
609.48        73.15003
609.92          74.033
610.35        73.57017
610.78        72.77129
611.21        72.98118
611.64        72.88042
612.07        73.21921
612.50        73.09082
612.94        73.15356
613.37        73.25098
613.80        73.00893
614.23        72.48026
614.66        72.50024
615.09        73.00111
615.52        73.12682
615.96        72.80976
616.39        72.82558
616.82         73.2539
617.25        72.51904
617.68        72.74663
618.11        72.76073
618.54        73.07729
618.97        73.16393
619.40        73.08551
619.84        72.67205
620.27        72.95268
620.70         72.9785
621.13        72.96228
621.56        72.50913
621.99         71.7563
622.42        71.53576
622.85        71.79887
623.28        71.70797
623.71        71.73966
624.14         71.8054
624.57         72.4184
625.00         72.1233
625.43         72.4724
625.86        72.35225
626.29        72.24541
626.72        72.06837
627.15        72.20561
627.58         72.2236
628.01        72.11016
628.44        72.31915
628.87        72.16626
629.30        71.73022
629.73        71.63979
630.16        71.78925
630.59         71.8126
631.02        72.13615
631.45        72.49761
631.88         72.7479
632.31         72.8242
632.74        72.77708
633.17        72.64867
633.60        72.50279
634.03        72.37918
634.46        72.23882
634.89        72.08151
635.32        71.98508
635.75        71.97131
636.18        71.73132
636.61        71.70576
637.04        71.66692
637.47        71.73941
637.89         71.8777
638.32        71.99931
638.75        72.03311
639.18        71.95557
639.61        71.79097
640.04        71.61762
640.47        71.56151
640.90         71.6468
641.33        71.84409
641.76        72.07139
642.18        72.17552
642.61          72.093
643.04        71.97697
643.47         71.7341
643.90        71.63074
644.33        71.64828
644.76        71.75242
645.18        71.88023
645.61        71.91267
646.04        71.83351
646.47        71.68901
646.90        71.53961
647.33        71.46359
647.75        71.44978
648.18        71.53761
648.61        71.73034
649.04        71.72619
649.47        71.44439
649.89        72.13743
650.32        71.84651
650.75        71.71346
651.18        71.31526
651.61        71.38712
652.03        71.90661
652.46        72.16643
652.89        72.12376
653.32        72.19241
653.74        72.33092
654.17        71.84538
654.60        72.60071
655.03        71.73433
655.46        70.53891
655.88        71.03352
656.31        72.40739
656.74        68.56958
657.16        72.95932
657.59        78.57652
658.02        73.62348
658.45        72.94094
658.87        72.02192
659.30        72.00108
659.73        72.36789
660.15        73.32888
660.58        71.84985
661.01        71.50603
661.44        71.55641
661.86        71.29091
662.29        70.72404
662.72        71.21832
663.14        71.33418
663.57        71.39797
664.00        71.09937
664.42        71.16731
664.85        71.61479
665.27        72.03458
665.70        72.28342
666.13        72.38694
666.55        72.32692
666.98        72.02888
667.41        71.56372
667.83        71.52261
668.26        71.19743
668.69        71.14143
669.11         71.1554
669.54         71.2325
669.96         71.3573
670.39        71.65256
670.82        71.98524
671.24        71.86224
671.67        71.39145
672.09        71.12849
672.52        71.16592
672.94        71.34267
673.37        71.55108
673.80         71.4785
674.22        71.18776
674.65        71.11689
675.07        71.30384
675.50        71.42641
675.92        71.43823
676.35        71.41674
676.77        71.35744
677.20        71.23211
677.62         71.0977
678.05        71.05364
678.47        71.11485
678.90        71.25722
679.32        71.42215
679.75        71.52593
680.17        71.54173
680.60        71.50275
681.02        71.43807
681.45        71.39734
681.87          71.411
682.30        71.41798
682.72        71.43537
683.15        71.52208
683.57        71.65292
684.00        71.65081
684.42        71.54778
684.85        71.55025
685.27        71.65676
685.70         71.7606
686.12        71.81898
686.54        71.83372
686.97        71.79328
687.39        71.70901
687.82        71.59222
688.24        71.49415
688.66        71.42895
689.09        71.35353
689.51        71.29301
689.94        71.33324
690.36        71.44169
690.78        71.41739
691.21        71.29722
691.63        71.29294
692.06        71.41689
692.48        71.56104
692.90        71.65562
693.33        71.64712
693.75         71.5235
694.17        71.27306
694.60        71.01842
695.02        70.99918
695.44        71.22935
695.87        71.55978
696.29        71.86367
696.71        71.92869
697.14        71.73775
697.56        71.41296
697.98        71.11839
698.41        71.02184
698.83        71.15043
699.25        71.51438
699.68        71.91832
700.10        72.07616
700.52        71.89602
700.94        71.48486
701.37        71.03523
701.79         70.8614
702.21        71.02924
702.64        71.41902
703.06        71.87901
703.48        72.14247
703.90        72.13123
704.33        71.93755
704.75        71.64738
705.17        71.38425
705.59        71.20834
706.01        71.08261
706.44         71.0248
706.86        71.09134
707.28        71.26557
707.70        71.52251
708.12        71.81194
708.55        72.05789
708.97        72.22057
709.39        72.25218
709.81        72.17196
710.23        72.09576
710.66        72.04488
711.08        71.98209
711.50        71.89221
711.92        71.79182
712.34        71.68861
712.76        71.59899
713.19         71.5225
713.61         71.4962
714.03        71.52023
714.45        71.57297
714.87        71.65986
715.29        71.86115
715.71        72.17927
716.13        72.29462
716.56        72.64241
716.98        72.82726
717.40        72.93848
717.82        72.97308
718.24          72.901
718.66        72.66944
719.08        72.30374
719.50        71.85409
719.92        71.43585
720.34        71.24403
720.76        71.32027
721.19        71.48667
721.61         71.8798
722.03         72.2197
722.45        72.49303
722.87        72.71498
723.29        72.83614
723.71        72.78238
724.13        72.55802
724.55        72.18991
724.97         71.7916
725.39        71.56379
725.81        71.56079
726.23         71.7122
726.65        71.93053
727.07        72.22565
727.49        72.29007
727.91        72.36576
728.33         72.4123
728.75        72.49983
729.17        72.63688
729.59         72.7859
730.01        72.90132
730.43        72.91654
730.85        72.81722
731.27        72.62951
731.69        72.40141
732.10        72.20152
732.52        72.05253
732.94        71.95841
733.36        71.92104
733.78        71.79736
734.20         71.5689
734.62        71.54279
735.04          71.827
735.46        71.24966
735.88        71.92504
736.30        72.10593
736.72        72.39742
737.13        72.66961
737.55         72.8347
737.97        73.13789
738.39         73.4244
738.81        72.98866
739.23        72.06184
739.65        71.94188
740.06        72.55497
740.48        72.78894
740.90        72.58458
741.32        72.62119
741.74        72.90257
742.16        73.06751
742.57        73.09018
742.99        73.05141
743.41        72.97086
743.83        72.86108
744.25        72.73887
744.67        72.58377
745.08        72.45333
745.50        72.42363
745.92        72.51048
746.34        72.67858
746.75        72.85423
747.17        72.90354
747.59        72.81503
748.01        72.63996
748.42        72.42796
748.84         72.3272
749.26        72.37901
749.68        72.33433
750.09        72.24628
750.51        72.62881
750.93        73.22598
751.35        73.07115
751.76        72.31529
752.18        71.60513
752.60        71.84635
753.01        71.75147
753.43        71.53364
753.85         71.4418
754.27        71.48719
754.68        71.60071
755.10        71.74541
755.52        71.87871
755.93        71.96922
756.35        72.01889
756.77        72.09381
757.18        72.16861
757.60        72.24116
758.02        72.54681
758.43        73.01898
758.85        72.41596
759.26        72.73327
759.68        72.18985
760.10        71.56771
760.51        71.78246
760.93        72.75434
761.34        72.50284
761.76        72.62414
762.18        72.58008
762.59        72.89736
763.01        73.05461
763.42        73.09412
763.84        73.07061
764.26        72.98984
764.67        72.93349
765.09        72.91821
765.50        72.62182
765.92        72.20459
766.33        72.17995
766.75        72.44741
767.16        72.53514
767.58        72.34306
768.00        72.15886
768.41        72.08816
768.83        72.16202
769.24        72.34016
769.66        72.54101
770.07         72.6815
770.49        72.51058
770.90         72.1955
771.32        72.51344
771.73        73.30565
772.15        73.54385
772.56        73.18362
772.97        72.67565
773.39        72.25079
773.80        72.26745
774.22        72.68157
774.63        73.04274
775.05        73.18319
775.46        73.32346
775.88        73.38769
776.29        73.20533
776.70        72.88544
777.12        72.75972
777.53        72.89799
777.95        73.15596
778.36        73.45399
778.77        73.61926
779.19        73.61771
779.60        73.52998
780.02        73.37953
780.43        73.26082
780.84        73.22289
781.26        72.99249
781.67        72.70212
782.09        73.07644
782.50        73.88598
782.91        73.87892
783.33        73.11687
783.74        72.82998
784.15        73.07128
784.57        73.11503
784.98         73.0037
785.39        73.12897
785.81        73.49265
786.22        73.98395
786.63        74.45113
787.04        74.65321
787.46        74.55923
787.87        74.22896
788.28        73.84208
788.70        73.65002
789.11        73.69086
789.52        73.92308
789.93        74.22121
790.35        74.36587
790.76        74.30308
791.17         74.0826
791.58        73.82919
792.00        73.65271
792.41        73.60293
792.82        73.83467
793.23        74.16161
793.65        73.86987
794.06         73.1982
794.47        73.20559
794.88        73.72095
795.29        74.48326
795.71        73.84935
796.12        73.77057
796.53        73.86987
796.94        74.01614
797.35        74.20616
797.76        74.50179
798.18        74.81154
798.59        74.99298
799.00         74.9931
799.41        74.84167
799.82        74.63236
800.23        74.53617
800.64        74.59155
801.06        74.71195
801.47        74.86593
801.88          74.902
802.29        74.77712
802.70        74.54057
803.11        74.24851
803.52        73.98684
803.93        73.81605
804.34        73.73332
804.75        73.73396
805.17        73.88614
805.58        74.23075
805.99        74.42679
806.40        74.51557
806.81        75.26604
807.22        76.32374
807.63        76.07064
808.04        74.71533
808.45        74.01498
808.86        74.12785
809.27        74.12028
809.68        73.90319
810.09        73.78792
810.50        73.76618
810.91         73.7514
811.32        73.83698
811.73        74.16495
812.14        74.73298
812.55        75.49369
812.96        76.20326
813.37        76.40907
813.78        76.01062
814.19        75.18614
814.60        74.24642
815.01        73.61452
815.42        73.39171
815.83        73.46449
816.24         73.7411
816.65        74.02911
817.05        74.24056
817.46         74.4081
817.87        74.53276
818.28         74.5583
818.69        74.48678
819.10        74.29739
819.51        74.09094
819.92         74.0733
820.33        74.28745
820.74        74.67445
821.14        75.08999
821.55        75.28595
821.96        75.20582
822.37        74.92749
822.78        74.56693
823.19        74.32301
823.60        74.26453
824.00        74.35658
824.41        74.49426
824.82        74.61816
825.23        74.68224
825.64        74.71058
826.04        74.71243
826.45        74.65146
826.86        74.54893
827.27        74.42818
827.68        74.29061
828.08        74.17217
828.49        74.04105
828.90        73.90884
829.31        73.87351
829.72        74.09294
830.12        74.60125
830.53        75.28171
830.94        75.92211
831.35        76.10881
831.75        75.76418
832.16        74.99894
832.57        74.10242
832.97        73.51704
833.38        73.37482
833.79        73.53038
834.20        73.87973
834.60        74.24831
835.01        74.56207
835.42        74.92336
835.82        75.25688
836.23        75.33734
836.64        75.16428
837.04        74.74125
837.45        74.33798
837.86        74.47775
838.26        75.27421
838.67        76.53712
839.08        77.80211
839.48          78.186
839.89         77.4705
840.29        75.98455
840.70        74.40527
841.11        73.50985
841.51        73.49667
841.92         74.1032
842.33        75.05445
842.73        75.85604
843.14        76.19797
843.54        76.28992
843.95        76.22352
844.35        76.20369
844.76        76.27335
845.17        76.33253
845.57        76.35292
845.98         76.2833
846.38        76.13665
846.79        75.95163
847.19        75.75218
847.60        75.53167
848.00        75.31777
848.41        75.08936
848.81        74.92036
849.22        74.84544
849.62        74.91215
850.03        75.08791
850.43        75.31781
850.84        75.43649
851.24        75.45223
851.65        75.33456
852.05         75.2483
852.46        75.36166
852.86        75.70286
853.27        76.18771
853.67        76.59179
854.07        76.73876
854.48         76.5695
854.88         76.1862
855.29        75.64149
855.69        75.18362
856.10        74.83588
856.50        74.62033
856.90        74.50665
857.31        74.46032
857.71        74.51435
858.12        74.61904
858.52        74.76358
858.92        74.79911
859.33        74.66843
859.73         74.4382
860.13        74.12778
860.54        73.80776
860.94        73.56181
861.34         73.3728
861.75        73.23688
862.15        73.19122
862.55        73.21209
862.96        73.24355
863.36         73.3476
863.76        73.52914
864.17        73.75336
864.57        74.04093
864.97        74.20231
865.38        73.95841
865.78        73.31283
866.18        72.34986
866.58        71.39577
866.99        71.02795
867.39         71.4159
867.79        72.36159
868.19        73.51154
868.60        74.30296
869.00        74.60486
869.40        74.52953
869.80        74.22705
870.21        73.99886
870.61        74.02386
871.01        74.14793
871.41         74.2184
871.81        74.02818
872.22        73.53909
872.62        72.83788
873.02        72.14179
873.42        71.79491
873.82         71.8838
874.22        72.29728
874.63        72.77198
875.03        72.90808
875.43        72.59947
875.83        71.98566
876.23        71.30274
876.63        70.91126
877.03        70.91213
877.44        71.17044
877.84        71.56091
878.24         71.8745
878.64        71.98204
879.04        71.81447
879.44         71.5388
879.84        71.49397
880.24        71.71153
880.64        72.06397
881.04        72.27822
881.44        71.94479
881.84        71.01853
882.24        69.67912
882.65        68.37111
883.05        67.76246
883.45        68.01334
883.85        68.94125
884.25        70.15749
884.65        70.98625
885.05        71.20872
885.45         70.9981
885.85        70.63262
886.25        70.55245
886.65        70.86322
887.05        71.40344
887.45        71.94802
887.85        72.14494
888.25        71.90844
888.65        71.38578
889.04         70.7883
889.44        70.45539
889.84        70.45617
890.24        70.67408
890.64        70.97076
891.04        71.12307
891.44        71.06496
891.84        70.89551
892.24        70.66269
892.64        70.42138
893.04        70.21843
893.44        70.04626
893.83        69.99289
894.23        70.15468
894.63        70.55379
895.03        71.12406
895.43        71.76337
895.83         72.3042
896.23        72.65987
896.63        72.83764
897.02         72.7896
897.42         72.4866
897.82        71.96243
898.22        71.28146
898.62        70.55704
899.01        69.94407
899.41        69.51572
899.81        69.23077
900.21        69.11442
900.61        69.18768
901.00        69.42338
901.40        69.80559
901.80         70.1889
902.20        70.33212
902.59        70.20737
902.99        69.88035
903.39        69.52086
903.79        69.42024
904.18        69.62633
904.58        70.00954
904.98        70.49691
905.38        70.98982
905.77        71.43609
906.17         71.9109
906.57        72.21855
906.96        72.03518
907.36        71.33327
907.76        70.22993
908.15         69.2193
908.55        69.06985
908.95        69.92902
909.34        71.56509
909.74        73.35424
910.14         74.3277
910.53        74.18282
910.93        73.24566
911.33        71.90862
911.72        70.78065
912.12        70.14761
912.52        69.83293
912.91        69.77158
913.31        69.89626
913.70        70.15155
914.10        70.54723
914.49        71.09575
914.89        71.68761
915.29        72.27378
915.68        72.82987
916.08        73.15564
916.47        73.03816
916.87        72.48868
917.26        71.59048
917.66         70.6898
918.05        70.15194
918.45        70.07559
918.84        70.41261
919.24        70.94238
919.64        71.39585
920.03         71.6759
920.42        71.80724
920.82        71.92912
921.21        72.21515
921.61        72.67428
922.00         73.2598
922.40        73.75398
922.79        73.95563
923.19        73.77866
923.58         73.3323
923.98        72.80653
924.37        72.40037
924.77          72.194
925.16        72.09882
925.55        72.07623
925.95        72.03349
926.34        71.95428
926.74        71.85857
927.13        71.70852
927.52        71.36513
927.92        70.88418
928.31        70.31562
928.70        69.82735
929.10        69.64964
929.49        69.80954
929.89        70.15665
930.28        70.71397
930.67        71.39336
931.07        72.07852
931.46        72.85784
931.85        73.37411
932.24        73.11612
932.64        72.09308
933.03         70.4567
933.42        68.88951
933.82        68.38288
934.21        69.13197
934.60         70.9221
934.99        73.06593
935.39        74.29485
935.78        74.26428
936.17         73.2136
936.56        71.83333
936.96        71.22882
937.35        71.66878
937.74        72.80722
938.13        73.97614
938.53        74.15408
938.92        73.14783
939.31        71.38603
939.70        69.55743
940.09        68.62448
940.49        68.76708
940.88        69.69749
941.27        70.96868
941.66        71.76953
942.05        71.82431
942.44        71.42546
942.84        70.82116
943.23        70.37916
943.62        70.24437
944.01        70.23506
944.40         70.4036
944.79        70.87925
945.18        71.61464
945.57        72.57203
945.97        73.38123
946.36        73.50158
946.75        72.78679
947.14        71.47266
947.53        69.97925
947.92        68.91125
948.31        68.43874
948.70        68.41639
949.09        68.72222
949.48        69.12582
949.87        69.52132
950.26        69.97395
950.65        70.45996
951.04         70.9333
951.43        71.35387
951.82        71.65371
952.21        71.81835
952.60        71.86474
952.99        71.82679
953.38        71.76694
953.77        71.67204
954.16        71.51629
954.55        71.30418
954.94         70.9931
955.33         70.7957
955.72         71.0697
956.11        71.84837
956.50        73.04346
956.89        74.07882
957.28        73.99068
957.66         72.6173
958.05        70.36037
958.44        68.04439
958.83         66.8439
959.22        66.99126
959.61        68.15454
960.00        69.74445
960.39        70.64743
960.78        70.48627
961.16        69.60799
961.55        68.51763
961.94        67.85481
962.33        67.81017
962.72        68.19212
963.11        68.78674
963.49        69.25569
963.88        69.36366
964.27        69.20998
964.66        69.05732
965.04        69.31178
965.43        69.98315
965.82        71.00322
966.21        71.84402
966.60        71.54619
966.98        69.94398
967.37        67.53862
967.76         65.2392
968.15        64.16309
968.53        64.49921
968.92        65.95654
969.31        67.94739
969.69        69.24809
970.08        69.32132
970.47        68.55073
970.86        67.57549
971.24        67.32957
971.63        68.02238
972.02        69.33063
972.40        70.82719
972.79        71.42786
973.17         70.8778
973.56        69.62367
973.95        68.16313
974.33        67.07645
974.72        66.52859
975.11        66.29694
975.49        66.39552
975.88        66.78934
976.26        67.44138
976.65        68.29447
977.04        69.07924
977.42        69.32916
977.81        68.92847
978.19          67.991
978.58        66.90877
978.96        66.31166
979.35        66.34599
979.74        66.85867
980.12        67.66801
980.51        68.18645
980.89        68.35715
981.28        68.35555
981.66        68.30831
982.05        68.36681
982.43        68.60326
982.82        68.87872
983.20        69.42345
983.59        70.54865
983.97        72.32608
984.35        74.60909
984.74        76.64191
985.12        77.40915
985.51        76.61859
985.89        74.62067
986.28        72.32716
986.66        71.03918
987.04        71.13685
987.43        72.23805
987.81        73.78035
988.20        74.49895
988.58        74.01987
988.96        72.72124
989.35        71.12914
989.73        69.94649
990.12        69.34585
990.50        69.09646
990.88        68.98395
991.27        68.70892
991.65        68.18899
992.03        67.58041
992.42        67.06007
992.80        66.77084
993.18        66.78459
993.56        67.06352
993.95        67.40771
994.33        67.69909
994.71        67.78764
995.10        67.78557
995.48        67.87483
995.86        68.46513
996.24        69.61745
996.63        71.02674
997.01         72.5424
997.39        73.46409
997.77         73.4786
998.15        72.89796
998.54         71.7395
998.92        69.89335
999.30        67.63086
999.68         65.1082
1000.06        63.13947
1000.45        62.82002
1000.83        64.43166
1001.21        67.82491
1001.59        72.13769
1001.97        75.13747
1002.35           75.84
1002.73        74.75575
1003.12        73.07095
1003.50        72.34726
1003.88        73.06263
1004.26        74.62909
1004.64        76.54044
1005.02         77.7368
1005.40        77.74876
1005.78        77.15492
1006.16        75.94206
1006.54        73.99916
1006.92        71.60421
1007.30        68.86224
1007.69        66.77016
1008.07        66.60052
1008.45        68.69083
1008.83        72.78822
1009.21        77.74509
1009.59        80.63463
1009.97        80.08138
1010.35        76.92537
1010.73        72.47721
1011.11        68.67204
1011.49        66.21046
1011.86          64.623
1012.24        63.93229
1012.62        64.14647
1013.00        65.15514
1013.38        67.05907
1013.76         69.5479
1014.14         71.5489
1014.52        72.41135
1014.90        72.19842
1015.28        71.15229
1015.66        69.78871
1016.04        68.34195
1016.41        66.72595
1016.79        65.20271
1017.17        64.36894
1017.55        64.36111
1017.93        65.00483
1018.31        65.95628
1018.69        66.67094
1019.06        67.00177
1019.44        67.08213
1019.82        66.72917
1020.20        65.70924
1020.58        64.11814
1020.95        62.03836
1021.33        60.27032
1021.71        59.52995
1022.09        59.92077
1022.46         61.6206
1022.84        63.83062
1023.22        64.59186
1023.60        63.20369
1023.97        59.98065
1024.35        57.29452
1024.73        57.98751
