SpectraSmart Spectrum 2.9.0.0
--------- Device Information -----------
Spectrum Name :  反射率_0
Saving Time :  2024/04/26 22:43:00
Spectro-Module Model Name : SE2030-DUVN
Spectro-Module Serial Number : OS361AC55029948
Wavelength Start : 200
Wavelength End : 1025
Wavelength Unit : Wavelength(nm)
Spectrum Unit : Reflectance(%)
-----------Spectrum Setting ------------
Integration Time : 20ms
Average : 10
Boxcar : 0
Background removal :  enabled
linearity correction :  enabled
SC :  disabled
Intensity correction :  disabled
DWT denoise :  enabled
savitzky-golay :  disabled
FFT :  disabled
Running average :  disabled
Kalman :  disabled
High pass :  disabled
---------------BEGIN--------------------
Wavelength(nm)             Reflectance(%)
200.29               0
200.75        38.84587
201.21        45.41939
201.67        52.08352
202.13        56.75276
202.58        59.43106
203.04         61.5789
203.50        63.08213
203.96        62.82542
204.42        60.27021
204.88        54.99086
205.34        49.11426
205.80        47.02388
206.26        49.33009
206.72        54.21584
207.18        58.88427
207.64        60.83211
208.10        60.02433
208.55        57.44502
209.01        52.60772
209.47        48.48851
209.93        47.97474
210.39        49.39711
210.85         51.8907
211.31        55.97436
211.77        63.23898
212.23        78.97857
212.69        116.8594
213.14        176.4205
213.60        166.1831
214.06        118.1964
214.52        88.17963
214.98        76.38757
215.44         73.2466
215.90        73.31796
216.36        75.35799
216.81        78.13951
217.27        81.53245
217.73        87.87635
218.19         95.5369
218.65        95.31602
219.11         86.3829
219.57        75.40208
220.02        68.99499
220.48        71.06728
220.94        80.93312
221.40        99.42928
221.86        125.8534
222.32        142.4662
222.77        133.9811
223.23        113.0096
223.69        91.21338
224.15        74.47667
224.61        62.54207
225.06        53.20429
225.52        47.30055
225.98        45.60234
226.44        47.35231
226.90        51.78477
227.36         56.8206
227.81        58.81251
228.27        57.20216
228.73        53.28893
229.19        49.20594
229.65        47.40884
230.10        48.06259
230.56        50.27712
231.02        52.74416
231.48        53.46367
231.93        52.06837
232.39        49.73084
232.85        47.50975
233.31        46.74448
233.77        47.59845
234.22        49.58902
234.68        52.06593
235.14        54.17348
235.60        55.63554
236.05        56.76726
236.51        57.77896
236.97        59.07429
237.43        60.75868
237.88        62.61377
238.34        64.46767
238.80        66.51134
239.26        68.97195
239.71         72.5022
240.17        76.86993
240.63        81.57825
241.08        86.24706
241.54        90.07191
242.00        94.50719
242.46        103.2348
242.91        119.8888
243.37        147.4497
243.83        187.3317
244.28        223.7842
244.74        230.4477
245.20        204.2614
245.66        168.3897
246.11         145.174
246.57        136.0166
247.03        135.3386
247.48        135.2416
247.94        124.7953
248.40         107.514
248.85        90.87969
249.31        79.91212
249.77        76.61221
250.22        79.76369
250.68        88.17197
251.14        99.93776
251.59        107.0107
252.05        104.7888
252.51        97.62805
252.96        88.78831
253.42        81.88066
253.88        77.37931
254.33         73.6329
254.79        72.82409
255.25        76.61467
255.70        84.09983
256.16        94.37237
256.62        102.7383
257.07        102.2244
257.53        95.10854
257.99         85.9615
258.44        78.45613
258.90        75.78003
259.35        76.39355
259.81        78.90236
260.27        81.35191
260.72          81.466
261.18        79.50393
261.63        76.27621
262.09        73.25285
262.55        71.27094
263.00        70.21713
263.46        69.83459
263.91        69.35978
264.37        68.27883
264.83        66.53537
265.28        64.40839
265.74         62.5729
266.19        61.47578
266.65        61.21706
267.11        61.44164
267.56        61.74517
268.02        61.51791
268.47        60.59832
268.93        59.24857
269.38        57.65374
269.84        56.16949
270.30        54.89497
270.75        53.69982
271.21        52.66315
271.66        51.83255
272.12        51.18877
272.57        50.70201
273.03        50.17646
273.48         49.2648
273.94        47.99493
274.39        46.46159
274.85        44.99442
275.31        43.88713
275.76        43.15961
276.22        42.73494
276.67        42.41862
277.13        42.05319
277.58        41.51909
278.04         40.9043
278.49        40.18416
278.95        39.46229
279.40        38.70892
279.86        37.98299
280.31        37.21804
280.77        36.45313
281.22        35.66393
281.68        34.94283
282.13        34.30806
282.59        33.88075
283.04        33.62437
283.50        33.51521
283.95         33.4789
284.41        33.42033
284.86        33.29949
285.32        33.16938
285.77        33.01744
286.22        32.90084
286.68        32.83468
287.13        32.76016
287.59        32.70811
288.04         32.6768
288.50        32.68279
288.95        32.68727
289.41        32.67339
289.86        32.53521
290.32        32.31152
290.77        32.03615
291.22        31.79963
291.68        31.71209
292.13        31.80663
292.59        32.09519
293.04         32.5765
293.50        33.26359
293.95        34.13389
294.40         35.1763
294.86          36.369
295.31        37.66321
295.77        39.03735
296.22        40.46814
296.68        41.91954
297.13        43.32968
297.58        44.70058
298.04        46.04615
298.49        47.42475
298.95        48.95374
299.40        50.63662
299.85        52.44337
300.31        54.29233
300.76        56.02874
301.21        57.63519
301.67        59.18162
302.12        60.71746
302.58        62.41058
303.03        64.24064
303.48        66.17404
303.94        68.16631
304.39        70.08315
304.84        71.92308
305.30        73.73663
305.75        75.50161
306.20        77.27668
306.66        79.08774
307.11        80.87458
307.57        82.64046
308.02        84.28126
308.47        85.80834
308.93        87.25188
309.38         88.6447
309.83        90.15794
310.29        91.81683
310.74         93.5584
311.19        95.22856
311.65        96.54798
312.10        97.43266
312.55        97.96375
313.00        98.35076
313.46        98.92602
313.91        99.74965
314.36        100.7625
314.82        101.7936
315.27        102.5789
315.72        103.0316
316.18        103.2687
316.63        103.4198
317.08        103.7332
317.53        104.2746
317.99        104.9541
318.44        105.6697
318.89        106.2276
319.35        106.5673
319.80        106.7529
320.25        106.8734
320.70        107.0723
321.16        107.3874
321.61        107.8133
322.06        108.2596
322.51        108.5911
322.97        108.7603
323.42        108.8126
323.87        108.8841
324.32        109.2174
324.78        109.8162
325.23        110.6808
325.68        111.5076
326.13         111.807
326.59        111.4761
327.04        110.7057
327.49        109.8685
327.94        109.5853
328.39        110.0075
328.85        110.9132
329.30        112.1074
329.75        112.9663
330.20        113.2734
330.66        113.1764
331.11        112.9201
331.56        112.8208
332.01        112.9977
332.46        113.3211
332.92        113.6673
333.37         114.014
333.82        114.2702
334.27        114.5257
334.72         114.786
335.17        115.0235
335.63         115.247
336.08        115.5193
336.53        115.9259
336.98        116.6654
337.43          117.75
337.88        119.0613
338.34        120.4155
338.79        121.6342
339.24        122.5515
339.69        123.2168
340.14        123.5417
340.59        123.4127
341.05        122.9199
341.50         122.148
341.95        121.4362
342.40        121.2942
342.85        121.8322
343.30        122.8998
343.75        124.2433
344.20        125.4134
344.66        126.2355
345.11        126.8043
345.56        127.1302
346.01        127.2544
346.46        127.2425
346.91        127.0951
347.36        126.9242
347.81        126.9322
348.26        127.1551
348.72        127.5279
349.17        128.0001
349.62        128.5095
350.07        129.0022
350.52        129.5143
350.97        129.8467
351.42        129.6895
351.87        129.0298
352.32        127.9694
352.77        126.9249
353.22        126.5143
353.67        126.8396
354.13        127.7195
354.58        128.7135
355.03        129.0295
355.48        128.4706
355.93        127.2806
356.38        125.9377
356.83        125.1637
357.28         125.104
357.73        125.5004
358.18        125.9513
358.63        125.8206
359.08        124.9481
359.53        123.5755
359.98        122.0156
360.43        120.7048
360.88        119.7643
361.33        119.0608
361.78        118.4453
362.23        117.6984
362.68          116.77
363.13        115.7573
363.58        114.7763
364.03        113.9794
364.48        113.3855
364.93         112.915
365.38         112.452
365.83        111.8298
366.28         111.009
366.73        110.0611
367.18        109.0721
367.63        108.1459
368.08        107.3163
368.53        106.6422
368.98        105.9339
369.43        105.2767
369.88        104.6048
370.33        103.9441
370.78        103.2886
371.23        102.6346
371.68        101.9847
372.13        101.3216
372.58        100.6737
373.03        100.0884
373.48        99.56063
373.93        99.07068
374.38        98.53859
374.83        97.84571
375.28        96.97726
375.72        95.95737
376.17        94.95317
376.62        94.09569
377.07        93.43658
377.52        92.97229
377.97        92.60623
378.42        92.19241
378.87        91.69681
379.32        91.11989
379.77        90.64484
380.22        90.54251
380.67        90.81585
381.11        91.40186
381.56        91.84871
382.01        91.50351
382.46        90.28867
382.91        88.50732
383.36        86.73544
383.81         85.7612
384.26        85.71406
384.71        86.32376
385.15        87.22205
385.60        87.76313
386.05        87.73187
386.50        87.31636
386.95        86.64677
387.40        85.93594
387.85        85.28348
388.29        84.56641
388.74        83.94153
389.19        83.41745
389.64        83.00394
390.09        82.72305
390.54        82.50796
390.98        82.25553
391.43        81.97985
391.88         81.5535
392.33        81.10921
392.78        81.04173
393.23        81.19182
393.67        81.09229
394.12        80.78046
394.57        80.11546
395.02        79.36002
395.47        79.43029
395.91        80.17259
396.36        80.33043
396.81        79.83907
397.26         79.4513
397.71        79.21949
398.15        78.88656
398.60        78.56763
399.05        78.18971
399.50        77.82983
399.95         77.7757
400.39        77.95949
400.84        77.88309
401.29        77.51532
401.74        77.19611
402.18        76.93933
402.63        76.48517
403.08        75.96881
403.53        75.69612
403.97        75.69928
404.42        75.89528
404.87        76.12712
405.32        76.12575
405.76        75.82256
406.21        75.38239
406.66        74.94715
407.11        74.62952
407.55         74.5602
408.00        74.90256
408.45         75.4877
408.90        75.72059
409.34         75.4822
409.79        75.05523
410.24        74.60855
410.68        74.28419
411.13        74.15453
411.58         74.1752
412.03        74.23994
412.47        74.18066
412.92        73.93934
413.37        73.60686
413.81        73.30925
414.26        73.29583
414.71         73.5736
415.15        74.09045
415.60        74.64828
416.05        74.98682
416.49        75.02303
416.94        74.81873
417.39         74.5237
417.83        74.35937
418.28        74.39366
418.73        74.55952
419.17        74.77065
419.62        74.89132
420.07        74.87067
420.51        74.73647
420.96        74.58713
421.41        74.46517
421.85        74.36396
422.30        74.45277
422.74        74.57069
423.19        74.34264
423.64        73.84207
424.08        73.70982
424.53        73.97774
424.98        74.17109
425.42        74.27258
425.87        74.69778
426.31        75.27208
426.76         75.1765
427.21        74.53452
427.65        74.28365
428.10        74.47086
428.54        74.55596
428.99        74.58577
429.44        74.64547
429.88        74.81962
430.33        75.45811
430.77        76.23952
431.22        76.65741
431.66        76.59486
432.11        75.91316
432.56          74.984
433.00        75.01118
433.45        76.10738
433.89        76.96701
434.34        76.88948
434.78        77.78593
435.23        77.27441
435.67        74.90707
436.12        74.98093
436.57        75.12082
437.01        76.32999
437.46        76.80446
437.90        76.51283
438.35        75.62547
438.79        75.89513
439.24        75.86673
439.68        76.01005
440.13         76.4257
440.57        77.03249
441.02        77.25792
441.46        77.11503
441.91        77.60459
442.35        78.38702
442.80        78.21211
443.24        77.29925
443.69        77.26811
444.13        78.05626
444.58        78.53711
445.02        78.45793
445.47        78.53532
445.91        78.77636
446.36        78.98415
446.80        79.11539
447.24        79.39704
447.69        79.88047
448.13        79.37578
448.58        79.95568
449.02        79.93327
449.47        79.93174
449.91        79.88672
450.36        79.84151
450.80        79.76382
451.25        79.68404
451.69        79.63277
452.13        79.63158
452.58        79.66743
453.02        79.72358
453.47        79.77826
453.91        79.80573
454.36        79.81852
454.80        79.80285
455.24        79.62945
455.69        79.29281
456.13        79.05148
456.58        79.00699
457.02        78.27093
457.46        77.88138
457.91        78.19862
458.35        78.96057
458.79        79.01297
459.24        78.29216
459.68        77.39366
460.13        76.67793
460.57        76.35025
461.01        76.54488
461.46        77.05888
461.90        77.66092
462.34        78.38284
462.79        78.30157
463.23         78.3121
463.68        78.16071
464.12        78.04105
464.56        77.83645
465.01        77.04206
465.45        75.90556
465.89        75.51601
466.34        75.81047
466.78        76.09232
467.22        76.27171
467.67        76.02374
468.11        76.06569
468.55        76.12752
468.99        76.34172
469.44        76.27201
469.88        75.92509
470.32        75.56462
470.77        75.28127
471.21        75.11571
471.65         75.0814
472.10        75.16486
472.54        75.30751
472.98        75.37247
473.42        75.31248
473.87        75.34336
474.31        75.35051
474.75        74.87301
475.20        74.11687
475.64        73.88831
476.08         74.1955
476.52         74.2454
476.97         73.9861
477.41        74.08368
477.85        74.56629
478.29        74.15412
478.74        74.33128
479.18        74.46285
479.62        74.41231
480.06        74.39141
480.50        74.26585
480.95        74.12812
481.39        73.94608
481.83        74.04796
482.27        73.97819
482.72        74.00995
483.16        74.04332
483.60        74.09765
484.04        74.16955
484.48        74.45134
484.93        74.57944
485.37        74.35776
485.81        73.18145
486.25        72.76531
486.69        72.76147
487.14        74.90562
487.58        74.93918
488.02        74.09795
488.46        73.41968
488.90         73.4793
489.34        75.01831
489.79        75.66396
490.23        75.20591
490.67        74.41788
491.11        73.59595
491.55        73.27644
491.99        73.44053
492.43        73.30138
492.88        72.86896
493.32        72.80106
493.76        73.07211
494.20        73.27705
494.64        73.36847
495.08         73.4084
495.52        73.41125
495.96        73.51154
496.41        73.67007
496.85        73.63761
497.29        73.32897
497.73        73.31602
498.17        72.71436
498.61        72.56228
499.05        72.53982
499.49        72.78933
499.93        72.92252
500.37        73.14275
500.82        73.32413
501.26         73.2304
501.70        72.88528
502.14          73.216
502.58        72.97503
503.02        73.07753
503.46        73.14577
503.90        73.33892
504.34        73.56324
504.78        73.57954
505.22        73.32844
505.66        73.01227
506.10        72.80976
506.54        72.48399
506.98        71.97366
507.42        73.08385
507.86        72.88566
508.30        72.66399
508.74        73.06182
509.18        72.95489
509.62        72.81921
510.06        72.69802
510.50        72.65395
510.94        72.61613
511.38        72.58646
511.82        72.61123
512.26         72.6869
512.70        72.80989
513.14        72.94592
513.58        73.03304
514.02        73.05666
514.46        73.03015
514.90        72.98759
515.34         72.9888
515.78        73.04518
516.22        73.13196
516.66        73.21892
517.10        73.25806
517.54        73.23793
517.98        73.18204
518.42        73.10059
518.86        73.00881
519.30        72.91784
519.74        72.82047
520.18         72.7454
520.62        72.73602
521.06        72.79764
521.50        72.92554
521.93        73.06547
522.37        73.10302
522.81        73.02691
523.25        72.86395
523.69         72.6982
524.13        72.66452
524.57        72.78145
525.01         72.9932
525.45        73.20663
525.89        73.27155
526.32        73.14494
526.76        72.90621
527.20        72.61008
527.64        72.34673
528.08        72.15655
528.52         72.0146
528.96        71.94524
529.40        71.98728
529.83        72.12749
530.27        72.35437
530.71         72.5882
531.15        72.70531
531.59         72.6767
532.03        72.53556
532.46        72.32293
532.90        72.16087
533.34        72.07313
533.78        71.98884
534.22        71.91077
534.66        71.93122
535.09        71.98998
535.53        71.92139
535.97        71.72946
536.41        71.60551
536.85        71.56223
537.28        71.48359
537.72        71.40371
538.16        71.43918
538.60        71.59103
539.04         71.8106
539.47        72.01918
539.91        72.15013
540.35        72.16747
540.79        72.09835
541.22        71.98219
541.66        71.90784
542.10        71.89259
542.54        71.91195
542.97        71.93819
543.41        71.96295
543.85        71.96473
544.29        71.95822
544.72        71.93137
545.16        71.89181
545.60        71.82879
546.04        71.79316
546.47        71.79317
546.91        71.74587
547.35        71.70174
547.79        71.84941
548.22         72.1209
548.66        72.27958
549.10         72.3392
549.53        72.23802
549.97        72.04834
550.41        71.82838
550.84        71.68327
551.28        71.71695
551.72        71.84284
552.15        71.95265
552.59        72.09601
553.03        71.52313
553.46        71.95845
553.90        71.82655
554.34        71.80221
554.77        71.73927
555.21        71.72273
555.65        71.77604
556.08        71.86375
556.52        71.89317
556.96        71.84385
557.39        71.91277
557.83        72.04564
558.27        71.82421
558.70         71.3287
559.14        71.13705
559.57        71.22831
560.01        71.20165
560.45        71.09883
560.88        71.20893
561.32        71.52381
561.75        71.91157
562.19        72.25211
562.63        72.12923
563.06         71.6608
563.50        71.55879
563.93        71.76031
564.37        71.79819
564.80         71.6912
565.24        71.55549
565.68        71.24334
566.11        71.99842
566.55        71.23984
566.98        70.99582
567.42        70.70954
567.85        70.94263
568.29        71.58005
568.72        71.92297
569.16        72.04325
569.60        72.04852
570.03        72.13781
570.47        72.31886
570.90        72.75836
571.34        71.62194
571.77        71.87514
572.21        72.64127
572.64        72.20331
573.08        72.53261
573.51        72.11764
573.95        71.97422
574.38        72.12721
574.82        72.14294
575.25        71.83121
575.69        72.27779
576.12        72.23935
576.56        71.76075
576.99        71.51781
577.42        71.65561
577.86        71.79333
578.29        72.28912
578.73        71.98688
579.16        72.61392
579.60        72.23791
580.03        71.68534
580.47        71.79868
580.90         72.7735
581.33        72.35236
581.77        72.41621
582.20        71.70473
582.64        72.62591
583.07          72.336
583.51        72.36037
583.94        72.08493
584.37        72.41073
584.81        72.43639
585.24        72.34263
585.68        71.98871
586.11         71.9233
586.54        72.11076
586.98        71.62252
587.41        71.26854
587.85        71.37705
588.28        71.57547
588.71        71.69335
589.15         71.5588
589.58        71.42602
590.01        71.64083
590.45        71.22541
590.88        72.32649
591.31        72.35229
591.75        71.48229
592.18        71.10457
592.61        71.11539
593.05        71.99429
593.48        72.22352
593.91        71.88156
594.35        72.18406
594.78        71.53214
595.21        70.98508
595.65        71.23221
596.08        72.38145
596.51        72.60653
596.94        71.78409
597.38        71.39384
597.81         71.3882
598.24        72.28938
598.68        71.55276
599.11         71.3652
599.54        72.47563
599.97        71.79716
600.41        71.93684
600.84         71.3994
601.27        71.94399
601.70        71.40475
602.14        71.70061
602.57        71.42127
603.00        71.30754
603.43        70.65316
603.87        71.46074
604.30        71.99609
604.73        72.11288
605.16        71.29284
605.60        71.29596
606.03        70.89958
606.46        70.68655
606.89        70.79124
607.32        71.48968
607.76        70.81779
608.19        71.46688
608.62        71.39047
609.05        71.44024
609.48        71.36568
609.92        72.12797
610.35        71.62804
610.78        70.94179
611.21        71.00294
611.64        71.03551
612.07         71.4081
612.50        71.37034
612.94        71.47929
613.37        71.56533
613.80        71.35106
614.23        70.84985
614.66        70.74034
615.09        71.01109
615.52        71.21966
615.96        71.24304
616.39        71.31834
616.82        71.46543
617.25        70.90681
617.68        70.69234
618.11        70.85338
618.54        71.51153
618.97        71.60828
619.40        71.14365
619.84        71.03637
620.27        70.87212
620.70        71.09119
621.13        71.41248
621.56        70.90535
621.99        70.18555
622.42         69.8511
622.85        70.20085
623.28        69.99734
623.71         70.1985
624.14        70.58475
624.57        70.40037
625.00        70.28153
625.43        70.50464
625.86        70.59892
626.29        70.80569
626.72        70.10953
627.15        70.59206
627.58        70.54871
628.01        70.48794
628.44        70.39694
628.87        70.41837
629.30        69.88985
629.73        69.96375
630.16        70.75323
630.59        70.39484
631.02        70.62407
631.45        70.78128
631.88        70.91737
632.31        70.98725
632.74        70.97218
633.17        70.88709
633.60        70.74174
634.03        70.55608
634.46        70.33199
634.89        70.11326
635.32         69.9334
635.75        69.80548
636.18         69.7478
636.61         69.8147
637.04        69.59335
637.47        69.93498
637.89        70.11224
638.32        70.28428
638.75        70.34148
639.18        70.26523
639.61        70.07607
640.04        69.84166
640.47        69.69736
640.90        69.67738
641.33        69.74905
641.76        69.86931
642.18        69.97149
642.61        70.00706
643.04         70.0041
643.47        69.98226
643.90        69.97254
644.33        69.97992
644.76        69.98895
645.18        69.97796
645.61        69.89751
646.04         69.7575
646.47        69.58945
646.90        69.43712
647.33        69.37126
647.75        69.38229
648.18        69.46245
648.61        69.63569
649.04        69.78733
649.47        69.78336
649.89        70.47703
650.32         69.9932
650.75        69.94552
651.18        69.87157
651.61        69.90278
652.03        70.05873
652.46        70.28836
652.89        70.49392
653.32        70.50417
653.74        70.35799
654.17        69.95396
654.60        70.03256
655.03        70.09803
655.46        69.23988
655.88        69.28487
656.31        69.96497
656.74        69.06535
657.16         72.8718
657.59        77.26978
658.02        72.14412
658.45        71.35379
658.87        70.17716
659.30        70.34047
659.73        69.60793
660.15        71.62499
660.58           70.18
661.01          70.058
661.44        69.76561
661.86        69.41808
662.29        69.05962
662.72        69.76083
663.14        70.04509
663.57        69.99669
664.00         69.3867
664.42        69.33204
664.85        69.86958
665.27        70.35271
665.70        70.58205
666.13        70.62109
666.55        70.44151
666.98        69.95665
667.41         69.3147
667.83        69.21597
668.26        69.00359
668.69        69.18432
669.11        69.46757
669.54        69.70712
669.96        69.85221
670.39        69.98869
670.82        70.10588
671.24        70.07446
671.67        69.94807
672.09        69.86744
672.52        69.87948
672.94        69.97831
673.37          70.105
673.80        70.03814
674.22        69.82159
674.65        69.71677
675.07        69.75838
675.50        69.76231
675.92        69.70686
676.35         69.6286
676.77        69.52429
677.20        69.39964
677.62        69.29981
678.05        69.24889
678.47        69.24224
678.90         69.4582
679.32         69.5147
679.75        69.60989
680.17        69.61868
680.60        69.61859
681.02        69.61938
681.45        69.54327
681.87         69.4679
682.30        69.57557
682.72        69.84106
683.15         70.0344
683.57        70.10819
684.00        70.04909
684.42        69.93158
684.85        69.93454
685.27        70.06507
685.70        70.26959
686.12        70.44632
686.54        70.41593
686.97        70.21397
687.39        70.05045
687.82        69.93653
688.24        69.94934
688.66         69.9285
689.09        69.67766
689.51        69.90737
689.94        69.96304
690.36        70.04148
690.78        70.03007
691.21        69.96944
691.63        69.98272
692.06         70.0775
692.48         70.2048
692.90        70.29277
693.33        70.26579
693.75        70.10491
694.17        69.79801
694.60        69.49643
695.02        69.43766
695.44        69.63414
695.87        70.06986
696.29        70.53292
696.71         70.3671
697.14        69.72498
697.56        69.34881
697.98        69.70338
698.41        69.78799
698.83        69.71455
699.25         69.9442
699.68        70.35045
700.10        70.53279
700.52        70.40965
700.94        70.12082
701.37        69.79622
701.79        69.65163
702.21        69.73577
702.64         69.9535
703.06        70.22627
703.48        70.41227
703.90        70.46196
704.33        70.42667
704.75        70.32124
705.17        70.15749
705.59        69.96513
706.01        69.74074
706.44        69.55386
706.86        69.55007
707.28        69.73891
707.70        70.05298
708.12        70.40585
708.55        70.70316
708.97         70.8772
709.39        70.82336
709.81        70.60946
710.23         70.5021
710.66        70.54478
711.08        70.62564
711.50        70.68075
711.92        70.67583
712.34        70.59933
712.76        70.48307
713.19        70.35274
713.61        70.28547
714.03        70.28857
714.45        70.34576
714.87          70.458
715.29        70.63011
715.71        70.84493
716.13        71.08059
716.56        71.27778
716.98          71.434
717.40        71.49551
717.82        71.47498
718.24        71.36095
718.66        71.13817
719.08        70.83958
719.50        70.50682
719.92        70.22678
720.34        70.12498
720.76        70.22359
721.19        70.45502
721.61        70.80074
722.03        71.17066
722.45        71.50455
722.87        71.80315
723.29        71.97787
723.71        71.89595
724.13        71.55454
724.55           71.01
724.97        70.41883
725.39        70.03532
725.81        69.93228
726.23        70.04145
726.65        70.27642
727.07         70.5496
727.49        70.69833
727.91        70.84543
728.33        70.96971
728.75        71.09133
729.17        71.21338
729.59        71.30358
730.01        71.34193
730.43        71.36707
730.85        71.38914
731.27        71.30522
731.69        71.10487
732.10        71.29356
732.52        71.03307
732.94        71.01685
733.36        71.00393
733.78        70.88403
734.20        70.64442
734.62        70.59223
735.04        70.83805
735.46        70.22676
735.88        70.89488
736.30        70.95401
736.72        71.49999
737.13        71.79214
737.55        71.88776
737.97        72.05524
738.39        72.20703
738.81        71.82471
739.23        71.08966
739.65        70.98373
740.06        71.43298
740.48        71.58875
740.90        71.39547
741.32        71.37354
741.74         71.5422
742.16        71.65409
742.57        71.69872
742.99        71.72652
743.41        71.73206
743.83        71.69014
744.25        71.60524
744.67        71.46667
745.08        71.34923
745.50        71.35583
745.92        71.50585
746.34        71.75253
746.75        71.99398
747.17        72.05172
747.59        71.90525
748.01        71.62582
748.42        71.29746
748.84         71.1045
749.26        71.10226
749.68        71.07988
750.09        71.05766
750.51        71.41956
750.93        71.96947
751.35        71.93403
751.76        71.36548
752.18         71.0257
752.60        70.95644
753.01        70.73787
753.43        70.39302
753.85        70.21028
754.27        70.22316
754.68        70.37013
755.10        70.60345
755.52        70.82372
755.93        70.98215
756.35        71.13844
756.77        71.22902
757.18        71.33007
757.60        71.42016
758.02        71.61689
758.43        71.82238
758.85        71.55168
759.26        71.28458
759.68        70.96889
760.10        70.83714
760.51        71.06134
760.93        71.59569
761.34         71.6387
761.76        71.93218
762.18        71.96674
762.59        72.17985
763.01         71.7168
763.42        72.62183
763.84        72.61067
764.26        72.27624
764.67        71.98742
765.09        71.84178
765.50        71.50958
765.92        71.11759
766.33        71.07535
766.75        71.27521
767.16        71.35992
767.58        71.22562
768.00        71.08854
768.41        71.05757
768.83        71.13737
769.24        71.30755
769.66         71.6657
770.07        72.04673
770.49        71.81997
770.90        71.20779
771.32        71.44482
771.73         72.4098
772.15        72.73835
772.56        72.37165
772.97        72.04575
773.39        71.89985
773.80        71.83635
774.22        71.87093
774.63        72.08044
775.05        72.31588
775.46        72.41389
775.88        72.30067
776.29        72.04662
776.70         71.7685
777.12        71.68506
777.53        71.85154
777.95        72.15031
778.36         72.4759
778.77        72.61219
779.19        72.52599
779.60        72.31688
780.02         72.0303
780.43        71.82896
780.84        71.80235
781.26        71.55078
781.67        71.21893
782.09        71.87886
782.50        73.24155
782.91        72.99267
783.33        72.38274
783.74        72.04488
784.15        72.38316
784.57        72.53782
784.98        72.49233
785.39        72.37397
785.81        72.29048
786.22        72.71915
786.63        73.47827
787.04        73.77147
787.46        73.54571
787.87        73.19108
788.28        72.88661
788.70        72.73224
789.11        72.76196
789.52         72.9722
789.93        73.24734
790.35        73.38623
790.76        73.34076
791.17        73.15026
791.58        72.93114
792.00        72.78422
792.41        72.75529
792.82        73.00526
793.23        73.36809
793.65        73.10227
794.06        72.42522
794.47        72.49535
794.88        73.18223
795.29        73.63133
795.71        73.29402
796.12        73.23174
796.53        73.35684
796.94        73.42284
797.35        73.43665
797.76        73.54376
798.18        73.67906
798.59        73.70776
799.00        73.59519
799.41        73.40118
799.82        73.21041
800.23        73.15093
800.64         73.2497
801.06        73.43419
801.47        73.66248
801.88        73.76635
802.29        73.69688
802.70        73.49583
803.11        73.23389
803.52         73.0305
803.93        72.94933
804.34        72.97053
804.75        73.06058
805.17        73.25426
805.58        73.58707
805.99        73.70001
806.40        73.65533
806.81        74.35793
807.22        75.42777
807.63        75.01201
808.04        73.40142
808.45        72.69288
808.86        73.06598
809.27        73.40647
809.68        73.52306
810.09        73.61112
810.50        73.60694
810.91        73.46449
811.32        73.31647
811.73        73.37221
812.14         73.6688
812.55        74.13908
812.96        74.62476
813.37        74.82731
813.78        74.66257
814.19        74.25114
814.60         73.7389
815.01          73.312
815.42        73.02741
815.83        72.83627
816.24        72.74429
816.65        72.76215
817.05        72.89007
817.46        73.10464
817.87        73.37183
818.28        73.58217
818.69        73.70507
819.10        73.73491
819.51        73.73432
819.92         73.8304
820.33        74.04189
820.74        74.32339
821.14        74.55935
821.55        74.55877
821.96        74.29559
822.37        73.84673
822.78        73.35905
823.19        73.07612
823.60        73.07581
824.00        73.31593
824.41         73.6547
824.82        73.95767
825.23         74.1471
825.64        74.25351
826.04        74.29191
826.45        74.24678
826.86        74.14738
827.27        74.00494
827.68        73.82557
828.08        73.65922
828.49        73.47677
828.90        73.28938
829.31        73.19106
829.72        73.32597
830.12        73.72823
830.53        74.29781
830.94        74.82197
831.35        74.88491
831.75        74.42009
832.16        73.54363
832.57        72.58706
832.97        72.05748
833.38        72.08769
833.79        72.50156
834.20        73.12247
834.60        73.66398
835.01        74.02344
835.42        74.33134
835.82        74.55666
836.23        74.55898
836.64        74.36481
837.04        73.94612
837.45        73.55796
837.86        73.69917
838.26          74.472
838.67         75.7065
839.08        76.91788
839.48        77.18465
839.89        76.29736
840.29        74.60844
840.70         72.8586
841.11         71.9115
841.51        71.98323
841.92        72.79887
842.33        74.02326
842.73         75.0474
843.14        75.51051
843.54        75.61977
843.95        75.54275
844.35         75.6144
844.76        75.89877
845.17        76.26467
845.57        76.52608
845.98        76.37888
846.38        75.80451
846.79        74.93481
847.19        74.05467
847.60        73.57146
848.00        73.60082
848.41        73.99487
848.81        74.56175
849.22        74.88495
849.62        74.88192
850.03        74.65755
850.43         74.3508
850.84        74.11459
851.24        74.06213
851.65        74.06409
852.05         74.2104
852.46        74.54044
852.86        75.02016
853.27        75.61464
853.67        76.10167
854.07        76.29795
854.48        76.15083
854.88        75.74828
855.29         75.1602
855.69        74.67899
856.10        74.33939
856.50        74.15475
856.90        74.07269
857.31        74.01653
857.71        74.00793
858.12        74.01336
858.52        74.04206
858.92        73.97675
859.33         73.7765
859.73        73.50619
860.13        73.17989
860.54        72.85859
860.94        72.62057
861.34         72.4463
861.75        72.34847
862.15        72.38795
862.55        72.54215
862.96        72.75042
863.36        73.01672
863.76        73.25342
864.17        73.40417
864.57        73.50368
864.97        73.46046
865.38        73.15295
865.78        72.61192
866.18        71.88174
866.58        71.15517
866.99         70.7717
867.39        70.85915
867.79        71.32368
868.19        71.97905
868.60        72.50564
869.00        72.83298
869.40        72.99469
869.80        73.07463
870.21        73.23143
870.61        73.55297
871.01        73.91384
871.41        74.11948
871.81        73.90858
872.22        73.26015
872.62        72.27883
873.02        71.27991
873.42        70.79436
873.82        70.95849
874.22        71.59979
874.63        72.38718
875.03        72.80051
875.43        72.68053
875.83        72.20071
876.23        71.55387
876.63        71.03595
877.03        70.75602
877.44         70.5967
877.84         70.5611
878.24        70.66985
878.64        70.85434
879.04        70.98626
879.44        71.09194
879.84         71.2935
880.24        71.56723
880.64        71.83411
881.04         71.9268
881.44        71.61712
881.84        70.89137
882.24        69.85196
882.65        68.80724
883.05         68.2202
883.45        68.21278
883.85        68.68755
884.25        69.38599
884.65        69.84713
885.05        69.92935
885.45        69.74587
885.85        69.51966
886.25        69.60292
886.65        70.05938
887.05        70.74768
887.45        71.41849
887.85        71.67667
888.25        71.42412
888.65        70.80532
889.04        70.06012
889.44        69.58202
889.84        69.46427
890.24        69.59711
890.64        69.83788
891.04        69.94712
891.44        69.86407
891.84         69.6993
892.24        69.53122
892.64        69.46162
893.04        69.52747
893.44        69.67815
893.83        69.94283
894.23        70.32335
894.63        70.81085
895.03         71.3754
895.43        71.91145
895.83        72.25357
896.23        72.34386
896.63        72.19665
897.02         71.8835
897.42        71.56037
897.82        71.28463
898.22        71.06487
898.62        70.83884
899.01        70.48792
899.41        70.03233
899.81        69.51129
900.21        69.10046
900.61        69.07594
901.00        69.46719
901.40        70.15348
901.80        70.87391
902.20        71.20789
902.59        71.06919
902.99        70.59613
903.39        69.97875
903.79        69.53531
904.18        69.36382
904.58        69.34882
904.98        69.50843
905.38        69.88322
905.77        70.43526
906.17        71.18745
906.57        71.85841
906.96         71.9685
907.36        71.42583
907.76        70.38341
908.15        69.32241
908.55        69.00011
908.95        69.58755
909.34        70.86027
909.74        72.29788
910.14        73.11274
910.53        73.04197
910.93        72.35603
911.33         71.3428
911.72        70.43604
912.12        69.86665
912.52        69.50918
912.91        69.31908
913.31        69.26392
913.70        69.31036
914.10         69.4508
914.49        69.75082
914.89        70.19845
915.29        70.77452
915.68        71.45655
916.08         71.9707
916.47        71.96049
916.87        71.40778
917.26        70.43653
917.66        69.49607
918.05        69.11184
918.45         69.4047
918.84        70.26448
919.24        71.34866
919.64         72.1731
920.03        72.56005
920.42        72.57962
920.82         72.4703
921.21        72.56421
921.61        72.92001
922.00        73.46112
922.40        73.89802
922.79        73.90942
923.19        73.40222
923.58        72.55476
923.98        71.68884
924.37        71.17713
924.77        71.12309
925.16        71.37931
925.55        71.76771
925.95        71.95649
926.34          71.856
926.74        71.54823
927.13        71.11652
927.52        70.62276
927.92        70.17216
928.31        69.74542
928.70        69.42371
929.10        69.30524
929.49         69.3903
929.89        69.59246
930.28        69.98846
930.67        70.57721
931.07        71.27471
931.46        72.12381
931.85         72.7778
932.24        72.74209
932.64        72.00421
933.03        70.70973
933.42        69.42919
933.82        68.98931
934.21         69.5584
934.60        70.94598
934.99        72.62779
935.39        73.63888
935.78        73.71628
936.17        73.02602
936.56        72.02876
936.96        71.45445
937.35        71.49408
937.74        71.92704
938.13        72.34387
938.53         72.1363
938.92        71.21484
939.31        69.87486
939.70         68.5752
940.09        67.94202
940.49         68.0752
940.88        68.78395
941.27        69.79221
941.66         70.5871
942.05        70.96866
942.44        71.11173
942.84        71.07865
943.23        70.95752
943.62         70.8307
944.01        70.62458
944.40        70.52473
944.79        70.87564
945.18        71.69702
945.57        72.86479
945.97        73.97865
946.36        74.43969
946.75        74.05003
947.14        73.07303
947.53         71.8189
947.92        70.72945
948.31        69.96732
948.70        69.41447
949.09        69.15534
949.48         69.3316
949.87        69.91827
950.26        70.87312
950.65        71.89792
951.04        72.47213
951.43         72.4463
951.82        71.93227
952.21        71.16033
952.60        70.54337
952.99        70.24255
953.38        70.17986
953.77        70.28306
954.16        70.43877
954.55         70.5848
954.94        70.71816
955.33        70.90974
955.72        71.25299
956.11         71.7359
956.50        72.33689
956.89        72.71742
957.28        72.34606
957.66        71.17231
958.05        69.44849
958.44        67.81757
958.83        67.19347
959.22        67.72903
959.61        69.17824
960.00        70.92374
960.39        71.79732
960.78        71.43361
961.16        70.18074
961.55        68.69389
961.94        67.83716
962.33        67.84146
962.72        68.48678
963.11        69.41659
963.49        69.99101
963.88        69.90251
964.27        69.37331
964.66          68.856
965.04        69.03571
965.43        69.98627
965.82        71.53242
966.21         73.0592
966.60        73.40531
966.98        72.25857
967.37        70.15272
967.76        67.94135
968.15        66.67477
968.53        66.56454
968.92        67.32375
969.31        68.51837
969.69        69.28561
970.08        69.21587
970.47        68.59174
970.86        67.87594
971.24        67.71716
971.63        68.25058
972.02        69.26509
972.40        70.33584
972.79         70.4212
973.17        69.36183
973.56        67.59416
973.95        65.81845
974.33        64.89841
974.72        65.00732
975.11         65.8634
975.49        67.15804
975.88        68.18723
976.26        68.70815
976.65        68.87225
977.04        68.79154
977.42          68.619
977.81        68.41037
978.19        68.06507
978.58        67.82054
978.96         68.0642
979.35        68.80865
979.74         69.9721
980.12        71.22724
980.51        71.71014
980.89        71.34533
981.28        70.40932
981.66        69.30521
982.05         68.5831
982.43        68.41283
982.82        68.58398
983.20        69.23376
983.59        70.47032
983.97        72.28604
984.35        74.59844
984.74        76.68702
985.12        77.58835
985.51        77.00868
985.89         75.2323
986.28         73.1238
986.66        71.94231
987.04        72.06631
987.43        73.14733
987.81        74.63411
988.20        75.28545
988.58        74.73826
988.96        73.33492
989.35        71.68581
989.73         70.6073
990.12        70.28915
990.50         70.5278
990.88        70.86964
991.27        70.58466
991.65        69.53196
992.03          67.997
992.42        66.65297
992.80        66.35915
993.18        67.29285
993.56        69.23697
993.95        71.40038
994.33         72.4741
994.71        71.92976
995.10        70.28615
995.48        68.44548
995.86        67.84052
996.24        68.79404
996.63        70.73769
997.01        73.22964
997.39        74.93363
997.77        75.24188
998.15        74.69125
998.54        73.42453
998.92        71.49637
999.30        69.24877
999.68        66.72137
1000.06        64.76116
1000.45        64.57496
1000.83        66.42979
1001.21         70.1335
1001.59        74.71595
1001.97        77.67017
1002.35        77.95871
1002.73        76.30408
1003.12        73.91872
1003.50        72.33609
1003.88        72.06377
1004.26        72.44718
1004.64        73.48498
1005.02        75.11475
1005.40        77.03905
1005.78        79.46176
1006.16        81.22339
1006.54        80.44849
1006.92        77.11465
1007.30        71.93877
1007.69        66.97101
1008.07        65.01871
1008.45        66.84813
1008.83        71.85818
1009.21        78.52968
1009.59        82.94926
1009.97        83.16141
1010.35        80.24868
1010.73        75.69436
1011.11        71.70237
1011.49        69.06763
1011.86        67.17244
1012.24        66.00694
1012.62        65.54105
1013.00        65.65547
1013.38        66.50589
1013.76        67.89254
1014.14         69.0605
1014.52        69.59073
1014.90        69.50598
1015.28        68.99765
1015.66        68.48347
1016.04        68.10612
1016.41        67.77243
1016.79        67.48192
1017.17        67.32959
1017.55        67.34036
1017.93        67.52196
1018.31        67.87708
1018.69         68.3867
1019.06        69.05933
1019.44         69.8988
1019.82        70.70766
1020.20        71.01671
1020.58        70.63207
1020.95        69.59798
1021.33        68.47636
1021.71        67.77022
1022.09         67.5442
1022.46        67.81183
1022.84        68.06851
1023.22        67.35222
1023.60        65.50954
1023.97        62.91425
1024.35        60.83317
1024.73        60.42899
