SpectraSmart Spectrum 2.9.0.0
--------- Device Information -----------
Spectrum Name :  反射率_0
Saving Time :  2024/04/26 22:31:25
Spectro-Module Model Name : SE2030-DUVN
Spectro-Module Serial Number : OS361AC55029948
Wavelength Start : 200
Wavelength End : 1025
Wavelength Unit : Wavelength(nm)
Spectrum Unit : Reflectance(%)
-----------Spectrum Setting ------------
Integration Time : 20ms
Average : 10
Boxcar : 0
Background removal :  enabled
linearity correction :  enabled
SC :  disabled
Intensity correction :  disabled
DWT denoise :  enabled
savitzky-golay :  disabled
FFT :  disabled
Running average :  disabled
Kalman :  disabled
High pass :  disabled
---------------BEGIN--------------------
Wavelength(nm)             Reflectance(%)
200.29               0
200.75        52.18137
201.21        48.40568
201.67        46.06005
202.13        44.94083
202.58        44.65697
203.04        45.79693
203.50        48.16027
203.96        50.23841
204.42        51.07147
204.88        50.51859
205.34        49.48486
205.80        50.26371
206.26        52.85138
206.72         55.5367
207.18         57.4449
207.64        58.02692
208.10          57.336
208.55        56.27676
209.01        53.21633
209.47        47.02242
209.93        40.74944
210.39        36.55835
210.85        35.44216
211.31        37.97451
211.77        45.18757
212.23        62.35422
212.69        105.8816
213.14        179.8405
213.60        178.3234
214.06        127.5286
214.52        91.99024
214.98        74.51044
215.44        65.04383
215.90        57.23943
216.36        51.69713
216.81        50.61903
217.27        54.95773
217.73        66.94054
218.19        83.44238
218.65        86.16206
219.11        70.82912
219.57        50.83328
220.02         37.6423
220.48        35.84327
220.94        43.90284
221.40        62.09345
221.86        89.76671
222.32        108.7519
222.77        102.8105
223.23        83.75663
223.69        64.40041
224.15        51.98355
224.61        45.46112
225.06         41.4627
225.52        39.33909
225.98        38.45875
226.44        38.38893
226.90        39.41611
227.36        40.55157
227.81        40.06549
228.27        37.94654
228.73        34.68667
229.19        31.96387
229.65        31.75628
230.10        34.02742
230.56        38.07771
231.02        42.00365
231.48        42.77663
231.93        40.04037
232.39        35.37735
232.85        30.89674
233.31        29.27913
233.77        30.76847
234.22        34.40521
234.68        38.67939
235.14        41.32801
235.60        41.65815
236.05        40.30691
236.51        38.10683
236.97        36.81423
237.43        37.20454
237.88        38.77597
238.34        40.91228
238.80        42.86173
239.26        44.42958
239.71        46.32529
240.17        48.57864
240.63        51.31185
241.08        54.62762
241.54         57.8067
242.00        61.66832
242.46        68.61575
242.91        81.01018
243.37        100.8418
243.83        128.9123
244.28        153.5299
244.74        156.2452
245.20        136.2379
245.66        109.2036
246.11        89.40359
246.57        78.03706
247.03        71.22302
247.48        67.51363
247.94        65.33297
248.40        64.34753
248.85        64.69154
249.31        65.88081
249.77        67.07953
250.22        68.12254
250.68        68.73961
251.14        69.07335
251.59        69.63915
252.05        70.46973
252.51        71.48235
252.96        70.60458
253.42         66.3859
253.88        59.68125
254.33        51.82528
254.79        45.99667
255.25        44.39338
255.70        46.50654
256.16          51.144
256.62         55.5684
257.07        55.80165
257.53        52.70573
257.99        48.54527
258.44        45.14787
258.90        44.26272
259.35        45.01607
259.81        46.66657
260.27        48.03574
260.72        47.76298
261.18        46.07639
261.63         43.5546
262.09         41.1901
262.55        39.59685
263.00        38.71115
263.46        38.31263
263.91        37.91764
264.37        37.13939
264.83        35.94193
265.28        34.51212
265.74        33.25934
266.19        32.45671
266.65        32.16348
267.11        32.17103
267.56        32.24033
268.02        32.00113
268.47        31.36946
268.93        30.49433
269.38        29.52063
269.84        28.70479
270.30        28.10592
270.75         27.6342
271.21        27.25965
271.66        26.89965
272.12        26.52411
272.57        26.14859
273.03        25.74897
273.48         25.2795
273.94        24.76801
274.39        24.19278
274.85        23.63871
275.31        23.12707
275.76         22.6534
276.22        22.24338
276.67        21.85199
277.13         21.4631
277.58        21.04854
278.04        20.63844
278.49        20.23856
278.95        19.94038
279.40        19.71396
279.86         19.5725
280.31        19.42039
280.77        19.19297
281.22        18.85679
281.68         18.4725
282.13        18.09443
282.59        17.84841
283.04        17.73051
283.50        17.71274
283.95         17.7157
284.41        17.61495
284.86        17.39595
285.32        17.13289
285.77        16.89657
286.22        16.82326
286.68        16.93236
287.13        17.14134
287.59        17.40826
288.04        17.64008
288.50        17.81171
288.95        17.92594
289.41        17.97253
289.86        17.89207
290.32        17.72161
290.77        17.48647
291.22        17.28174
291.68         17.2387
292.13        17.39028
292.59        17.72811
293.04        18.21325
293.50        18.78675
293.95        19.41918
294.40        20.12894
294.86        20.92609
295.31        21.82147
295.77        22.81262
296.22        23.86741
296.68        24.96884
297.13        26.08809
297.58        27.22859
298.04        28.41457
298.49        29.64599
298.95        30.93353
299.40        32.27554
299.85        33.66651
300.31        35.13939
300.76        36.73492
301.21        38.44756
301.67        40.26206
302.12        42.07426
302.58        43.79322
303.03        45.36568
303.48        46.84752
303.94        48.32073
304.39        49.86369
304.84        51.52261
305.30        53.28122
305.75        55.07478
306.20        56.87417
306.66        58.66691
307.11          60.428
307.57         62.1582
308.02        63.77567
308.47        65.28445
308.93          66.696
309.38        68.03277
309.83        69.43219
310.29        70.92001
310.74        72.45508
311.19        73.92463
311.65         75.1166
312.10        75.96967
312.55        76.54868
313.00        77.02439
313.46        77.66836
313.91        78.52882
314.36        79.55394
314.82        80.59621
315.27        81.42349
315.72        81.95547
316.18        82.28542
316.63        82.51543
317.08        82.84746
317.53         83.3363
317.99        83.90701
318.44        84.48721
318.89        84.93559
319.35        85.21009
319.80        85.36773
320.25        85.46915
320.70        85.60702
321.16        85.81467
321.61        86.10152
322.06        86.42734
322.51        86.73621
322.97        86.99541
323.42        87.21259
323.87        87.46457
324.32        87.89488
324.78        88.48849
325.23        89.26601
325.68        89.96415
326.13        90.16004
326.59        89.77918
327.04        88.98362
327.49        88.16084
327.94          87.947
328.39        88.48917
328.85         89.5808
329.30        90.94783
329.75         91.8658
330.20        92.09308
330.66        91.80775
331.11        91.33471
331.56        91.14208
332.01         91.3847
332.46        91.89198
332.92        92.47311
333.37        92.95384
333.82        93.20356
334.27        93.34531
334.72        93.42902
335.17        93.50384
335.63        93.60814
336.08        93.77073
336.53        94.05642
336.98        94.62279
337.43        95.48003
337.88        96.54703
338.34          97.682
338.79         98.7401
339.24        99.58807
339.69        100.2634
340.14        100.6817
340.59        100.7359
341.05        100.4849
341.50        99.97797
341.95         99.5053
342.40        99.50829
342.85        100.0799
343.30        101.1031
343.75        102.3079
344.20        103.2238
344.66        103.7064
345.11        103.8745
345.56         103.882
346.01        103.9878
346.46        104.2805
346.91        104.6803
347.36        105.1086
347.81        105.4646
348.26        105.7132
348.72        105.8831
349.17         106.051
349.62        106.3601
350.07        106.8209
350.52        107.3937
350.97        107.8555
351.42         107.859
351.87        107.3622
352.32        106.4921
352.77         105.603
353.22        105.2102
353.67         105.412
354.13        106.0573
354.58        106.8128
355.03        107.0826
355.48        106.7122
355.93          105.88
356.38        104.9465
356.83        104.4541
357.28         104.507
357.73        104.9094
358.18        105.3264
358.63        105.2274
359.08        104.4915
359.53        103.3252
359.98        102.0248
360.43        101.0113
360.88        100.3903
361.33        100.0244
361.78        99.75425
362.23        99.33606
362.68        98.70434
363.13        97.95721
363.58         97.1804
364.03        96.48794
364.48        95.90426
364.93        95.36629
365.38        94.83625
365.83         94.2728
366.28        93.66555
366.73        93.04785
367.18        92.41382
367.63        91.74244
368.08        91.04056
368.53        90.31579
368.98        89.62485
369.43        89.05651
369.88        88.62451
370.33         88.3028
370.78        88.01449
371.23        87.63458
371.68        87.12844
372.13        86.52334
372.58        85.89332
373.03        85.35812
373.48        84.94062
373.93        84.59799
374.38        84.24666
374.83        83.76159
375.28        83.11835
375.72        82.34671
376.17        81.58236
376.62        80.92481
377.07         80.4138
377.52         80.0393
377.97        79.72987
378.42        79.38182
378.87        78.97047
379.32         78.4972
379.77        78.09361
380.22        77.95074
380.67        78.07084
381.11        78.41687
381.56        78.65848
382.01        78.33333
382.46        77.39348
382.91        76.05877
383.36         74.7522
383.81        74.05305
384.26        74.04897
384.71        74.53271
385.15         75.2235
385.60        75.62786
386.05        75.58401
386.50        75.24316
386.95        74.69544
387.40         74.0878
387.85         73.5076
388.29        72.87079
388.74        72.34435
389.19        71.98351
389.64        71.78563
390.09        71.72806
390.54        71.72782
390.98        71.61701
391.43        71.39572
391.88        71.10203
392.33        70.78863
392.78        70.53372
393.23        70.35587
393.67        70.19048
394.12        70.08975
394.57        69.99923
395.02        69.90103
395.47        69.78275
395.91        69.65138
396.36        69.48991
396.81        69.32839
397.26        69.18323
397.71        69.01756
398.15        68.79605
398.60        68.60487
399.05        68.25301
399.50        67.86809
399.95        67.98922
400.39         68.4878
400.84        68.42907
401.29         67.8251
401.74        67.55254
402.18        67.59831
402.63        67.20887
403.08        66.53303
403.53        66.24927
403.97        66.40361
404.42        66.72547
404.87        67.03701
405.32        67.12384
405.76        66.91792
406.21        66.52608
406.66        66.09506
407.11        65.87791
407.55        65.95551
408.00        66.16513
408.45        66.42362
408.90        66.68199
409.34         66.8037
409.79        66.56979
410.24        66.10524
410.68        65.81137
411.13        65.74721
411.58        65.70888
412.03        65.64027
412.47        65.54314
412.92        65.38626
413.37        65.20874
413.81        65.05717
414.26        65.05508
414.71        65.19603
415.15        65.47292
415.60        65.78424
416.05        66.02517
416.49        66.15967
416.94        66.20001
417.39        66.21166
417.83        66.29018
418.28        66.45972
418.73        66.67941
419.17        66.89523
419.62        67.02662
420.07        67.04263
420.51        66.95399
420.96        66.82358
421.41        66.67334
421.85        66.50075
422.30        66.42822
422.74        66.37112
423.19        66.17358
423.64        65.87251
424.08         65.8019
424.53        65.96999
424.98        66.15841
425.42        66.36126
425.87         66.7204
426.31        67.13293
426.76        67.26803
427.21        67.14333
427.65        66.97847
428.10        66.82985
428.54        66.87836
428.99        66.87228
429.44        66.93046
429.88        67.02258
430.33        67.43363
430.77        67.96934
431.22        68.43536
431.66        68.67671
432.11        68.33025
432.56         67.6489
433.00        67.55373
433.45        68.19817
433.89        68.97916
434.34        69.32233
434.78        69.89487
435.23        69.54597
435.67        67.66148
436.12         68.7734
436.57        68.83871
437.01        69.08458
437.46        69.23483
437.90        69.34544
438.35        68.65268
438.79        68.94811
439.24        68.93415
439.68        69.09568
440.13        69.53032
440.57        70.14786
441.02        70.24075
441.46        69.89726
441.91        70.37569
442.35        71.32286
442.80        71.27893
443.24        70.43258
443.69        70.43771
444.13         71.2481
444.58        71.69727
445.02        71.71332
445.47        71.82102
445.91        72.04648
446.36        72.29832
446.80        72.55929
447.24        72.78853
447.69        72.97726
448.13        73.13784
448.58        73.28092
449.02        73.37918
449.47        73.42946
449.91          73.395
450.36        73.30701
450.80        73.16486
451.25        73.05741
451.69        73.05906
452.13         73.1982
452.58        73.43565
453.02        73.69967
453.47        73.88168
453.91        73.93758
454.36        73.90479
454.80        73.78876
455.24        73.56205
455.69        73.24991
456.13        72.94916
456.58        72.75172
457.02        72.35332
457.46         71.9416
457.91        72.30119
458.35        72.94574
458.79        72.94817
459.24        72.25206
459.68        71.35065
460.13        70.59078
460.57        70.29173
461.01        70.59419
461.46        71.08207
461.90        71.51246
462.34        72.71935
462.79        72.52249
463.23        72.69379
463.68        72.56498
464.12        72.18925
464.56        71.60163
465.01        70.81648
465.45        70.05459
465.89        69.87006
466.34        70.13901
466.78        70.50578
467.22        70.91246
467.67        70.23956
468.11        70.42062
468.55         70.4577
468.99        70.83195
469.44        70.90002
469.88         70.6615
470.32        70.47706
470.77        70.39034
471.21        70.33224
471.65         70.3038
472.10        70.33877
472.54        70.38705
472.98        70.35222
473.42        70.21484
473.87        70.09766
474.31        69.96569
474.75         69.6677
475.20        69.30891
475.64         69.2369
476.08         69.4601
476.52        69.50625
476.97        69.31981
477.41        69.51579
477.85        69.81453
478.29        69.32033
478.74        69.59276
479.18         69.5396
479.62        69.63019
480.06        69.60139
480.50        69.45546
480.95        69.42588
481.39        69.50365
481.83        69.29979
482.27        69.30414
482.72        69.52802
483.16        69.23891
483.60         69.2632
484.04        69.34203
484.48        69.69064
484.93        69.84667
485.37        69.50912
485.81        68.60263
486.25        67.68042
486.69        65.81297
487.14        68.83594
487.58        70.17724
488.02        69.73745
488.46        68.56673
488.90         69.2345
489.34        69.92086
489.79        70.70501
490.23        70.24457
490.67        69.76125
491.11        69.29879
491.55        69.03349
491.99        69.01353
492.43        68.89129
492.88        68.68697
493.32        68.70995
493.76        68.92811
494.20        69.09716
494.64        69.17659
495.08        69.23642
495.52        69.26134
495.96        69.22787
496.41        69.15563
496.85        69.07642
497.29        68.92117
497.73        69.04475
498.17        68.58704
498.61        68.55368
499.05        68.66899
499.49        68.87125
499.93        68.85921
500.37        68.94512
500.82        69.04176
501.26        69.00038
501.70        68.85234
502.14         69.0109
502.58        69.11964
503.02        69.26939
503.46        69.34196
503.90        69.47208
504.34        69.61099
504.78        69.61347
505.22        69.46397
505.66        69.23022
506.10        69.00755
506.54        68.82651
506.98        68.69533
507.42        68.90826
507.86         69.1124
508.30        68.87894
508.74        69.15273
509.18        69.10863
509.62        69.07784
510.06        69.05995
510.50        69.07413
510.94        69.08932
511.38        69.10508
511.82        69.15453
512.26        69.23524
512.70        69.34278
513.14        69.44498
513.58        69.48687
514.02        69.45888
514.46        69.37647
514.90        69.28176
515.34        69.24493
515.78        69.27968
516.22        69.35966
516.66        69.44637
517.10        69.47738
517.54        69.43707
517.98        69.35262
518.42        69.24073
518.86        69.12699
519.30        69.02708
519.74        68.93388
520.18        68.87212
520.62        68.87843
521.06        68.95827
521.50        69.10937
521.93        69.28711
522.37        69.39377
522.81        69.41451
523.25        69.36137
523.69        69.29976
524.13        69.33818
524.57        69.48853
525.01        69.70646
525.45         69.8984
525.89        69.91502
526.32          69.722
526.76        69.39952
527.20        69.03374
527.64         68.7627
528.08        68.63035
528.52         68.5954
528.96        68.63651
529.40        68.71807
529.83        68.81441
530.27        68.94347
530.71        69.06342
531.15        69.11282
531.59         69.0814
532.03        68.97614
532.46        68.83499
532.90        68.77366
533.34         68.8012
533.78        68.84682
534.22        68.86977
534.66        68.89061
535.09        68.84622
535.53        68.60451
535.97        68.22747
536.41        67.98924
536.85        67.92457
537.28        67.89613
537.72        67.90711
538.16        68.01242
538.60        68.19631
539.04         68.4416
539.47        68.66254
539.91        68.77249
540.35        68.73817
540.79        68.58459
541.22        68.39464
541.66        68.32444
542.10        68.40269
542.54         68.5936
542.97        68.78956
543.41        68.85265
543.85        68.73803
544.29        68.49715
544.72        68.23552
545.16        68.11718
545.60        68.15917
546.04        68.42823
546.47        68.78946
546.91        68.76657
547.35        68.44153
547.79        68.43434
548.22        68.72812
548.66        68.87184
549.10        68.88602
549.53        68.83231
549.97         68.7525
550.41        68.60381
550.84        68.46587
551.28        68.46607
551.72        68.54467
552.15        68.60557
552.59        68.67219
553.03        68.20737
553.46        68.68758
553.90        68.53262
554.34        68.07788
554.77        68.68166
555.21        68.58955
555.65        68.06535
556.08        68.61773
556.52        68.66972
556.96        68.79981
557.39         68.6879
557.83        68.91266
558.27        68.72373
558.70        68.34721
559.14        68.21262
559.57        68.30112
560.01        68.29617
560.45         68.1963
560.88        68.25562
561.32        68.45898
561.75        68.54488
562.19        68.52707
562.63        68.47598
563.06        68.42627
563.50        68.49109
563.93        68.58424
564.37        68.61862
564.80        68.61456
565.24        68.50471
565.68        68.16077
566.11        68.83282
566.55        68.05801
566.98        67.82787
567.42        67.56606
567.85        67.63734
568.29        67.99247
568.72        68.19219
569.16        68.26388
569.60        68.37849
570.03        68.37301
570.47        68.45663
570.90        68.60109
571.34        68.03647
571.77        68.10782
572.21        68.65453
572.64         68.1748
573.08        69.05244
573.51        68.24288
573.95        67.78995
574.38        67.63456
574.82        67.97622
575.25        67.70531
575.69        67.94294
576.12        68.31831
576.56        67.83693
576.99        67.35706
577.42        67.44738
577.86        67.92581
578.29        67.87994
578.73        67.71376
579.16        68.15031
579.60        67.88248
580.03        68.07697
580.47        67.83108
580.90        68.58102
581.33        68.19572
581.77        68.47118
582.20        66.96239
582.64        67.54197
583.07        67.97861
583.51         68.2456
583.94          68.226
584.37        68.39177
584.81        68.44397
585.24        68.18405
585.68        67.67647
586.11        67.77113
586.54        68.06157
586.98        67.56177
587.41         67.3054
587.85        67.43079
588.28        67.20315
588.71        67.46881
589.15        67.01395
589.58         67.6548
590.01        67.84047
590.45        67.42607
590.88        68.52715
591.31        68.45329
591.75        68.02698
592.18        67.61372
592.61        67.20446
593.05        68.25018
593.48        67.68652
593.91        67.59865
594.35        67.80811
594.78        67.57631
595.21        67.22914
595.65        67.30085
596.08        67.95997
596.51        68.28143
596.94        68.03464
597.38        67.93963
597.81        67.86858
598.24        68.63242
598.68        68.28625
599.11        67.88648
599.54        68.45856
599.97        67.79588
600.41         68.0572
600.84        67.25043
601.27         67.8945
601.70        67.55705
602.14        67.97121
602.57        67.83057
603.00        67.62827
603.43        67.29887
603.87         67.7061
604.30        67.95777
604.73        68.28855
605.16        67.59267
605.60        67.69755
606.03        67.18883
606.46        66.65016
606.89        67.22091
607.32        68.13304
607.76         67.3159
608.19        67.89213
608.62         67.7523
609.05         67.4959
609.48         67.4788
609.92        68.39308
610.35        68.43069
610.78        67.48527
611.21        67.77393
611.64        67.79835
612.07        68.12509
612.50        67.92475
612.94        67.92051
613.37        67.99876
613.80        67.72227
614.23        67.24865
614.66        67.26598
615.09        67.72421
615.52        67.87062
615.96        67.66418
616.39        67.68777
616.82        67.97314
617.25        67.70746
617.68        67.78635
618.11        67.74178
618.54        67.83945
618.97        67.88345
619.40        67.83832
619.84        67.93099
620.27         67.6154
620.70        67.65853
621.13        67.82607
621.56        67.50505
621.99        66.76869
622.42        66.60398
622.85        67.12872
623.28        66.69142
623.71        66.89755
624.14        67.21867
624.57        67.62392
625.00        67.12495
625.43        67.53428
625.86        67.45586
626.29        67.56201
626.72        66.89652
627.15        67.45858
627.58        67.52659
628.01        67.52248
628.44        67.70973
628.87        67.51617
629.30         67.0522
629.73        66.56547
630.16        66.91705
630.59        67.10268
631.02        67.39909
631.45        67.44277
631.88        67.57541
632.31        67.76041
632.74         67.7719
633.17        67.63946
633.60        67.52113
634.03         67.4463
634.46        67.36355
634.89        67.27116
635.32        67.18757
635.75        67.12065
636.18         67.0079
636.61         66.8933
637.04        66.87907
637.47        66.97208
637.89          67.133
638.32        67.27699
638.75        67.33086
639.18        67.27179
639.61        67.12394
640.04        66.95222
640.47        66.86077
640.90        66.87775
641.33        66.97749
641.76        67.10912
642.18        67.19572
642.61        67.19146
643.04         67.1256
643.47        67.04693
643.90         67.0322
644.33        67.09564
644.76        67.21269
645.18        67.31796
645.61        67.28951
646.04        67.11617
646.47        66.84501
646.90         66.5714
647.33        66.43391
647.75        66.43691
648.18        66.60113
648.61        66.88263
649.04        66.93054
649.47        66.65478
649.89        67.22022
650.32         66.8438
650.75        66.73304
651.18        66.48351
651.61        66.58763
652.03        67.04085
652.46        67.34628
652.89        67.37358
653.32        67.42873
653.74        67.54729
654.17        66.59885
654.60        67.25353
655.03        67.01241
655.46         65.7889
655.88        65.92194
656.31        66.60654
656.74        61.20086
657.16        65.94771
657.59        72.34748
658.02        67.84103
658.45        67.63295
658.87          67.328
659.30        66.68121
659.73        66.74271
660.15        67.84717
660.58        66.97638
661.01        66.89555
661.44        66.75262
661.86        66.35869
662.29        65.79433
662.72        66.36813
663.14         66.6843
663.57        66.70743
664.00        66.18941
664.42        66.19318
664.85        66.74883
665.27        67.26443
665.70        67.55022
666.13        67.64169
666.55        67.50764
666.98        67.07448
667.41        66.47836
667.83        66.37681
668.26        66.14101
668.69        66.26632
669.11        66.48073
669.54        66.65537
669.96        66.74683
670.39        66.83066
670.82        66.90698
671.24         66.8728
671.67        66.77271
672.09        66.73079
672.52        66.77422
672.94        66.84907
673.37        66.91595
673.80        66.85387
674.22        66.70433
674.65        66.63464
675.07        66.67567
675.50         66.7058
675.92        66.69621
676.35        66.64433
676.77        66.54755
677.20        66.40658
677.62        66.27657
678.05        66.24381
678.47        66.31841
678.90        66.47935
679.32         66.6565
679.75        66.73098
680.17        66.66618
680.60        66.55383
681.02        66.45063
681.45        66.29089
681.87        66.17178
682.30        66.41167
682.72        66.89546
683.15        67.00616
683.57        66.74945
684.00        66.59335
684.42        66.61694
684.85        66.65171
685.27        66.70691
685.70        66.89662
686.12        67.12733
686.54        67.21433
686.97        67.12424
687.39         66.9088
687.82        66.66206
688.24         66.5042
688.66        66.47786
689.09        66.53866
689.51        66.64854
689.94        66.71658
690.36         66.7228
690.78        66.67883
691.21        66.62889
691.63        66.63303
692.06        66.70682
692.48        66.83807
692.90        66.95275
693.33        66.94164
693.75        66.78547
694.17        66.49129
694.60        66.19409
695.02        66.12111
695.44        66.28431
695.87        66.61942
696.29        66.97386
696.71        66.89947
697.14        66.47005
697.56        66.25864
697.98        66.32713
698.41        66.37234
698.83         66.2993
699.25        66.46742
699.68        66.74696
700.10        66.88835
700.52        66.83126
700.94        66.66557
701.37        66.49371
701.79        66.48354
702.21        66.66445
702.64        66.95714
703.06        67.27535
703.48        67.46641
703.90        67.48256
704.33         67.3726
704.75        67.18333
705.17        66.98031
705.59        66.80576
706.01        66.64882
706.44        66.53147
706.86        66.52421
707.28        66.62361
707.70        66.76636
708.12        66.93444
708.55        67.18304
708.97        67.44252
709.39        67.47434
709.81        67.29695
710.23        67.19324
710.66        67.18883
711.08        67.13324
711.50        67.02441
711.92        66.95216
712.34        66.92493
712.76        66.93707
713.19        66.94769
713.61        66.92109
714.03        66.84153
714.45        66.73769
714.87        66.67919
715.29        66.77303
715.71        67.02922
716.13        67.39211
716.56         67.7642
716.98        68.07152
717.40        68.22931
717.82        68.26344
718.24        68.16652
718.66        67.93214
719.08        67.59899
719.50        67.20396
719.92        66.83678
720.34        66.63027
720.76        66.61487
721.19        66.73329
721.61        66.98084
722.03        67.28837
722.45        67.60265
722.87        67.91946
723.29        68.14278
723.71        68.12505
724.13        67.85294
724.55        67.38047
724.97        66.84987
725.39        66.50429
725.81        66.41749
726.23        66.51089
726.65        66.70806
727.07        67.02511
727.49        67.17079
727.91        67.36521
728.33        67.54541
728.75        67.73135
729.17        67.91337
729.59        68.06065
730.01        68.13934
730.43        68.10774
730.85        67.96409
731.27        67.73316
731.69        67.46594
732.10        67.23386
732.52        67.06258
732.94        66.95995
733.36        66.93311
733.78        66.85014
734.20        66.68684
734.62        66.73295
735.04        67.07813
735.46        66.57476
735.88        67.21442
736.30        67.45955
736.72        67.83762
737.13        68.10836
737.55        68.18433
737.97        68.28306
738.39        68.34823
738.81         68.0133
739.23        67.43829
739.65        67.39476
740.06        67.81059
740.48        68.00246
740.90        67.91759
741.32        67.96909
741.74        68.17506
742.16        68.34602
742.57        68.46635
742.99        68.55864
743.41        68.59929
743.83        68.53901
744.25        68.38018
744.67        68.13456
745.08        67.88395
745.50        67.73819
745.92        67.73672
746.34        67.84634
746.75        68.00354
747.17        68.08674
747.59         68.0688
748.01        67.98576
748.42        67.87797
748.84        67.81366
749.26        67.80999
749.68        67.82427
750.09        67.84072
750.51        67.86294
750.93        67.87043
751.35        67.84205
751.76        67.75314
752.18        67.60906
752.60           67.41
753.01        67.16353
753.43        66.91683
753.85        66.79362
754.27        66.82143
754.68        66.96651
755.10        67.16947
755.52        67.32791
755.93        67.40524
756.35        67.43096
756.77        67.45483
757.18        67.45277
757.60        67.42213
758.02        67.53961
758.43        67.81881
758.85        67.31008
759.26        67.64435
759.68        67.50072
760.10        67.36868
760.51        67.38975
760.93        67.61293
761.34         67.3396
761.76        67.64986
762.18        67.84264
762.59        68.19566
763.01        68.31871
763.42        68.27308
763.84        68.24075
764.26        68.23301
764.67        68.21548
765.09        68.19044
765.50        67.82056
765.92        67.31857
766.33        67.38887
766.75         67.8927
767.16        68.10184
767.58        67.89584
768.00        67.63023
768.41        67.44768
768.83        67.61636
769.24        68.01434
769.66        67.99831
770.07        67.62275
770.49        67.42876
770.90        67.53867
771.32         68.0174
771.73        68.68349
772.15        68.93859
772.56        68.72877
772.97        68.34708
773.39        67.97695
773.80        67.81512
774.22        67.91126
774.63        68.25599
775.05        68.66849
775.46        68.92312
775.88        68.91999
776.29        68.75848
776.70        68.54265
777.12        68.46173
777.53        68.57236
777.95        68.76226
778.36        68.97272
778.77        69.07127
779.19        69.04349
779.60        68.96906
780.02        68.83393
780.43        68.70198
780.84        68.62128
781.26        68.24884
781.67        67.79982
782.09        68.34036
782.50        69.56708
782.91        69.73204
783.33        68.85515
783.74         68.5987
784.15         68.8095
784.57        68.72014
784.98        68.35544
785.39        68.30054
785.81        68.58877
786.22        69.06084
786.63        69.55779
787.04        69.81738
787.46        69.79205
787.87        69.55318
788.28        69.25566
788.70        69.10967
789.11        69.14886
789.52        69.33709
789.93        69.57684
790.35        69.70092
790.76        69.66917
791.17        69.51717
791.58        69.34489
792.00        69.23438
792.41        69.22649
792.82        69.45168
793.23        69.75388
793.65        69.50433
794.06        68.86795
794.47        68.78146
794.88        69.19679
795.29        69.46054
795.71         69.1711
796.12        69.23983
796.53        69.54298
796.94        69.50574
797.35        69.21187
797.76        69.39957
798.18        69.97247
798.59        70.20663
799.00        70.02981
799.41        69.83949
799.82        69.73183
800.23        69.69031
800.64        69.74284
801.06        69.86021
801.47        70.01403
801.88        70.06156
802.29        69.96468
802.70        69.75822
803.11        69.50072
803.52        69.29134
803.93        69.18357
804.34         69.1633
804.75         69.2085
805.17        69.34716
805.58        69.61185
805.99        69.72402
806.40        69.73181
806.81        70.31462
807.22        71.18106
807.63        70.94066
808.04        69.78579
808.45        69.24329
808.86        69.44598
809.27        69.58311
809.68        69.54333
810.09        69.52992
810.50          69.516
810.91        69.44481
811.32        69.41968
811.73        69.60257
812.14        70.00921
812.55         70.5892
812.96        71.14788
813.37        71.32311
813.78        71.02699
814.19         70.3996
814.60        69.67316
815.01        69.15908
815.42        68.93387
815.83        68.91695
816.24        69.03912
816.65        69.16113
817.05        69.23211
817.46        69.27799
817.87        69.33182
818.28        69.38803
818.69        69.44978
819.10         69.4837
819.51        69.53036
819.92        69.67899
820.33        69.93084
820.74        70.25187
821.14        70.53625
821.55        70.60642
821.96        70.43439
822.37        70.08382
822.78         69.6736
823.19        69.40595
823.60        69.35143
824.00        69.48324
824.41        69.69785
824.82        69.91923
825.23        70.09179
825.64        70.23167
826.04        70.33757
826.45        70.36832
826.86        70.33483
827.27        70.24788
827.68        70.10532
828.08        69.93993
828.49        69.72581
828.90        69.48872
829.31        69.31517
829.72        69.34146
830.12        69.60544
830.53        70.00145
830.94        70.39143
831.35        70.48731
831.75        70.23405
832.16         69.7094
832.57        69.07729
832.97        68.57835
833.38        68.30395
833.79        68.17495
834.20         68.2103
834.60        68.43147
835.01        68.81541
835.42        69.39951
835.82        70.02934
836.23        70.34955
836.64         70.3019
837.04        69.92319
837.45        69.50737
837.86        69.61233
838.26        70.36883
838.67         71.5796
839.08        72.77592
839.48        73.08063
839.89        72.28757
840.29        70.73508
840.70        69.12797
841.11        68.28341
841.51        68.40205
841.92        69.21903
842.33        70.39379
842.73        71.31007
843.14        71.62428
843.54        71.55947
843.95        71.31096
844.35        71.25024
844.76        71.45802
845.17        71.79498
845.57         72.0931
845.98        72.07394
846.38        71.70341
846.79        71.09155
847.19        70.44904
847.60        70.06806
848.00        70.04094
848.41        70.25943
848.81        70.59347
849.22        70.74057
849.62        70.65904
850.03        70.42387
850.43        70.16923
850.84        70.04221
851.24        70.13234
851.65         70.3106
852.05        70.60455
852.46        70.94662
852.86        71.28651
853.27        71.63863
853.67        71.84377
854.07        71.79715
854.48         71.4685
854.88        70.91085
855.29        70.23409
855.69        69.78699
856.10        69.61346
856.50        69.72283
856.90        69.93443
857.31        69.95039
857.71        69.74294
858.12        69.32707
858.52        68.91299
858.92        68.73656
859.33        68.84415
859.73        69.20293
860.13        69.58453
860.54        69.63844
860.94        69.32814
861.34        68.74733
861.75        68.14458
862.15        67.96859
862.55        68.30077
862.96        68.96107
863.36        69.73843
863.76        70.18976
864.17        70.16069
864.57        69.81578
864.97        69.25522
865.38        68.63984
865.78        68.08686
866.18        67.56375
866.58        67.15308
866.99        67.00645
867.39        67.17479
867.79        67.60373
868.19        68.20415
868.60        68.80357
869.00        69.35989
869.40         69.8706
869.80        70.25047
870.21        70.35973
870.61        70.23159
871.01        69.86291
871.41        69.35708
871.81        68.86127
872.22         68.4169
872.62        68.00464
873.02        67.67844
873.42        67.50185
873.82        67.49035
874.22        67.64799
874.63        67.86234
875.03        67.96584
875.43        67.89952
875.83        67.68149
876.23        67.45311
876.63        67.44952
877.03         67.7118
877.44        68.14603
877.84        68.56187
878.24        68.64684
878.64        68.30004
879.04        67.51548
879.44        66.64084
879.84        66.29659
880.24        66.56989
880.64        67.24094
881.04        67.93828
881.44        68.07326
881.84        67.51009
882.24         66.4586
882.65        65.32204
883.05        64.71679
883.45        64.80602
883.85        65.40724
884.25        66.22729
884.65        66.76829
885.05        66.87182
885.45        66.69199
885.85        66.42734
886.25        66.37746
886.65        66.61503
887.05        67.01622
887.45        67.43834
887.85        67.66383
888.25        67.62694
888.65        67.41417
889.04        67.11565
889.44        66.89288
889.84        66.77647
890.24        66.70554
890.64        66.65598
891.04        66.59257
891.44        66.50803
891.84        66.45564
892.24        66.39692
892.64        66.25277
893.04         66.0413
893.44         65.7989
893.83        65.69016
894.23        65.93705
894.63        66.57883
895.03        67.48649
895.43        68.46331
895.83        69.19426
896.23          69.554
896.63        69.60922
897.02        69.35977
897.42        68.85629
897.82        68.17473
898.22         67.3569
898.62        66.57021
899.01        66.04749
899.41        65.86177
899.81        65.96105
900.21        66.24288
900.61        66.51671
901.00        66.70229
901.40        66.81538
901.80        66.87442
902.20        66.91621
902.59         66.9622
902.99        66.99309
903.39        66.95995
903.79        66.79375
904.18        66.49268
904.58        66.09677
904.98        65.78239
905.38        65.81495
905.77        66.23491
906.17        66.98879
906.57        67.78216
906.96        68.12163
907.36        67.88079
907.76        67.20866
908.15        66.51551
908.55         66.4395
908.95        67.12119
909.34        68.35809
909.74        69.66522
910.14        70.33177
910.53        70.13407
910.93        69.32887
911.33        68.24365
911.72        67.36587
912.12        66.92784
912.52        66.79975
912.91         66.8595
913.31          66.949
913.70        67.00832
914.10        67.04864
914.49        67.22327
914.89        67.68122
915.29        68.43388
915.68        69.40401
916.08        70.18246
916.47        70.19028
916.87        69.36463
917.26        67.91605
917.66        66.44473
918.05        65.68556
918.45        65.80433
918.84        66.63433
919.24        67.74655
919.64        68.49922
920.03        68.68388
920.42        68.44848
920.82        68.11427
921.21        68.13564
921.61        68.59557
922.00        69.34346
922.40        70.06979
922.79        70.40192
923.19        70.20499
923.58        69.68532
923.98        69.04585
924.37        68.49716
924.77         68.1355
925.16        67.83163
925.55        67.67549
925.95        67.80241
926.34        68.21087
926.74        68.85432
927.13        69.38805
927.52          69.187
927.92        68.23181
928.31        66.73761
928.70        65.25055
929.10         64.5845
929.49         64.9025
929.89        65.89318
930.28         67.2748
930.67        68.42369
931.07        69.05109
931.46         69.4038
931.85        69.36356
932.24        68.80627
932.64        67.85575
933.03        66.53049
933.42        65.34013
933.82        65.03967
934.21        65.75374
934.60        67.32755
934.99        69.20554
935.39        70.33805
935.78        70.43636
936.17        69.68334
936.56        68.55781
936.96        67.84015
937.35        67.74615
937.74        68.03696
938.13        68.36314
938.53        68.20884
938.92        67.48213
939.31        66.44431
939.70        65.42635
940.09        64.85546
940.49        64.80779
940.88        65.16702
941.27         65.7839
941.66        66.38068
942.05        66.83625
942.44         67.2365
942.84        67.59121
943.23        67.91021
943.62        68.20782
944.01        68.40732
944.40        68.58536
944.79         68.9077
945.18        69.37373
945.57        69.92991
945.97        70.30621
946.36        70.15307
946.75        69.38089
947.14        68.18992
947.53         66.9147
947.92        66.01022
948.31        65.60152
948.70        65.58401
949.09        65.83554
949.48        66.13229
949.87        66.37724
950.26        66.61372
950.65        66.86882
951.04        67.19206
951.43        67.56371
951.82        67.90477
952.21        68.11343
952.60        68.05807
952.99        67.74548
953.38        67.28394
953.77        66.78173
954.16        66.39713
954.55         66.1856
954.94        66.07813
955.33        66.16268
955.72        66.57253
956.11        67.28677
956.50        68.27555
956.89        69.15826
957.28        69.29784
957.66        68.57207
958.05        67.21846
958.44        65.78953
958.83        65.09895
959.22        65.29909
959.61        66.15842
960.00        67.23377
960.39        67.69466
960.78        67.28707
961.16        66.29925
961.55        65.15472
961.94        64.36332
962.33        64.08389
962.72         64.1857
963.11        64.54041
963.49        64.94667
963.88        65.22176
964.27        65.40993
964.66         65.6599
965.04        66.23405
965.43        67.10245
965.82        68.20408
966.21        69.09236
966.60        68.95657
966.98        67.64687
967.37        65.60249
967.76          63.562
968.15        62.42378
968.53        62.35635
968.92        63.12132
969.31        64.34969
969.69        65.27164
970.08        65.48813
970.47        65.22218
970.86        64.80008
971.24        64.70383
971.63        65.04015
972.02        65.62188
972.40         66.1812
972.79        66.02317
973.17        65.08694
973.56         63.6977
973.95        62.30841
974.33        61.43533
974.72         61.1896
975.11        61.39542
975.49        61.92515
975.88        62.45567
976.26         62.8812
976.65         63.2317
977.04        63.47621
977.42        63.54502
977.81        63.41267
978.19        63.05748
978.58        62.71967
978.96        62.77374
979.35        63.26376
979.74        64.10609
980.12         65.0634
980.51        65.46573
980.89        65.26521
981.28        64.64931
981.66        63.93042
982.05        63.52393
982.43        63.54936
982.82        63.83867
983.20        64.43944
983.59        65.32275
983.97        66.47833
984.35        67.88883
984.74         69.0909
985.12        69.54658
985.51        69.08584
985.89        67.89051
986.28         66.5825
986.66         66.0475
987.04        66.54423
987.43        67.79433
987.81        69.34109
988.20        70.14211
988.58        69.87703
988.96        68.81786
989.35        67.41535
989.73        66.28304
990.12        65.60094
990.50        65.25007
990.88        65.03588
991.27        64.67632
991.65        64.11484
992.03        63.44899
992.42        63.01942
992.80         63.2468
993.18        64.18943
993.56        65.72217
993.95        67.18508
994.33        67.55353
994.71        66.46491
995.10        64.40814
995.48        62.19851
995.86        61.09187
996.24        61.37247
996.63        62.56216
997.01        64.43036
997.39        66.07144
997.77        66.99536
998.15        67.55006
998.54        67.52441
998.92         66.4951
999.30          64.678
999.68        62.23545
1000.06        60.19576
1000.45        60.04919
1000.83         62.1712
1001.21          66.339
1001.59        71.50739
1001.97        74.97117
1002.35        75.57589
1002.73        74.04505
1003.12        71.78825
1003.50         70.6535
1003.88        71.19999
1004.26        72.71031
1004.64        74.76437
1005.02        76.46941
1005.40        77.28112
1005.78        77.66988
1006.16        77.19901
1006.54        75.09228
1006.92        71.60008
1007.30        67.18357
1007.69        63.25595
1008.07        61.65899
1008.45        62.90408
1008.83        66.54805
1009.21        71.69441
1009.59        75.83852
1009.97        77.47772
1010.35        77.12876
1010.73        75.08927
1011.11        71.97641
1011.49         68.4474
1011.86        64.59553
1012.24        61.30139
1012.62        59.67727
1013.00        59.85343
1013.38        61.63444
1013.76        64.59088
1014.14        67.29447
1014.52         68.8623
1014.90        69.50558
1015.28        69.28797
1015.66        68.50045
1016.04        67.34356
1016.41        65.62627
1016.79        63.83617
1017.17        63.04605
1017.55        63.49198
1017.93        64.92319
1018.31        66.54192
1018.69        67.12044
1019.06        66.38797
1019.44        64.56737
1019.82        62.17377
1020.20        60.58703
1020.58        60.39557
1020.95        61.01958
1021.33        61.95913
1021.71        62.48403
1022.09        62.47046
1022.46        62.36796
1022.84        61.96852
1023.22        60.95337
1023.60        59.48824
1023.97        57.53676
1024.35        56.40811
1024.73        57.58723
