SpectraSmart Spectrum 2.9.0.0
--------- Device Information -----------
Spectrum Name :  反射率_0
Saving Time :  2024/04/26 22:40:18
Spectro-Module Model Name : SE2030-DUVN
Spectro-Module Serial Number : OS361AC55029948
Wavelength Start : 200
Wavelength End : 1025
Wavelength Unit : Wavelength(nm)
Spectrum Unit : Reflectance(%)
-----------Spectrum Setting ------------
Integration Time : 20ms
Average : 10
Boxcar : 0
Background removal :  enabled
linearity correction :  enabled
SC :  disabled
Intensity correction :  disabled
DWT denoise :  enabled
savitzky-golay :  disabled
FFT :  disabled
Running average :  disabled
Kalman :  disabled
High pass :  disabled
---------------BEGIN--------------------
Wavelength(nm)             Reflectance(%)
200.29               0
200.75        32.50203
201.21        32.62621
201.67        33.32803
202.13        34.16164
202.58        34.99662
203.04          36.288
203.50         38.2152
203.96        40.57477
204.42        42.90072
204.88        44.74589
205.34         45.3734
205.80         44.2572
206.26        41.61932
206.72        38.04938
207.18         34.5171
207.64        31.29211
208.10        28.01838
208.55        24.35951
209.01         19.8613
209.47        16.71318
209.93        16.87604
210.39        19.06993
210.85        21.80696
211.31        24.95588
211.77        29.70237
212.23         39.3092
212.69        62.63783
213.14        103.6316
213.60         104.565
214.06        77.05788
214.52        57.84806
214.98        49.38975
215.44        46.00096
215.90        44.28999
216.36        43.19672
216.81         41.3816
217.27         38.6222
217.73        35.43918
218.19        32.06485
218.65        30.41202
219.11        31.82175
219.57        34.39128
220.02        37.51176
220.48        42.44887
220.94         50.0615
221.40        61.84311
221.86         77.6174
222.32        87.46378
222.77        82.66865
223.23        70.26981
223.69        57.59589
224.15        48.56955
224.61        42.74398
225.06        38.51395
225.52        35.90269
225.98        34.82212
226.44         34.8718
226.90        35.89189
227.36        36.94259
227.81        36.45106
228.27         34.3947
228.73        31.41032
229.19         28.6605
229.65        27.42571
230.10        27.74406
230.56        29.14483
231.02         30.8116
231.48        31.45538
231.93        30.80229
232.39        29.53074
232.85        28.31681
233.31         28.0789
233.77        28.87985
234.22        30.35643
234.68        31.95856
235.14        32.98227
235.60        33.20121
236.05        32.86346
236.51        32.12479
236.97        31.28458
237.43        30.58756
237.88        30.01801
238.34        29.77751
238.80        30.37857
239.26        32.03829
239.71        35.11596
240.17        39.38894
240.63        43.79254
241.08        47.49264
241.54        50.09944
242.00        52.14346
242.46        55.49836
242.91        61.90933
243.37        71.69357
243.83        86.36755
244.28        103.4572
244.74        114.3477
245.20         115.315
245.66        108.7564
246.11        98.70068
246.57        87.29906
247.03        74.17478
247.48        60.57767
247.94        50.94341
248.40        47.18146
248.85        46.88068
249.31        48.32669
249.77        50.00683
250.22        51.54047
250.68        53.43028
251.14        55.08124
251.59        54.59064
252.05        51.75657
252.51        47.96555
252.96        44.14905
253.42        41.33851
253.88        39.45437
254.33        37.82008
254.79        37.46996
255.25        38.98769
255.70        41.94423
256.16        45.97366
256.62        48.85602
257.07        47.48435
257.53        43.23125
257.99        38.31444
258.44        34.50264
258.90        33.34819
259.35        34.01459
259.81        35.74884
260.27        37.47869
260.72        37.92777
261.18        37.16684
261.63        35.65146
262.09        34.19017
262.55        33.30042
263.00         32.9404
263.46        32.93598
263.91        32.84887
264.37        32.30587
264.83        31.30289
265.28        30.03505
265.74         28.9533
266.19        28.41627
266.65        28.48199
267.11        28.91733
267.56        29.42106
268.02        29.51002
268.47        29.06347
268.93        28.25825
269.38        27.27046
269.84        26.40653
270.30        25.75125
270.75         25.2076
271.21          24.755
271.66        24.32845
272.12        23.90102
272.57        23.49211
273.03        23.07882
273.48        22.60945
273.94        22.10852
274.39        21.56346
274.85        21.03182
275.31        20.50824
275.76         19.9821
276.22        19.46549
276.67        18.96562
277.13         18.5352
277.58        18.15043
278.04        17.81966
278.49        17.44913
278.95        16.97781
279.40        16.37966
279.86        15.73539
280.31        15.11782
280.77        14.68205
281.22        14.42846
281.68         14.3289
282.13        14.28426
282.59        14.19538
283.04         14.0255
283.50        13.80744
283.95        13.59116
284.41        13.46002
284.86        13.42591
285.32        13.45396
285.77        13.47629
286.22        13.43309
286.68        13.31306
287.13        13.12903
287.59        12.91799
288.04         12.7101
288.50         12.5358
288.95        12.37571
289.41        12.24444
289.86          12.129
290.32        12.04386
290.77        11.99154
291.22        11.97668
291.68        11.99726
292.13        12.04805
292.59        12.13219
293.04        12.25567
293.50        12.44177
293.95        12.68425
294.40        12.97716
294.86         13.2896
295.31        13.57221
295.77        13.81949
296.22        14.04269
296.68        14.28288
297.13        14.59887
297.58        15.00589
298.04        15.48739
298.49        16.00491
298.95        16.50512
299.40        16.96968
299.85        17.41866
300.31        17.87372
300.76         18.3683
301.21        18.91041
301.67        19.49579
302.12        20.09727
302.58        20.71418
303.03        21.32239
303.48        21.93217
303.94        22.55436
304.39        23.18641
304.84        23.83992
305.30        24.53391
305.75        25.23608
306.20         25.9369
306.66        26.64374
307.11        27.34896
307.57        28.10385
308.02        28.95038
308.47        29.89549
308.93        30.92182
309.38        31.96204
309.83        32.96221
310.29        33.91654
310.74        34.84712
311.19        35.77756
311.65        36.72773
312.10        37.69067
312.55        38.64443
313.00        39.61218
313.46        40.64825
313.91        41.75866
314.36        42.95151
314.82        44.16394
315.27        45.28681
315.72        46.27528
316.18        47.15463
316.63        47.99357
317.08        48.94005
317.53        50.02995
317.99        51.21571
318.44        52.40694
318.89        53.43081
319.35        54.24373
319.80        54.90549
320.25        55.51729
320.70        56.24594
321.16        57.13626
321.61        58.15314
322.06        59.21721
322.51        60.20011
322.97        61.04303
323.42        61.77708
323.87        62.45704
324.32         63.1934
324.78        63.99215
325.23        64.86191
325.68        65.66228
326.13        66.16813
326.59        66.33549
327.04        66.26399
327.49        66.15877
327.94        66.36621
328.39        66.97624
328.85        67.87171
329.30        68.94053
329.75        69.80187
330.20        70.31747
330.66        70.57069
331.11        70.70353
331.56          70.908
332.01        71.26141
332.46        71.68335
332.92        72.11631
333.37        72.57928
333.82         73.0179
334.27        73.48116
334.72        73.93082
335.17        74.28181
335.63        74.52677
336.08         74.7252
336.53        74.99199
336.98        75.55272
337.43        76.44607
337.88        77.58126
338.34        78.77848
338.79        79.81329
339.24        80.54849
339.69        81.04008
340.14        81.30764
340.59        81.40554
341.05        81.40795
341.50        81.30902
341.95        81.22517
342.40        81.33498
342.85        81.68295
343.30        82.23566
343.75        82.90836
344.20        83.53693
344.66          84.063
345.11        84.52116
345.56         84.9117
346.01        85.24644
346.46        85.54957
346.91        85.81927
347.36        86.09702
347.81        86.46515
348.26        86.92593
348.72        87.43246
349.17        87.95227
349.62        88.45936
350.07        88.92612
350.52        89.37894
350.97        89.68783
351.42        89.64852
351.87        89.26344
352.32        88.61291
352.77        87.99829
353.22        87.86467
353.67        88.28351
354.13        89.11779
354.58        90.04864
355.03        90.50324
355.48        90.32733
355.93        89.69293
356.38        88.90919
356.83        88.44851
357.28        88.41915
357.73         88.6569
358.18        88.94075
358.63        88.92091
359.08        88.50607
359.53        87.83682
359.98        87.07084
360.43        86.42136
360.88        85.94804
361.33        85.57729
361.78        85.24326
362.23        84.85419
362.68        84.38809
363.13        83.89233
363.58        83.40298
364.03         82.9601
364.48         82.5698
364.93        82.20471
365.38         81.8467
365.83         81.4789
366.28        81.09434
366.73        80.70036
367.18        80.29282
367.63        79.86089
368.08        79.40621
368.53        78.93697
368.98         78.4668
369.43        78.01551
369.88        77.59057
370.33        77.18763
370.78         76.8082
371.23        76.45795
371.68        76.13245
372.13        75.82169
372.58        75.51353
373.03        75.18659
373.48        74.83056
373.93        74.45135
374.38        74.03535
374.83        73.56799
375.28        73.05842
375.72        72.50194
376.17        71.99203
376.62        71.58012
377.07        71.28664
377.52        71.11199
377.97        70.99257
378.42        70.83807
378.87        70.63171
379.32        70.33047
379.77        70.03439
380.22        70.00909
380.67         70.2868
381.11        70.36961
381.56        70.79884
382.01        70.52149
382.46        69.74595
382.91        68.63737
383.36        67.57762
383.81        67.07641
384.26        67.20293
384.71         67.7841
385.15        68.54216
385.60        68.99162
386.05        68.97895
386.50        68.64878
386.95        68.12495
387.40        67.60786
387.85          67.183
388.29        66.74622
388.74        66.39914
389.19        66.12197
389.64        65.90331
390.09        65.75085
390.54        65.62831
390.98        65.44698
391.43        65.22771
391.88        64.98601
392.33        64.75526
392.78        64.57185
393.23         64.4429
393.67        64.34591
394.12        64.33265
394.57        64.23759
395.02        64.24083
395.47         64.1696
395.91        64.09959
396.36         64.0292
396.81        63.98986
397.26        63.98816
397.71        63.95685
398.15        63.83849
398.60        63.70905
399.05        63.34914
399.50        62.92751
399.95        63.11978
400.39        63.75977
400.84         63.7369
401.29        63.06841
401.74          62.715
402.18        62.73146
402.63        62.52864
403.08        62.17307
403.53         62.0278
403.97         62.1101
404.42        62.31587
404.87        62.55565
405.32        62.66752
405.76        62.58422
406.21        62.46643
406.66        62.37914
407.11        62.21709
407.55        61.97531
408.00        62.51866
408.45        62.06755
408.90        62.35786
409.34        62.69915
409.79        62.54838
410.24        61.97823
410.68        61.64447
411.13        61.61978
411.58        61.46893
412.03         61.1576
412.47        61.20083
412.92        60.97291
413.37        60.95734
413.81        60.96937
414.26        61.08334
414.71         61.2732
415.15        61.55228
415.60        61.85435
416.05        62.11037
416.49        62.29524
416.94        62.40892
417.39        62.47715
417.83        62.53627
418.28        62.60545
418.73        62.67244
419.17        62.74122
419.62        62.82046
420.07        62.89892
420.51        62.95617
420.96        63.00665
421.41         62.9934
421.85        62.89112
422.30        62.85785
422.74        62.82269
423.19         62.6106
423.64        62.28263
424.08        62.23976
424.53        62.48107
424.98        62.68869
425.42        62.84222
425.87        63.17544
426.31        63.58348
426.76        63.60575
427.21        63.30139
427.65        63.13646
428.10         63.1475
428.54        63.15693
428.99        63.22302
429.44        63.21319
429.88        63.22416
430.33         63.8398
430.77        64.73717
431.22        65.02505
431.66        64.67685
432.11        64.27827
432.56        63.99682
433.00        63.88332
433.45        64.12602
433.89        64.61146
434.34        64.76271
434.78        66.12768
435.23        65.37106
435.67        63.61609
436.12        64.37476
436.57        64.50744
437.01        65.07552
437.46         65.2785
437.90         65.1379
438.35            64.7
438.79        64.78761
439.24        64.79614
439.68        64.92963
440.13        65.30177
440.57        65.82481
441.02        65.92867
441.46        65.67633
441.91        66.03802
442.35        66.71284
442.80        66.65982
443.24         66.0386
443.69        65.94734
444.13        66.29664
444.58        67.09696
445.02        66.71736
445.47        66.86946
445.91        67.14292
446.36         67.5108
446.80        67.54904
447.24        67.66378
447.69        67.75833
448.13        67.82324
448.58        67.87776
449.02        67.90278
449.47        67.92176
449.91        67.92787
450.36        67.94471
450.80         67.9671
451.25        68.01321
451.69        68.02626
452.13        68.03125
452.58        68.08658
453.02        68.17834
453.47        68.24008
453.91        68.25106
454.36         68.2555
454.80         68.2598
455.24        68.11771
455.69        67.81744
456.13        67.66328
456.58        67.75293
457.02        66.88477
457.46        66.75974
457.91        66.86073
458.35        67.37869
458.79        67.33942
459.24        66.76953
459.68        66.02512
460.13        65.37249
460.57        65.18148
461.01        65.59439
461.46         65.5275
461.90        66.44705
462.34        66.89078
462.79        66.59141
463.23        66.73438
463.68        67.11047
464.12        67.00493
464.56        66.40427
465.01         65.5317
465.45        64.65268
465.89        64.46083
466.34        64.86005
466.78        65.26375
467.22        65.48994
467.67         65.2894
468.11        64.82018
468.55        64.78806
468.99          65.165
469.44        65.19608
469.88        64.87617
470.32        64.69987
470.77        64.70077
471.21        64.67741
471.65        64.62173
472.10        64.60205
472.54         64.5978
472.98        64.56985
473.42        64.50425
473.87        64.45955
474.31        64.38213
474.75        64.15462
475.20        63.84518
475.64        63.68326
476.08         63.7074
476.52        63.58739
476.97        63.25602
477.41        63.24944
477.85        63.71849
478.29        62.90688
478.74        63.19321
479.18        64.10898
479.62        63.58797
480.06        63.77118
480.50        63.86147
480.95        63.80421
481.39        63.52724
481.83        63.72051
482.27        63.46305
482.72        63.40569
483.16        63.32467
483.60        63.28466
484.04        63.28479
484.48        63.50754
484.93        63.66825
485.37         63.5006
485.81        62.80085
486.25        62.61731
486.69        61.84943
487.14        64.07594
487.58        63.84748
488.02        63.92514
488.46        62.87888
488.90         62.8272
489.34        63.97232
489.79        64.53877
490.23        63.74336
490.67        63.15422
491.11        62.76042
491.55        62.66077
491.99        62.80471
492.43        62.75602
492.88        62.51357
493.32        62.46281
493.76         62.6048
494.20        62.72044
494.64        62.78268
495.08        62.81616
495.52        62.82253
495.96        62.86012
496.41        62.89964
496.85        62.85729
497.29        62.64827
497.73        62.56354
498.17        61.91417
498.61        61.87796
499.05        62.18175
499.49        62.53362
499.93        62.57926
500.37        62.52326
500.82        62.35308
501.26        62.23183
501.70        62.22104
502.14        62.34999
502.58        62.57516
503.02        62.66181
503.46        62.70761
503.90        62.72674
504.34         62.7505
504.78        62.71097
505.22        62.61221
505.66        62.47805
506.10        62.35144
506.54        62.28762
506.98        62.29649
507.42        62.40155
507.86        62.50763
508.30        62.53013
508.74         62.5217
509.18        62.43534
509.62        62.33219
510.06        62.26861
510.50        62.26299
510.94        62.29565
511.38        62.34679
511.82        62.38688
512.26        62.40705
512.70        62.42042
513.14        62.43542
513.58        62.46432
514.02         62.5085
514.46        62.55461
514.90        62.59996
515.34        62.64431
515.78        62.68103
516.22        62.70783
516.66        62.70647
517.10        62.64707
517.54         62.5316
517.98        62.38023
518.42        62.22298
518.86        62.10715
519.30        62.04782
519.74        62.02935
520.18        62.05231
520.62        62.11357
521.06        62.20508
521.50        62.33176
521.93        62.45598
522.37        62.49587
522.81        62.44825
523.25        62.33057
523.69        62.21376
524.13        62.21374
524.57        62.34565
525.01        62.56123
525.45        62.78125
525.89        62.87698
526.32        62.80745
526.76        62.63633
527.20        62.40107
527.64        62.16534
528.08        61.96359
528.52        61.78356
528.96        61.65538
529.40        61.62605
529.83        61.69195
530.27        61.84195
530.71        62.01703
531.15        62.12394
531.59        62.13735
532.03        62.08041
532.46          61.969
532.90        61.87688
533.34        61.81668
533.78        61.73488
534.22        61.64754
534.66        61.65728
535.09        61.71765
535.53        61.67678
535.97        61.53119
536.41        61.43427
536.85         61.3932
537.28        61.31562
537.72        61.22832
538.16        61.22272
538.60        61.30421
539.04        61.44191
539.47        61.57896
539.91        61.66889
540.35        61.68208
540.79        61.63666
541.22        61.55694
541.66        61.50247
542.10        61.48174
542.54        61.47968
542.97        61.46897
543.41        61.43634
543.85        61.37143
544.29        61.29562
544.72        61.21618
545.16        61.17629
545.60        61.17219
546.04        61.20192
546.47        61.26723
546.91        61.35387
547.35        61.45314
547.79        61.58517
548.22        61.71426
548.66        61.75182
549.10        61.75601
549.53        61.72647
549.97         61.6834
550.41        61.52253
550.84         61.3248
551.28        61.25621
551.72        61.27068
552.15        61.34223
552.59        61.53734
553.03        60.96992
553.46        61.46494
553.90        61.40324
554.34        61.31823
554.77        61.21688
555.21        61.16126
555.65        61.19917
556.08        61.30922
556.52        61.44777
556.96        61.55636
557.39        61.66385
557.83        61.70555
558.27         61.5046
558.70        61.04123
559.14        60.77348
559.57        60.71983
560.01        60.83906
560.45        61.05731
560.88        61.18567
561.32        61.21729
561.75        61.30822
562.19         61.4409
562.63        61.29602
563.06        60.96782
563.50        60.96308
563.93         61.1905
564.37         61.2613
564.80        61.18171
565.24        61.06509
565.68        60.81298
566.11        61.42322
566.55        60.68339
566.98        60.54428
567.42        60.49936
567.85        60.28144
568.29        60.61339
568.72        60.92592
569.16         61.3867
569.60        61.54689
570.03        61.52895
570.47        61.52192
570.90        61.64184
571.34        61.03138
571.77        61.23572
572.21        61.71582
572.64        61.45254
573.08        62.14586
573.51        61.36009
573.95        61.18843
574.38        61.26247
574.82         61.4866
575.25        61.29025
575.69         61.3853
576.12        61.69509
576.56        60.90487
576.99        60.92642
577.42        61.15463
577.86        61.18246
578.29         61.5704
578.73        61.59916
579.16        61.71845
579.60        61.35371
580.03        61.41007
580.47        61.15445
580.90        62.00293
581.33        61.75732
581.77        61.87737
582.20        61.07088
582.64         61.6724
583.07        61.72885
583.51        61.48935
583.94        61.55616
584.37        61.82829
584.81        61.36649
585.24        61.43304
585.68        61.28362
586.11        61.22209
586.54        61.61073
586.98        61.01183
587.41        60.60979
587.85        60.71071
588.28        60.93575
588.71        60.67091
589.15        60.73696
589.58        60.89207
590.01        60.87092
590.45        60.59336
590.88        61.60712
591.31         61.4874
591.75        60.84929
592.18        60.47563
592.61        60.52907
593.05        60.69906
593.48        61.05055
593.91        60.97474
594.35        61.21368
594.78        60.70598
595.21        60.34162
595.65        60.36694
596.08        61.04703
596.51        61.33026
596.94         60.9794
597.38        60.78385
597.81        60.78214
598.24        61.26644
598.68        61.01603
599.11        60.52505
599.54        61.39834
599.97        60.90126
600.41        61.07546
600.84        60.37207
601.27        60.94791
601.70        60.70821
602.14        60.96284
602.57        60.79774
603.00        60.62766
603.43        60.15194
603.87        60.58821
604.30        60.71419
604.73        60.97457
605.16        60.06096
605.60        60.55328
606.03        60.22367
606.46        59.82301
606.89        60.13484
607.32        60.81802
607.76        60.01907
608.19        60.64629
608.62        60.37749
609.05        60.22978
609.48        60.20224
609.92        61.13121
610.35        60.69491
610.78        60.38651
611.21        60.42041
611.64        60.36677
612.07        60.61294
612.50        60.55269
612.94        60.52871
613.37        60.39431
613.80        60.20977
614.23        59.66166
614.66        59.56851
615.09        60.14758
615.52         60.4024
615.96        60.33448
616.39        60.42461
616.82        60.70722
617.25        60.14704
617.68        60.06964
618.11        60.04337
618.54        60.39184
618.97        60.47583
619.40        60.25785
619.84        60.33263
620.27        60.12855
620.70        60.13223
621.13        60.13678
621.56        59.70852
621.99        58.91177
622.42        59.10947
622.85         59.0785
623.28         59.1664
623.71        59.11681
624.14        59.35529
624.57        59.60781
625.00        59.51665
625.43        59.65268
625.86        59.63338
626.29        59.74021
626.72        59.23043
627.15        59.60891
627.58        59.60441
628.01        59.56276
628.44        59.66508
628.87        59.31457
629.30        59.16713
629.73        59.06068
630.16        59.16585
630.59        59.12244
631.02        59.29113
631.45        59.51451
631.88         59.6566
632.31        59.68063
632.74         59.6232
633.17        59.51996
633.60        59.41228
634.03        59.32022
634.46        59.24764
634.89        59.18669
635.32        59.02738
635.75        58.95728
636.18        58.77829
636.61        58.60098
637.04        58.54282
637.47        58.61766
637.89        58.77798
638.32        58.93517
638.75        59.00579
639.18        58.96199
639.61        58.83222
640.04        58.67411
640.47        58.58057
640.90        58.57798
641.33        58.63968
641.76        58.73214
642.18        58.80738
642.61        58.82848
643.04         58.8185
643.47        58.79635
643.90        58.79022
644.33        58.80576
644.76        58.83181
645.18        58.84637
645.61          58.801
646.04        58.69746
646.47        58.55814
646.90        58.42562
647.33        58.35499
647.75        58.33618
648.18        58.40945
648.61         58.5699
649.04        58.57835
649.47        58.37194
649.89        58.90453
650.32         58.5972
650.75        58.58628
651.18        58.46422
651.61        58.43912
652.03        58.53601
652.46        58.69313
652.89        58.86596
653.32        58.88455
653.74        58.78238
654.17        58.55318
654.60        59.11694
655.03        58.76325
655.46        58.05931
655.88        57.97726
656.31        59.15171
656.74        57.64153
657.16        61.14227
657.59         65.2873
658.02        60.74777
658.45        59.77088
658.87         58.8974
659.30        58.84215
659.73        58.70699
660.15        59.46771
660.58        58.38205
661.01        58.26259
661.44        58.40606
661.86        58.38346
662.29        58.13349
662.72        58.49031
663.14        58.32543
663.57        58.30231
664.00        58.16338
664.42        58.15979
664.85        58.29953
665.27        58.54609
665.70        58.65008
666.13        58.69812
666.55        58.62934
666.98        58.39736
667.41        58.05336
667.83         58.0672
668.26        57.86509
668.69        57.90181
669.11        57.97979
669.54        58.07069
669.96        58.16073
670.39        58.25888
670.82        58.35418
671.24        58.40656
671.67        58.40961
672.09        58.34026
672.52        58.25495
672.94        58.25074
673.37        58.32385
673.80        58.35249
674.22        58.33348
674.65        58.31734
675.07        58.31471
675.50        58.27265
675.92        58.20083
676.35        58.12986
676.77        58.06868
677.20        58.00653
677.62        57.96113
678.05        57.95703
678.47        57.98777
678.90        58.06781
679.32        58.16964
679.75        58.19837
680.17        58.12931
680.60        58.22327
681.02        58.09009
681.45        58.10404
681.87        58.18022
682.30        58.25932
682.72        58.34092
683.15        58.47514
683.57        58.63317
684.00        58.61286
684.42        58.45763
684.85        58.49879
685.27        58.57881
685.70        58.71239
686.12        58.79334
686.54        58.80105
686.97        58.72236
687.39        58.57368
687.82        58.38707
688.24        58.25844
688.66        58.21696
689.09        58.11063
689.51        58.18091
689.94        58.22894
690.36        58.31711
690.78        58.42353
691.21        58.53302
691.63        58.60708
692.06        58.63755
692.48        58.64925
692.90        58.61881
693.33         58.5173
693.75        58.34807
694.17        58.09518
694.60        57.87107
695.02        57.84733
695.44        58.02208
695.87        58.40211
696.29          58.825
696.71        58.71825
697.14        58.19618
697.56        58.05695
697.98        58.32921
698.41         58.4245
698.83        58.33371
699.25        58.46028
699.68        58.71308
700.10        58.79234
700.52        58.64426
700.94        58.36892
701.37        58.08092
701.79        57.96794
702.21        58.06702
702.64        58.30389
703.06        58.57335
703.48         58.6925
703.90        58.61197
704.33        58.39052
704.75        58.11693
705.17        57.92463
705.59        57.86336
706.01        57.89551
706.44        57.98166
706.86        58.08804
707.28        58.18562
707.70        58.24741
708.12        58.30349
708.55        58.47318
708.97        58.71439
709.39        58.79582
709.81        58.70897
710.23        58.65874
710.66        58.65432
711.08        58.58385
711.50        58.45604
711.92        58.36163
712.34        58.31521
712.76        58.30552
713.19        58.30597
713.61        58.30314
714.03        58.28132
714.45         58.2556
714.87        58.26555
715.29         58.3714
715.71        58.57399
716.13        58.83628
716.56        59.08252
716.98        59.26618
717.40        59.32756
717.82        59.29033
718.24        59.16402
718.66        58.96645
719.08        58.73125
719.50        58.47853
719.92        58.26533
720.34        58.17355
720.76        58.21754
721.19        58.35529
721.61        58.57811
722.03        58.82113
722.45        59.04337
722.87        59.24411
723.29        59.36742
723.71          59.331
724.13        59.13238
724.55        58.80452
724.97         58.4409
725.39        58.20389
725.81        58.14176
726.23        58.19715
726.65        58.31712
727.07        58.53862
727.49        58.61845
727.91         58.7481
728.33        58.86823
728.75        58.98934
729.17         59.1058
729.59        59.19618
730.01         59.2554
730.43        59.28304
730.85        59.27662
731.27        59.23747
731.69        59.16373
732.10        59.04906
732.52        58.89945
732.94        58.74036
733.36        58.61043
733.78        58.45578
734.20        58.27889
734.62        58.30681
735.04        58.60387
735.46        58.17704
735.88        58.73993
736.30        58.87963
736.72        59.08955
737.13        59.26447
737.55        59.33925
737.97        59.50516
738.39        59.65766
738.81        59.27626
739.23        58.54691
739.65        58.47451
740.06        58.98627
740.48        59.19518
740.90        59.04672
741.32         59.0734
741.74         59.2809
742.16        59.39433
742.57        59.39701
742.99        59.34955
743.41         59.2665
743.83        59.15652
744.25         59.0329
744.67        58.88167
745.08        58.75688
745.50        58.72725
745.92        58.81004
746.34        58.98207
746.75        59.16518
747.17        59.21873
747.59        59.11862
748.01        58.90621
748.42        58.66716
748.84        58.54269
749.26        58.56774
749.68        58.68911
750.09        58.84218
750.51        58.93892
750.93        58.94143
751.35        58.86625
751.76        58.73401
752.18        58.60409
752.60        58.48996
753.01        58.38293
753.43        58.27598
753.85        58.19535
754.27         58.1503
754.68         58.1447
755.10        58.18261
755.52         58.2588
755.93        58.35936
756.35        58.48439
756.77        58.64807
757.18        58.73649
757.60        58.72599
758.02        58.87845
758.43        59.21119
758.85         58.5692
759.26        58.94083
759.68        58.65145
760.10        58.37267
760.51        58.47945
760.93        58.97968
761.34        58.86928
761.76        59.33126
762.18        59.27738
762.59        59.15145
763.01        59.11745
763.42        59.24585
763.84        59.24481
764.26        59.12361
764.67        59.06491
765.09         59.0914
765.50        59.03035
765.92         58.9271
766.33         58.8737
766.75         58.8237
767.16        58.77249
767.58        58.67469
768.00        58.55395
768.41        58.46845
768.83        58.45538
769.24        58.49612
769.66        58.63988
770.07        58.79936
770.49        58.59433
770.90        58.18924
771.32        58.42907
771.73        59.20922
772.15        59.53249
772.56        59.34592
772.97        59.17316
773.39        59.10661
773.80        59.07508
774.22        59.08783
774.63        59.20108
775.05        59.32251
775.46        59.37181
775.88        59.30086
776.29        59.15825
776.70        59.00552
777.12        58.95966
777.53        59.05658
777.95        59.22993
778.36        59.42453
778.77         59.5149
779.19        59.48012
779.60        59.37273
780.02         59.2283
780.43        59.13916
780.84        59.14189
781.26        59.06775
781.67        58.98302
782.09        59.26432
782.50        59.77634
782.91        59.83808
783.33        59.46583
783.74        59.31762
784.15        59.41624
784.57         59.3659
784.98        59.23041
785.39        59.28503
785.81        59.54291
786.22        59.93073
786.63        60.31186
787.04        60.46758
787.46        60.36715
787.87        60.06066
788.28        59.71174
788.70        59.55494
789.11        59.62053
789.52         59.8577
789.93        60.13395
790.35        60.22232
790.76         60.0757
791.17        59.76395
791.58        59.41711
792.00        59.18285
792.41        59.12464
792.82        59.30761
793.23        59.61948
793.65        59.59053
794.06        59.30959
794.47         59.4677
794.88        59.98845
795.29        60.18869
795.71         60.0101
796.12        59.94555
796.53        60.01316
796.94        59.83381
797.35         59.5168
797.76        59.65322
798.18         60.1502
798.59         60.3828
799.00        60.27549
799.41         60.1731
799.82        60.13235
800.23        60.09536
800.64        60.07738
801.06        60.05908
801.47        60.05349
801.88        60.00613
802.29        59.90398
802.70        59.76304
803.11        59.60451
803.52        59.44606
803.93        59.31362
804.34        59.25206
804.75        59.28053
805.17        59.31218
805.58        59.60678
805.99        59.84781
806.40        59.88608
806.81        60.49363
807.22        61.32108
807.63        61.10527
808.04        60.03524
808.45         59.5461
808.86        59.76717
809.27        59.93613
809.68        59.93755
810.09        59.93701
810.50         59.9016
810.91        59.78969
811.32        59.69746
811.73        59.77227
812.14        60.03511
812.55        60.44543
812.96        60.85023
813.37        60.96418
813.78        60.71983
814.19        60.22942
814.60        59.67953
815.01        59.31988
815.42        59.20959
815.83        59.28207
816.24        59.46555
816.65        59.61795
817.05        59.68557
817.46        59.68861
817.87        59.67747
818.28        59.68348
818.69         59.7195
819.10        59.75625
819.51         59.8013
819.92        59.88112
820.33        59.99075
820.74        60.11956
821.14        60.23306
821.55        60.26742
821.96        60.21214
822.37        60.09093
822.78        59.93449
823.19         59.7971
823.60        59.70175
824.00        59.65374
824.41        59.62125
824.82        59.63839
825.23        59.69748
825.64        59.79548
826.04        59.89891
826.45        59.91687
826.86        59.84631
827.27        59.71847
827.68        59.57638
828.08        59.51888
828.49        59.52923
828.90        59.59223
829.31        59.71514
829.72        59.91122
830.12        60.18631
830.53        60.48522
830.94         60.7252
831.35         60.7244
831.75         60.4687
832.16        60.00404
832.57        59.49977
832.97        59.20773
833.38        59.19511
833.79        59.36969
834.20        59.66454
834.60        59.96548
835.01        60.22343
835.42        60.50954
835.82        60.75366
836.23         60.7666
836.64        60.55121
837.04         60.1211
837.45        59.72162
837.86        59.81414
838.26        60.49543
838.67        61.59679
839.08        62.70841
839.48        63.05329
839.89        62.43767
840.29        61.15228
840.70        59.76753
841.11        58.93805
841.51        58.83854
841.92        59.25311
842.33        59.97916
842.73        60.65506
843.14        61.03137
843.54        61.25436
843.95         61.3699
844.35        61.49775
844.76        61.65381
845.17        61.77195
845.57        61.80026
845.98         61.6546
846.38        61.35407
846.79        60.94817
847.19        60.55145
847.60        60.31358
848.00        60.28369
848.41        60.39759
848.81        60.60223
849.22        60.73021
849.62        60.76234
850.03        60.72556
850.43         60.6517
850.84        60.53759
851.24        60.43133
851.65        60.26889
852.05        60.16382
852.46        60.22446
852.86        60.46493
853.27        60.84743
853.67         61.1739
854.07        61.26268
854.48        61.06048
854.88        60.63728
855.29        60.09707
855.69         59.7471
856.10        59.63104
856.50        59.74755
856.90        59.93821
857.31        59.94901
857.71        59.76223
858.12        59.39481
858.52        59.04871
858.92        58.95867
859.33         59.1653
859.73         59.6244
860.13        60.10641
860.54        60.25277
860.94        60.01785
861.34        59.50557
861.75        58.93691
862.15        58.71478
862.55        58.91903
862.96        59.37724
863.36        59.96003
863.76        60.37434
864.17        60.49729
864.57        60.46162
864.97        60.21979
865.38        59.69831
865.78        58.96365
866.18        58.03324
866.58        57.17757
866.99        56.88643
867.39        57.27739
867.79        58.17987
868.19        59.26023
868.60        59.97966
869.00        60.21677
869.40        60.09638
869.80        59.72427
870.21         59.3354
870.61        59.10598
871.01        58.91624
871.41        58.78383
871.81        58.74016
872.22        58.76696
872.62        58.87788
873.02        59.01406
873.42        59.03614
873.82        58.90736
874.22        58.65726
874.63        58.34041
875.03        58.08028
875.43        57.89769
875.83          57.756
876.23        57.64215
876.63          57.536
877.03        57.43264
877.44        57.32716
877.84        57.21497
878.24         57.1221
878.64        57.01234
879.04        56.71602
879.44        56.38596
879.84        56.39595
880.24        56.76225
880.64        57.32475
881.04        57.83178
881.44        57.90585
881.84        57.46544
882.24          56.642
882.65        55.74491
883.05        55.25098
883.45        55.29213
883.85        55.75036
884.25        56.39403
884.65        56.82338
885.05        56.90767
885.45        56.74699
885.85        56.53684
886.25        56.57338
886.65        56.91777
887.05        57.47261
887.45        57.99644
887.85        58.10702
888.25        57.72373
888.65        56.97253
889.04        56.17341
889.44        55.84255
889.84        56.07071
890.24         56.6996
890.64        57.39247
891.04        57.59255
891.44        57.18211
891.84        56.38525
892.24        55.50929
892.64         54.9998
893.04        54.98052
893.44        55.30764
893.83        55.86475
894.23         56.4188
894.63        56.87806
895.03         57.2745
895.43        57.60335
895.83        57.85583
896.23        58.01851
896.63        58.06385
897.02        57.93387
897.42        57.59031
897.82        57.06277
898.22        56.42545
898.62        55.82582
899.01        55.45993
899.41        55.38312
899.81        55.53086
900.21        55.81442
900.61        56.07851
901.00        56.25801
901.40        56.38025
901.80         56.4412
902.20        56.43758
902.59        56.39293
902.99        56.30375
903.39        56.20146
903.79        56.14607
904.18        56.14009
904.58        56.15337
904.98        56.22228
905.38        56.40469
905.77        56.69203
906.17        57.09145
906.57        57.40544
906.96         57.3094
907.36        56.75365
907.76        55.86178
908.15         55.0132
908.55        54.78942
908.95         55.3163
909.34        56.41825
909.74        57.66381
910.14        58.40236
910.53        58.40974
910.93        57.89779
911.33        57.09983
911.72        56.37547
912.12        55.91776
912.52        55.62848
912.91        55.46601
913.31        55.38799
913.70        55.36967
914.10        55.40505
914.49        55.57983
914.89        55.93983
915.29        56.48017
915.68        57.17435
916.08        57.73254
916.47        57.74947
916.87         57.1866
917.26        56.16892
917.66        55.16811
918.05        54.76853
918.45        55.08784
918.84         56.0004
919.24         57.0904
919.64        57.72852
920.03        57.73035
920.42        57.24984
920.82        56.66999
921.21        56.54087
921.61        56.97645
922.00        57.81387
922.40        58.70026
922.79        59.14705
923.19        58.98017
923.58        58.41972
923.98        57.72218
924.37        57.19392
924.77        56.94706
925.16        56.84322
925.55        56.87244
925.95        57.00777
926.34        57.21753
926.74        57.50327
927.13        57.71997
927.52        57.56007
927.92        57.03719
928.31        56.24659
928.70        55.45832
929.10        55.06859
929.49        55.15441
929.89        55.54869
930.28        56.18225
930.67        56.82663
931.07        57.33402
931.46        57.81508
931.85        58.06802
932.24        57.81927
932.64        57.10266
933.03        55.98756
933.42        54.90239
933.82        54.46559
934.21         54.8059
934.60        55.81648
934.99        57.09031
935.39        57.87066
935.78        57.95982
936.17         57.4664
936.56        56.80941
936.96        56.65777
937.35        57.14574
937.74        58.04421
938.13        58.85933
938.53        58.84694
938.92        57.89161
939.31        56.32169
939.70        54.67474
940.09        53.69882
940.49        53.54593
940.88        54.01253
941.27        54.81602
941.66        55.42844
942.05        55.65051
942.44        55.66132
942.84        55.56116
943.23        55.48828
943.62        55.50887
944.01        55.51398
944.40        55.56281
944.79        55.79845
945.18        56.20938
945.57        56.74934
945.97        57.17917
946.36        57.17331
946.75        56.63451
947.14        55.73182
947.53        54.70958
947.92        53.90316
948.31        53.42321
948.70        53.19875
949.09        53.20737
949.48        53.40468
949.87        53.73705
950.26        54.18729
950.65        54.69415
951.04        55.14824
951.43        55.49187
951.82        55.72969
952.21        55.78077
952.60        55.54591
952.99        55.06427
953.38        54.40785
953.77        53.81048
954.16        53.63962
954.55        53.95592
954.94        54.62366
955.33        55.44325
955.72        56.03859
956.11        56.25865
956.50        56.22616
956.89        55.89724
957.28        55.22624
957.66        54.30212
958.05        53.21174
958.44         52.3026
958.83        52.08278
959.22        52.60627
959.61        53.71672
960.00        55.03968
960.39        55.83807
960.78        55.84802
961.16        55.27582
961.55        54.39663
961.94        53.56215
962.33        52.91002
962.72        52.35212
963.11         51.9449
963.49        51.84564
963.88        52.02809
964.27        52.46468
964.66        53.07301
965.04        53.74295
965.43        54.37002
965.82        54.99405
966.21        55.40198
966.60        55.22938
966.98         54.4348
967.37         53.2338
967.76        52.07193
968.15        51.51281
968.53        51.66019
968.92        52.37774
969.31        53.39701
969.69        54.13854
970.08        54.30747
970.47        54.08046
970.86        53.72981
971.24        53.65912
971.63        53.97118
972.02        54.53514
972.40        55.17051
972.79        55.35286
973.17        55.00415
973.56        54.31343
973.95         53.5955
974.33        53.22806
974.72          53.295
975.11        53.66515
975.49        54.17158
975.88        54.45676
976.26        54.43122
976.65        54.15655
977.04         53.7708
977.42        53.45697
977.81         53.2406
978.19        53.05692
978.58        52.96453
978.96        53.00855
979.35        53.15939
979.74        53.41653
980.12        53.72758
980.51        53.79135
980.89        53.65287
981.28        53.36553
981.66        53.06546
982.05        52.90317
982.43        52.94431
982.82        53.13391
983.20        53.56761
983.59        54.34052
983.97        55.47643
984.35        56.88465
984.74        58.19207
985.12        59.01215
985.51        59.15517
985.89        58.74522
986.28        58.09257
986.66        57.60765
987.04        57.47712
987.43        57.57197
987.81        57.80068
988.20        57.89632
988.58        57.78829
988.96        57.50987
989.35        57.15258
989.73        56.83721
990.12        56.56374
990.50        56.31904
990.88        55.92687
991.27        55.13755
991.65        53.98826
992.03        52.66655
992.42        51.54936
992.80        51.10592
993.18        51.43116
993.56        52.39627
993.95        53.68395
994.33        54.80673
994.71        55.42975
995.10        55.72104
995.48        55.78389
995.86        55.92567
996.24        56.22482
996.63        56.38595
997.01        56.55149
997.39        56.74663
997.77        56.93323
998.15        57.26074
998.54        57.30885
998.92         56.3003
999.30        54.32922
999.68        51.72668
1000.06        49.52368
1000.45        49.17552
1000.83        51.02374
1001.21        54.74193
1001.59        59.32775
1001.97        62.26991
1002.35        62.52619
1002.73        60.88403
1003.12        58.52485
1003.50        56.93119
1003.88        56.59621
1004.26         56.8559
1004.64        57.80514
1005.02        59.58502
1005.40        61.90656
1005.78        64.85207
1006.16        67.03399
1006.54        66.23501
1006.92        62.38903
1007.30        56.38936
1007.69        50.43094
1008.07        47.49613
1008.45        48.41217
1008.83         52.5275
1009.21        58.54046
1009.59        63.00354
1009.97        64.10021
1010.35        62.74387
1010.73        59.92435
1011.11        57.18001
1011.49        55.15017
1011.86        53.35402
1012.24        52.02802
1012.62        51.56806
1013.00        51.95649
1013.38        53.27464
1013.76        55.10234
1014.14        56.18163
1014.52        55.96072
1014.90        54.72688
1015.28        53.13271
1015.66        52.16424
1016.04        52.06176
1016.41        52.53521
1016.79        53.34804
1017.17        54.10875
1017.55        54.60394
1017.93        54.93472
1018.31        55.17124
1018.69        55.39055
1019.06        55.64314
1019.44        55.93138
1019.82        56.05214
1020.20         55.6787
1020.58        54.75114
1020.95        53.33165
1021.33        52.12497
1021.71        51.80319
1022.09        52.46235
1022.46        54.23543
1022.84        56.20696
1023.22        56.19368
1023.60        53.58977
1023.97        49.03266
1024.35         45.0906
1024.73        44.66981
