SpectraSmart Spectrum 2.9.0.0
--------- Device Information -----------
Spectrum Name :  反射率_0
Saving Time :  2024/04/26 22:33:17
Spectro-Module Model Name : SE2030-DUVN
Spectro-Module Serial Number : OS361AC55029948
Wavelength Start : 200
Wavelength End : 1025
Wavelength Unit : Wavelength(nm)
Spectrum Unit : Reflectance(%)
-----------Spectrum Setting ------------
Integration Time : 20ms
Average : 10
Boxcar : 0
Background removal :  enabled
linearity correction :  enabled
SC :  disabled
Intensity correction :  disabled
DWT denoise :  enabled
savitzky-golay :  disabled
FFT :  disabled
Running average :  disabled
Kalman :  disabled
High pass :  disabled
---------------BEGIN--------------------
Wavelength(nm)             Reflectance(%)
200.29               0
200.75        47.36727
201.21        48.31396
201.67        48.86963
202.13        48.56951
202.58        47.32114
203.04        45.34223
203.50        43.01835
203.96         41.7729
204.42        42.65949
204.88         45.4819
205.34        49.19097
205.80        51.63528
206.26        51.94402
206.72        50.67273
207.18        48.74276
207.64        46.77273
208.10        44.76036
208.55        42.63983
209.01        39.71299
209.47        37.03722
209.93        36.24245
210.39        36.98508
210.85        38.92799
211.31        42.69661
211.77        49.86317
212.23         65.3659
212.69        103.2549
213.14        166.2753
213.60        162.4146
214.06          116.84
214.52        86.22811
214.98        72.52533
215.44        66.60481
215.90        62.99937
216.36        61.03728
216.81        60.51932
217.27        61.50896
217.73        65.50356
218.19        70.78757
218.65        69.29308
219.11         60.6623
219.57        51.09697
220.02        45.61566
220.48        46.66751
220.94        53.70882
221.40         67.5391
221.86         88.1537
222.32        103.2771
222.77        100.6683
223.23        87.90105
223.69        73.72189
224.15        63.23113
224.61        56.20021
225.06        50.78081
225.52        46.99784
225.98        44.62966
226.44        43.35865
226.90        43.17413
227.36        43.47961
227.81        43.28846
228.27        42.50311
228.73        41.18615
229.19        40.15294
229.65        40.39986
230.10        41.85672
230.56        44.20177
231.02        46.14082
231.48        45.67467
231.93         42.7274
232.39        38.54274
232.85        34.77209
233.31        33.53699
233.77        34.97543
234.22        38.28759
234.68        42.25366
235.14        45.05872
235.60        46.10915
236.05        45.93665
236.51        44.93459
236.97         43.9772
237.43        43.56827
237.88        43.49655
238.34        43.80585
238.80        44.87069
239.26        46.88945
239.71        50.40348
240.17        55.39653
240.63        61.29116
241.08        67.46606
241.54        73.25507
242.00        78.66848
242.46         84.8763
242.91        93.52222
243.37        104.5738
243.83        119.1183
244.28        134.0922
244.74        140.7769
245.20        137.1615
245.66        127.1603
246.11        114.7321
246.57        101.6931
247.03         87.4774
247.48        74.17072
247.94        67.21004
248.40        67.23807
248.85        70.47665
249.31        74.33246
249.77        76.61193
250.22        77.14243
250.68         76.3848
251.14        74.29774
251.59        71.53978
252.05        69.36874
252.51        68.14066
252.96         66.9416
253.42        65.18078
253.88        62.86161
254.33        60.15852
254.79        58.88132
255.25        60.09239
255.70        63.39105
256.16        68.20316
256.62        72.05265
257.07        71.42156
257.53         67.5713
257.99        62.68084
258.44        58.66616
258.90         57.4166
259.35         57.9402
259.81        59.60531
260.27        61.02577
260.72        60.59083
261.18        58.62593
261.63         55.7341
262.09        53.25373
262.55        52.09763
263.00        52.07644
263.46        52.78551
263.91        53.31675
264.37        52.82162
264.83        51.24762
265.28        49.03506
265.74        46.93661
266.19        45.57559
266.65        45.09073
267.11        45.11374
267.56        45.31155
268.02        45.17498
268.47        44.55929
268.93        43.69346
269.38        42.66405
269.84        41.64347
270.30        40.69102
270.75        39.71813
271.21        38.85878
271.66        38.27819
272.12        37.97421
272.57        37.86932
273.03        37.72021
273.48        37.11988
273.94        36.05902
274.39        34.67184
274.85        33.28096
275.31        32.19487
275.76        31.46835
276.22        31.03434
276.67         30.7444
277.13        30.46939
277.58        30.11296
278.04        29.72864
278.49        29.31057
278.95        28.95693
279.40        28.62145
279.86        28.32338
280.31        27.92864
280.77        27.35397
281.22        26.58419
281.68        25.74571
282.13        24.96156
282.59        24.46511
283.04        24.26086
283.50         24.2912
283.95        24.43776
284.41        24.51732
284.86         24.4709
285.32        24.36968
285.77         24.2553
286.22        24.24564
286.68        24.35676
287.13        24.50128
287.59        24.64384
288.04        24.69855
288.50        24.66241
288.95          24.545
289.41        24.37754
289.86        24.13883
290.32        23.88419
290.77        23.63243
291.22        23.44956
291.68        23.41615
292.13        23.54924
292.59        23.84753
293.04        24.31009
293.50        24.94541
293.95        25.72371
294.40         26.6317
294.86        27.60209
295.31         28.5249
295.77         29.3816
296.22        30.18568
296.68        31.00146
297.13        31.92334
297.58        32.98525
298.04        34.16169
298.49        35.41259
298.95        36.69049
299.40         37.9605
299.85        39.23371
300.31        40.51956
300.76        41.81392
301.21        43.12616
301.67        44.47814
302.12        45.82455
302.58        47.17152
303.03        48.49181
303.48        49.81333
303.94        51.21559
304.39        52.76334
304.84        54.48064
305.30        56.34767
305.75         58.2303
306.20        59.99806
306.66        61.62965
307.11        63.13261
307.57        64.59946
308.02         66.0881
308.47        67.63468
308.93        69.21014
309.38        70.76882
309.83        72.34341
310.29          73.936
310.74          75.544
311.19         77.0939
311.65        78.43328
312.10        79.51024
312.55           80.35
313.00        81.10238
313.46        82.01986
313.91        83.13528
314.36        84.40131
314.82        85.64291
315.27        86.58156
315.72        87.13409
316.18        87.41831
316.63        87.58195
317.08        87.90028
317.53        88.45317
317.99        89.15067
318.44        89.90907
318.89        90.56168
319.35        91.04705
319.80        91.41939
320.25        91.72252
320.70        92.02518
321.16        92.35117
321.61         92.7126
322.06        93.06705
322.51        93.36066
322.97        93.57236
323.42        93.72355
323.87        93.91946
324.32        94.34788
324.78        95.00246
325.23        95.89322
325.68         96.7428
326.13         97.0985
326.59        96.86434
327.04        96.20676
327.49        95.48069
327.94        95.27949
328.39        95.74879
328.85        96.68797
329.30        97.89039
329.75        98.74141
330.20        99.03301
330.66         98.9156
331.11        98.65462
331.56        98.60989
332.01        98.90832
332.46        99.41444
332.92        99.97145
333.37         100.475
333.82        100.8157
334.27        101.0914
334.72        101.3454
335.17        101.6212
335.63        101.9411
336.08        102.3318
336.53        102.8333
336.98        103.5625
337.43        104.5214
337.88        105.6448
338.34        106.7907
338.79         107.833
339.24        108.6452
339.69        109.2534
340.14        109.6292
340.59        109.7511
341.05        109.6893
341.50        109.4797
341.95        109.2911
342.40        109.3741
342.85        109.7974
343.30        110.4998
343.75        111.3916
344.20        112.3016
344.66        113.1432
345.11        113.9293
345.56        114.5993
346.01        115.0754
346.46        115.3653
346.91           115.5
347.36        115.5607
347.81        115.6976
348.26        115.9462
348.72        116.2516
349.17        116.6135
349.62        117.0591
350.07        117.5627
350.52        118.1406
350.97        118.5871
351.42         118.571
351.87        118.0657
352.32        117.1837
352.77        116.3076
353.22         116.006
353.67        116.3767
354.13        117.2463
354.58        118.2307
355.03         118.638
355.48        118.2889
355.93        117.3982
356.38        116.3595
356.83        115.7691
357.28        115.7507
357.73        116.0832
358.18        116.4578
358.63        116.3877
359.08        115.7444
359.53        114.7194
359.98        113.5228
360.43        112.4406
360.88        111.5649
361.33        110.8133
361.78        110.1303
362.23        109.4421
362.68        108.7331
363.13        108.0508
363.58        107.4255
364.03        106.8819
364.48         106.405
364.93        105.9488
365.38        105.4682
365.83        104.9102
366.28         104.264
366.73        103.5615
367.18        102.8041
367.63        101.9901
368.08        101.1411
368.53        100.2714
368.98        99.46258
369.43        98.83692
369.88        98.41198
370.33        98.15004
370.78        97.94422
371.23        97.61633
371.68        97.11281
372.13        96.47179
372.58        95.77309
373.03        95.15255
373.48        94.63824
373.93        94.17464
374.38        93.69653
374.83        93.10915
375.28        92.39622
375.72        91.59327
376.17        90.79903
376.62        90.04019
377.07        89.35463
377.52        88.75772
377.97        88.26363
378.42        87.90903
378.87        87.68345
379.32        87.52089
379.77        87.44524
380.22        87.49307
380.67        87.62904
381.11        87.86876
381.56        87.91551
382.01        87.38623
382.46        86.27856
382.91        84.79532
383.36         83.3893
383.81        82.68031
384.26        82.75105
384.71        83.38529
385.15        84.24249
385.60         84.7184
386.05        84.62311
386.50        84.13556
386.95        83.40009
387.40        82.65347
387.85         82.0076
388.29        81.34769
388.74        80.82146
389.19        80.43116
389.64        80.16738
390.09        80.03304
390.54        79.96186
390.98        79.80663
391.43        79.56895
391.88        79.26727
392.33        78.95858
392.78         78.6825
393.23        78.44437
393.67        78.32282
394.12        78.32256
394.57        77.98762
395.02        77.44817
395.47        77.42663
395.91        77.83578
396.36        77.84338
396.81        77.43482
397.26        77.08953
397.71        76.83332
398.15        76.56419
398.60        76.39868
399.05        76.05197
399.50         75.6536
399.95        75.95386
400.39         76.7102
400.84        76.51383
401.29        75.45945
401.74        74.92017
402.18        74.98878
402.63        74.83718
403.08        74.48067
403.53        74.31056
403.97        74.32293
404.42        74.40179
404.87        74.49883
405.32        74.50411
405.76        74.37501
406.21        74.28265
406.66        74.21771
407.11        73.94422
407.55        73.61895
408.00        73.71669
408.45        74.16114
408.90        74.40763
409.34        74.28776
409.79        73.80314
410.24        73.15735
410.68        72.81046
411.13        72.83407
411.58        72.97187
412.03        73.07623
412.47        73.05837
412.92        72.78181
413.37        72.38191
413.81          71.992
414.26        71.90786
414.71        72.14778
415.15        72.64738
415.60        73.21856
416.05        73.60932
416.49        73.73176
416.94        73.64751
417.39        73.46306
417.83        73.33387
418.28        73.31581
418.73        73.35326
419.17        73.42187
419.62        73.49213
420.07        73.53906
420.51        73.55772
420.96        73.56904
421.41         73.5297
421.85        73.42012
422.30        73.34933
422.74        73.24362
423.19        73.08072
423.64        72.84883
424.08        72.62409
424.53        72.50837
424.98        72.63055
425.42        73.00817
425.87        73.72692
426.31         74.5193
426.76        74.53653
427.21        73.89098
427.65        73.61015
428.10        73.74831
428.54        73.71976
428.99        73.60223
429.44        73.47991
429.88        73.48636
430.33         74.1963
430.77         75.2317
431.22         75.6433
431.66        75.35336
432.11         74.8528
432.56        74.40681
433.00        74.26448
433.45        74.59203
433.89        75.29226
434.34        75.68553
434.78        76.36963
435.23        75.53607
435.67         73.2454
436.12        74.05215
436.57        74.29308
437.01        75.10325
437.46        75.40537
437.90        75.16399
438.35        74.60902
438.79        74.56866
439.24        74.52475
439.68        74.66734
440.13        75.16713
440.57        75.87623
441.02        75.89124
441.46        75.33466
441.91        75.77385
442.35        76.81568
442.80        76.62875
443.24        75.47442
443.69        75.50112
444.13        76.60401
444.58        77.12201
445.02        76.97649
445.47        77.01414
445.91        77.29432
446.36        77.58775
446.80        77.87691
447.24        78.21192
447.69        78.52206
448.13        78.63506
448.58        78.58209
449.02         78.5102
449.47        78.47437
449.91         78.4076
450.36         78.3548
450.80        78.34975
451.25        78.41292
451.69        78.47435
452.13        78.53561
452.58        78.60312
453.02        78.65085
453.47        78.64348
453.91        78.56698
454.36        78.44434
454.80        78.27321
455.24        78.00938
455.69        77.67587
456.13        77.37972
456.58        77.22112
457.02        76.87328
457.46        76.58692
457.91        77.01736
458.35         77.8181
458.79        77.85807
459.24        77.16418
459.68        76.13014
460.13        75.10026
460.57        74.79771
461.01        75.48148
461.46        74.99123
461.90        75.89152
462.34        77.10024
462.79        76.99704
463.23        76.73651
463.68        76.96082
464.12        76.53924
464.56        75.89034
465.01        75.04788
465.45        74.22416
465.89        73.99776
466.34          74.258
466.78        74.55521
467.22        74.78696
467.67        74.46878
468.11         74.3474
468.55        74.40154
468.99        74.74545
469.44        74.73215
469.88        74.35999
470.32        74.02151
470.77        73.81152
471.21        73.70905
471.65        73.71986
472.10        73.84599
472.54        74.01745
472.98        74.06255
473.42        73.92845
473.87        73.89092
474.31        73.85572
474.75        73.26046
475.20        72.38842
475.64        72.33912
476.08        73.00919
476.52        73.18363
476.97        72.74103
477.41        72.60673
477.85        72.96515
478.29        72.50998
478.74        72.45401
479.18        73.68231
479.62        72.94819
480.06        73.07582
480.50        72.99754
480.95        72.80856
481.39        72.53619
481.83        72.42594
482.27        72.19672
482.72        72.65849
483.16        72.58802
483.60        72.51528
484.04        72.57071
484.48        72.82829
484.93        73.09454
485.37        72.30354
485.81        72.19324
486.25        71.49067
486.69        70.45602
487.14        73.99306
487.58        74.17603
488.02        73.11738
488.46        71.69964
488.90        71.61229
489.34        72.97108
489.79        73.65055
490.23        72.88895
490.67        72.22735
491.11        71.77295
491.55        71.65268
491.99        71.83115
492.43        71.77206
492.88        71.47756
493.32        71.42708
493.76        71.61687
494.20        71.76459
494.64        71.84093
495.08        71.88835
495.52        71.89835
495.96        71.95412
496.41        72.01722
496.85        71.88564
497.29        71.51871
497.73        71.50745
498.17        71.00269
498.61        70.99332
499.05        71.17997
499.49        71.48875
499.93        71.56956
500.37        71.67027
500.82        71.69987
501.26        71.60936
501.70        71.46327
502.14        71.47697
502.58        71.65332
503.02        71.77283
503.46        71.82306
503.90        71.96121
504.34        72.12569
504.78        72.11439
505.22        71.89116
505.66        71.57566
506.10        71.29839
506.54        71.02277
506.98        70.74143
507.42        71.18543
507.86        71.30334
508.30         70.9811
508.74        71.31184
509.18        71.20467
509.62        71.11443
510.06        71.07104
510.50        71.10805
510.94        71.17033
511.38        71.22798
511.82        71.27663
512.26        71.30541
512.70        71.32668
513.14        71.33562
513.58        71.32104
514.02        71.28595
514.46        71.23087
514.90         71.1861
515.34        71.20198
515.78        71.28306
516.22        71.41059
516.66          71.536
517.10        71.58034
517.54        71.52717
517.98        71.40453
518.42        71.25234
518.86        71.13689
519.30        71.07782
519.74        71.05103
520.18        71.05014
520.62         71.0619
521.06        71.08144
521.50         71.1278
521.93        71.17503
522.37        71.15639
522.81        71.07418
523.25        70.93365
523.69        70.81518
524.13        70.84827
524.57        71.04284
525.01        71.34856
525.45        71.63594
525.89        71.69554
526.32        71.47904
526.76        71.08241
527.20        70.62782
527.64        70.31242
528.08        70.19431
528.52        70.21344
528.96        70.32066
529.40         70.4376
529.83         70.5267
530.27        70.61919
530.71        70.69326
531.15        70.71825
531.59        70.69196
532.03        70.61168
532.46        70.49496
532.90        70.42763
533.34        70.41466
533.78        70.39786
534.22        70.36184
534.66        70.36665
535.09        70.35427
535.53        70.17313
535.97        69.86358
536.41        69.67104
536.85        69.62101
537.28        69.58481
537.72        69.57167
538.16        69.64875
538.60        69.80558
539.04        70.01883
539.47          70.212
539.91        70.31384
540.35        70.29283
540.79        70.17335
541.22         70.0148
541.66        69.93862
542.10        69.96354
542.54        70.05429
542.97        70.14543
543.41        70.16619
543.85        70.09033
544.29        69.96107
544.72        69.80636
545.16         69.7048
545.60        69.66373
546.04        69.67377
546.47        69.73683
546.91        69.83593
547.35        69.96094
547.79        70.13708
548.22        70.31599
548.66         70.3895
549.10        70.41352
549.53        70.36577
549.97        70.27856
550.41        70.07289
550.84        69.84858
551.28        69.77805
551.72        69.80692
552.15        69.90867
552.59        70.15347
553.03        69.53448
553.46        70.14093
553.90        70.10777
554.34        70.03335
554.77        70.04919
555.21        69.97736
555.65        70.01174
556.08        70.06116
556.52        70.09772
556.96        70.09094
557.39        70.14864
557.83        70.23465
558.27        70.04434
558.70        69.63541
559.14        69.46884
559.57        69.51712
560.01        69.41544
560.45        69.23161
560.88        69.32147
561.32        69.66468
561.75        70.01582
562.19        70.25451
562.63        70.10078
563.06         69.6726
563.50        69.50604
563.93        69.58733
564.37        69.74627
564.80        69.92432
565.24        69.82618
565.68        69.33213
566.11        69.99615
566.55        69.31564
566.98        69.08471
567.42        68.75026
567.85        68.90691
568.29        69.48666
568.72        69.85188
569.16        70.00419
569.60        70.23418
570.03        70.26513
570.47        70.34942
570.90        70.50403
571.34        69.86491
571.77        70.03227
572.21        70.81456
572.64        70.16238
573.08        70.84262
573.51        69.96227
573.95        69.84083
574.38        70.03967
574.82        70.31728
575.25        70.00604
575.69        70.24593
576.12        70.71457
576.56        69.93718
576.99        69.91219
577.42        69.50136
577.86        70.04885
578.29        70.67023
578.73        70.61383
579.16        70.73637
579.60        70.38516
580.03        70.21465
580.47        70.21227
580.90        70.85886
581.33         70.7534
581.77        70.83657
582.20        69.58858
582.64        70.97762
583.07        70.97665
583.51        70.67486
583.94        70.54246
584.37        70.29153
584.81        70.30888
585.24        70.19296
585.68        70.04491
586.11        69.80183
586.54        70.54813
586.98        69.86311
587.41         69.3279
587.85        69.63187
588.28        69.49354
588.71        69.70917
589.15        69.48062
589.58         69.8279
590.01        70.00507
590.45        69.38888
590.88        70.30258
591.31        70.15928
591.75        69.80551
592.18        69.26623
592.61        68.75353
593.05        69.70213
593.48         69.8973
593.91        70.38521
594.35        70.31713
594.78        69.74725
595.21         68.9101
595.65        69.09159
596.08        70.31926
596.51        70.61728
596.94        69.90155
597.38        69.57697
597.81        69.56723
598.24        70.55674
598.68        69.97881
599.11        69.51753
599.54         70.2616
599.97        69.84151
600.41        69.72712
600.84        69.18198
601.27        69.54186
601.70        69.34776
602.14        69.65237
602.57        69.40443
603.00        69.07526
603.43        68.62763
603.87        69.38456
604.30        69.78419
604.73        69.81789
605.16        69.14646
605.60        68.95741
606.03        68.55677
606.46         68.3064
606.89        68.66879
607.32        69.38411
607.76        68.64282
608.19        69.32892
608.62         69.2149
609.05        69.15166
609.48        69.08425
609.92        69.90727
610.35        69.71178
610.78        68.97627
611.21        69.28343
611.64        69.14533
612.07        69.41024
612.50        69.21819
612.94        69.16661
613.37        69.11049
613.80        68.94902
614.23        68.35371
614.66         68.3266
615.09        68.73775
615.52        69.00149
615.96        68.97131
616.39        69.10733
616.82        69.46395
617.25         68.5351
617.68        68.57132
618.11         68.6008
618.54        69.14276
618.97        69.30968
619.40        69.04458
619.84        68.91629
620.27        68.52334
620.70        68.61748
621.13        68.90631
621.56        68.53764
621.99        67.62444
622.42        67.34221
622.85        67.76765
623.28        67.91027
623.71        67.66099
624.14        68.33282
624.57         68.4556
625.00        68.34266
625.43        68.52472
625.86        68.41293
626.29        68.42968
626.72        67.76572
627.15        68.18545
627.58        68.25818
628.01        68.35612
628.44        68.29366
628.87        68.14584
629.30        67.67417
629.73        67.69125
630.16        67.93483
630.59        67.76128
631.02        67.98228
631.45        68.27467
631.88        68.47114
632.31        68.51504
632.74         68.4679
633.17        68.36865
633.60        68.26093
634.03        68.17148
634.46        68.08139
634.89        67.97887
635.32        67.86719
635.75        67.75339
636.18        67.57212
636.61        67.39053
637.04        67.35039
637.47        67.46298
637.89        67.68767
638.32        67.91023
638.75        67.97894
639.18        67.85325
639.61         67.6928
640.04        67.39564
640.47        67.29319
640.90        67.36347
641.33         67.5611
641.76        67.79671
642.18        67.93368
642.61        67.91154
643.04        67.78361
643.47        67.61588
643.90        67.51189
644.33        67.49901
644.76        67.54431
645.18        67.60876
645.61        67.60256
646.04        67.51449
646.47        67.42407
646.90        67.29435
647.33        67.22111
647.75         67.1662
648.18        67.17499
648.61        67.28153
649.04        67.27119
649.47         67.0882
649.89        67.84257
650.32         67.6473
650.75         67.6655
651.18        67.43446
651.61        67.26121
652.03        67.26147
652.46        67.55637
652.89        68.00307
653.32        68.09273
653.74        67.85719
654.17        67.26824
654.60        67.84687
655.03        67.49352
655.46        66.09538
655.88        66.26949
656.31        67.85996
656.74        66.15204
657.16        71.10924
657.59        76.93067
658.02        69.98467
658.45        69.29224
658.87        68.00556
659.30        67.74165
659.73        68.27382
660.15        69.15521
660.58         67.6646
661.01        67.41022
661.44         67.6027
661.86        67.31131
662.29        66.56786
662.72        66.87727
663.14         66.9436
663.57         67.1041
664.00        67.00388
664.42        67.12596
664.85        67.45857
665.27        67.73673
665.70        67.85203
666.13        67.82755
666.55        67.66306
666.98        67.28008
667.41        66.78141
667.83        66.77624
668.26        66.61335
668.69        66.80296
669.11        67.06223
669.54        67.26037
669.96        67.35367
670.39        67.37708
670.82        67.36124
671.24         67.3265
671.67        67.28719
672.09        67.21971
672.52        67.15782
672.94        67.11369
673.37        67.10004
673.80        67.11317
674.22        67.15301
674.65        67.17729
675.07        67.19291
675.50        67.19038
675.92        67.18039
676.35        67.16852
676.77        67.15842
677.20        67.14594
677.62        67.12286
678.05        67.07771
678.47        67.00888
678.90        66.92768
679.32        66.85258
679.75        66.82464
680.17        66.84841
680.60        66.91648
681.02        67.00205
681.45        67.06728
681.87        67.11404
682.30         67.1045
682.72        67.07981
683.15        67.15321
683.57        67.30666
684.00        67.31751
684.42        67.21783
684.85        67.24268
685.27        67.39094
685.70        67.54372
686.12        67.64964
686.54        67.69991
686.97        67.67778
687.39        67.59335
687.82        67.47192
688.24        67.37669
688.66        67.32272
689.09        67.29617
689.51        67.29802
689.94        67.28882
690.36        67.26115
690.78        67.24184
691.21        67.25781
691.63        67.25252
692.06        67.20923
692.48        67.48371
692.90        67.41692
693.33        67.42717
693.75        67.31686
694.17        67.14926
694.60         66.9958
695.02        66.87917
695.44        66.86347
695.87        67.16156
696.29        67.63366
696.71        67.65677
697.14         67.2606
697.56        67.01231
697.98        67.00263
698.41        66.98056
698.83        66.95431
699.25        67.12894
699.68        67.37962
700.10        67.47837
700.52         67.3672
700.94        67.09747
701.37        66.79502
701.79        66.83631
702.21        66.99435
702.64         67.3865
703.06         67.8069
703.48        68.04118
703.90        68.02382
704.33        67.82899
704.75        67.54324
705.17        67.28839
705.59        67.12499
706.01        67.02488
706.44        66.98943
706.86        67.05518
707.28        67.20589
707.70        67.38744
708.12        67.58898
708.55        67.87871
708.97        68.18752
709.39        68.26289
709.81        68.11709
710.23         68.0275
710.66        68.01875
711.08        67.95033
711.50        67.81452
711.92        67.69109
712.34        67.59329
712.76        67.51881
713.19        67.46561
713.61        67.46239
714.03        67.49777
714.45        67.57159
714.87        67.68914
715.29        67.85971
715.71        68.06936
716.13        68.29031
716.56        68.46822
716.98        68.60918
717.40         68.6641
717.82        68.64626
718.24        68.53921
718.66        68.31783
719.08        68.01179
719.50        67.66338
719.92        67.36625
720.34        67.25612
720.76        67.35699
721.19        67.60063
721.61          67.953
722.03        68.30109
722.45        68.58124
722.87         68.8008
723.29        68.90016
723.71        68.79322
724.13         68.4879
724.55        68.02836
724.97        67.53042
725.39        67.19343
725.81          67.078
726.23        67.11374
726.65        67.25333
727.07        67.55888
727.49        67.74586
727.91        68.02679
728.33        68.28639
728.75        68.45924
729.17        68.52486
729.59        68.48466
730.01        68.39137
730.43        68.34269
730.85        68.36009
731.27        68.40993
731.69        68.45493
732.10        68.43201
732.52        68.32674
732.94        68.18813
733.36        68.04916
733.78        67.82657
734.20        67.52979
734.62        67.43024
735.04        67.64802
735.46        67.11152
735.88        67.81414
736.30        68.10773
736.72         68.5192
737.13        68.85169
737.55         69.0014
737.97        69.19431
738.39        69.33495
738.81        68.89255
739.23         68.0839
739.65        67.99708
740.06        68.54575
740.48        68.75484
740.90          68.563
741.32        68.56051
741.74        68.76722
742.16        68.90072
742.57        68.94532
742.99        68.95649
743.41        68.92949
743.83        68.84293
744.25        68.70245
744.67        68.49907
745.08        68.30583
745.50        68.22054
745.92         68.2724
746.34        68.43368
746.75        68.61266
747.17        68.64484
747.59        68.50496
748.01        68.24349
748.42        67.96865
748.84        67.86686
749.26        67.97839
749.68        68.19798
750.09        68.43262
750.51        68.62861
750.93        68.69877
751.35        68.50484
751.76        68.12704
752.18        67.87093
752.60         67.7783
753.01        67.72179
753.43         67.6691
753.85        67.65576
754.27        67.67632
754.68        67.73071
755.10        67.81873
755.52        67.93094
755.93        68.04811
756.35         68.1583
756.77         68.2858
757.18        68.33186
757.60        68.28979
758.02        68.41254
758.43        68.70413
758.85        67.94621
759.26        68.46754
759.68        67.76678
760.10        67.67954
760.51        67.77101
760.93        68.28196
761.34         68.5333
761.76        68.49552
762.18        68.70812
762.59        69.17036
763.01        69.15984
763.42        69.18162
763.84        69.03149
764.26         68.8932
764.67        68.71046
765.09        68.55145
765.50        68.25603
765.92        67.96184
766.33        68.06264
766.75        68.41855
767.16         68.5597
767.58         68.3857
768.00        68.15125
768.41        67.99738
768.83        68.13333
769.24        68.48446
769.66        68.65236
770.07        68.59469
770.49        68.46837
770.90        68.38349
771.32        68.64689
771.73        69.16113
772.15        69.33485
772.56        69.14351
772.97        68.89039
773.39        68.69298
773.80        68.62922
774.22        68.70913
774.63        68.93929
775.05        69.17385
775.46        69.27061
775.88        69.15785
776.29        68.90292
776.70        68.61817
777.12        68.51373
777.53        68.64753
777.95        68.91096
778.36        69.21804
778.77        69.38565
779.19        69.37901
779.60        69.27733
780.02        69.10398
780.43        68.96692
780.84        68.92407
781.26        68.68085
781.67        68.38186
782.09        68.83952
782.50        69.78665
782.91        69.80601
783.33        68.99093
783.74        68.73027
784.15        69.08097
784.57        69.28613
784.98        69.29527
785.39        69.26918
785.81        69.25573
786.22        69.45464
786.63        69.81203
787.04        70.00008
787.46        70.00334
787.87        69.97321
788.28        69.95519
788.70        69.92496
789.11        69.88075
789.52        69.87296
789.93        69.86535
790.35        69.80141
790.76        69.68003
791.17        69.45461
791.58        69.24275
792.00        69.22217
792.41        69.36304
792.82        69.69016
793.23        70.02862
793.65        69.58848
794.06        68.70518
794.47        68.94899
794.88        70.07725
795.29        70.56923
795.71        70.08743
796.12         69.7942
796.53        69.76617
796.94        69.80676
797.35        69.95058
797.76         70.2553
798.18          70.598
798.59        70.81709
799.00        70.84427
799.41        70.71995
799.82        70.51934
800.23        70.38335
800.64        70.34964
801.06        70.33552
801.47        70.35457
801.88        70.34559
802.29        70.28104
802.70        70.17707
803.11         70.0335
803.52        69.84171
803.93         69.6424
804.34        69.47131
804.75        69.34389
805.17        69.39947
805.58        69.70955
805.99        69.80444
806.40         69.7831
806.81        70.78402
807.22        72.33261
807.63        72.16537
808.04          70.526
808.45        69.78576
808.86        70.12428
809.27        70.22308
809.68        69.97516
810.09         69.8505
810.50        69.84324
810.91        69.84277
811.32        69.88704
811.73        70.02222
812.14        70.24363
812.55        70.54158
812.96         70.8373
813.37        70.97414
813.78        70.90858
814.19        70.69376
814.60        70.41306
815.01        70.17835
815.42        70.02136
815.83        69.91788
816.24         69.8544
816.65        69.80471
817.05        69.77133
817.46        69.74627
817.87        69.75932
818.28         69.7982
818.69        69.85963
819.10        69.93016
819.51        70.02864
819.92        70.19364
820.33        70.41414
820.74        70.66026
821.14        70.86724
821.55        70.92883
821.96         70.8306
822.37         70.6166
822.78        70.34798
823.19        70.13053
823.60         70.0088
824.00        69.98002
824.41        70.01011
824.82        70.14297
825.23        70.35909
825.64        70.64793
826.04        70.92973
826.45        71.03414
826.86        70.94152
827.27        70.69733
827.68         70.3895
828.08        70.20404
828.49        70.14506
828.90        70.17888
829.31        70.28394
829.72        70.42162
830.12        70.58689
830.53        70.74001
830.94        70.81886
831.35        70.66821
831.75        70.29128
832.16        69.72447
832.57         69.1474
832.97        68.82259
833.38        68.81863
833.79        69.04446
834.20        69.41448
834.60        69.78387
835.01        70.09578
835.42        70.42502
835.82        70.72745
836.23        70.84917
836.64        70.79763
837.04        70.56306
837.45        70.34934
837.86        70.56368
838.26        71.29353
838.67        72.38453
839.08        73.44144
839.48        73.71153
839.89        73.01769
840.29        71.64454
840.70        70.21065
841.11        69.41868
841.51        69.44727
841.92        70.06531
842.33        71.00227
842.73         71.7709
843.14        72.06953
843.54        72.08312
843.95        71.93562
844.35        71.88545
844.76        71.98122
845.17        72.12025
845.57        72.19264
845.98        72.00864
846.38        71.56984
846.79        70.97516
847.19         70.3867
847.60        70.02194
848.00        69.95265
848.41        70.07383
848.81        70.34238
849.22        70.60034
849.62        70.81651
850.03         71.0125
850.43        71.13838
850.84        71.04424
851.24        70.76875
851.65         70.2887
852.05        69.85919
852.46        69.82666
852.86        70.26099
853.27        71.01853
853.67        71.78629
854.07        72.25255
854.48        72.31706
854.88        72.10611
855.29        71.65906
855.69        71.19357
856.10        70.73952
856.50        70.32294
856.90        69.96014
857.31        69.70266
857.71        69.61427
858.12        69.64006
858.52        69.77805
858.92         69.8832
859.33        69.89059
859.73        69.87069
860.13        69.77963
860.54        69.57946
860.94        69.32555
861.34        69.01396
861.75        68.73606
862.15        68.69361
862.55        68.89766
862.96        69.24567
863.36         69.6721
863.76        69.96796
864.17        70.04826
864.57        70.01065
864.97        69.79739
865.38        69.33266
865.78        68.67262
866.18        67.83448
866.58        67.07653
866.99        66.85368
867.39        67.28448
867.79        68.22034
868.19        69.30978
868.60        69.98889
869.00        70.13721
869.40        69.85442
869.80        69.35602
870.21        69.07685
870.61        69.21985
871.01        69.59204
871.41        69.93525
871.81        69.88872
872.22        69.38728
872.62        68.56599
873.02        67.70692
873.42        67.26977
873.82        67.38264
874.22        67.89423
874.63        68.51134
875.03        68.79366
875.43          68.603
875.83        68.07052
876.23        67.42378
876.63        67.00848
877.03        66.92455
877.44         67.0572
877.84          67.248
878.24        67.25056
878.64        66.97047
879.04        66.37144
879.44        65.76397
879.84        65.71293
880.24         66.2657
880.64        67.19051
881.04        68.06133
881.44        68.20762
881.84        67.48697
882.24        66.15021
882.65        64.67237
883.05        63.78269
883.45        63.69232
883.85        64.20506
884.25        65.04893
884.65        65.74571
885.05          66.117
885.45        66.29311
885.85        66.39159
886.25        66.59438
886.65        66.93982
887.05        67.31709
887.45        67.61874
887.85        67.70357
888.25        67.53279
888.65        67.17738
889.04        66.72272
889.44        66.31131
889.84        65.98853
890.24        65.74379
890.64        65.56454
891.04        65.42719
891.44        65.32554
891.84        65.26984
892.24        65.28844
892.64        65.40959
893.04        65.63705
893.44        65.97429
893.83        66.34785
894.23        66.59116
894.63         66.6808
895.03        66.60723
895.43        66.54034
895.83        66.77371
896.23        67.33202
896.63        68.10792
897.02        68.75337
897.42        68.73646
897.82        67.98675
898.22        66.75301
898.62         65.4386
899.01        64.63376
899.41        64.50206
899.81        64.83239
900.21        65.44804
900.61         66.0573
901.00         66.5138
901.40        66.88265
901.80        67.08329
902.20        66.97672
902.59        66.58627
902.99        65.96117
903.39        65.26699
903.79        64.79707
904.18        64.63582
904.58        64.70248
904.98        65.00559
905.38        65.54849
905.77        66.27765
906.17        67.20312
906.57        68.03381
906.96        68.28616
907.36        67.85981
907.76        66.89729
908.15        65.87167
908.55        65.53499
908.95        66.06165
909.34        67.23661
909.74        68.56029
910.14        69.27121
910.53        69.12596
910.93        68.40379
911.33        67.39352
911.72         66.5263
912.12        66.02319
912.52        65.74525
912.91        65.65453
913.31        65.72881
913.70        65.92666
914.10         66.2343
914.49        66.65842
914.89        67.09205
915.29        67.50495
915.68        67.91485
916.08        68.14372
916.47        67.99642
916.87        67.48891
917.26        66.67208
917.66        65.93262
918.05        65.71436
918.45        66.09662
918.84        66.99526
919.24        68.00294
919.64         68.5216
920.03        68.38784
920.42        67.74075
920.82        66.98044
921.21        66.68237
921.61        66.96336
922.00        67.67467
922.40        68.46099
922.79        68.83877
923.19        68.63962
923.58        68.09361
923.98        67.44868
924.37        66.99014
924.77        66.82082
925.16        66.77437
925.55        66.87194
925.95         67.1386
926.34        67.54126
926.74        68.06895
927.13        68.44476
927.52        68.15182
927.92        67.20222
928.31         65.7813
928.70        64.39539
929.10         63.7963
929.49        64.13042
929.89        65.11022
930.28        66.47482
930.67        67.63373
931.07        68.30705
931.46        68.72254
931.85        68.74603
932.24        68.23165
932.64        67.29462
933.03        65.96165
933.42        64.74344
933.82        64.39648
934.21        65.04652
934.60        66.53358
934.99        68.31593
935.39        69.37118
935.78        69.41968
936.17         68.6498
936.56        67.51656
936.96         66.7528
937.35        66.57749
937.74        66.78232
938.13        67.06565
938.53        66.98843
938.92        66.46095
939.31        65.68285
939.70        64.95477
940.09        64.67168
940.49        64.88154
940.88        65.47414
941.27        66.20706
941.66        66.64545
942.05        66.65524
942.44        66.38845
942.84         66.0455
943.23        65.92761
943.62        66.13223
944.01        66.53062
944.40        67.05684
944.79        67.62803
945.18        68.15942
945.57         68.6381
945.97        68.91403
946.36        68.84306
946.75        68.36943
947.14        67.61195
947.53        66.70432
947.92        65.82019
948.31        65.05714
948.70        64.41713
949.09        64.03497
949.48        64.12371
949.87        64.70073
950.26        65.66888
950.65        66.80611
951.04        67.73655
951.43        68.29929
951.82        68.53961
952.21        68.46578
952.60        68.13438
952.99        67.63425
953.38        67.00724
953.77        66.39326
954.16        66.01118
954.55        65.91545
954.94        66.04221
955.33        66.38456
955.72         66.8912
956.11        67.48073
956.50        68.14533
956.89        68.60951
957.28        68.43393
957.66        67.55916
958.05        66.18673
958.44        64.75146
958.83        63.87993
959.22        63.69843
959.61        64.04231
960.00        64.63902
960.39        64.96711
960.78        64.84555
961.16        64.43144
961.55        63.93378
961.94        63.58187
962.33        63.45369
962.72        63.47292
963.11        63.58066
963.49        63.72067
963.88        63.78903
964.27        63.82058
964.66        63.90906
965.04        64.21838
965.43        64.71474
965.82        65.38211
966.21        65.95407
966.60        65.94257
966.98         65.2261
967.37        64.04579
967.76        62.85085
968.15         62.1967
968.53        62.20056
968.92        62.74653
969.31        63.52301
969.69        63.91224
970.08        63.64638
970.47        62.92408
970.86        62.23291
971.24        62.27244
971.63        63.16668
972.02        64.72102
972.40        66.38892
972.79        66.84819
973.17        65.82721
973.56        63.83219
973.95        61.70689
974.33        60.52172
974.72        60.50179
975.11        61.31104
975.49        62.60771
975.88        63.64161
976.26         64.1385
976.65        64.27285
977.04        64.15688
977.42        63.93597
977.81        63.65557
978.19        63.20352
978.58        62.79833
978.96        62.79303
979.35        63.21873
979.74        64.04001
980.12        64.97346
980.51        65.24836
980.89        64.82121
981.28        63.91734
981.66        62.98673
982.05        62.64828
982.43        63.05259
982.82        63.97124
983.20        65.29517
983.59        66.69334
983.97        68.02302
984.35        69.30077
984.74        70.17694
985.12        70.33801
985.51        69.69304
985.89         68.3856
986.28        66.93169
986.66        66.03435
987.04         65.9403
987.43        66.46983
987.81        67.37367
988.20        67.99602
988.58        68.11316
988.96        67.81068
989.35        67.31477
989.73        66.95376
990.12        66.78959
990.50        66.75252
990.88        66.55292
991.27         65.7599
991.65         64.3812
992.03        62.66909
992.42        61.20665
992.80        60.72149
993.18        61.35818
993.56        62.93295
993.95        64.86124
994.33        66.16869
994.71         66.3719
995.10        65.82133
995.48        64.99282
995.86        64.73448
996.24        65.24607
996.63        66.07421
997.01        67.13469
997.39        67.91093
997.77        68.13033
998.15        68.11431
998.54        67.62011
998.92        66.11314
999.30        63.79327
999.68        60.92118
1000.06        58.54589
1000.45        58.15007
1000.83        60.08297
1001.21        64.04969
1001.59        69.00793
1001.97         72.3134
1002.35        72.81301
1002.73        71.22828
1003.12        68.82307
1003.50        67.20238
1003.88        66.90749
1004.26        67.32687
1004.64        68.30238
1005.02        69.51187
1005.40        70.62277
1005.78        71.85869
1006.16        72.61915
1006.54        71.86997
1006.92        69.64915
1007.30        66.42041
1007.69        63.26017
1008.07         61.5219
1008.45        61.64288
1008.83        63.22337
1009.21        65.86069
1009.59        68.35429
1009.97         69.8536
1010.35        70.61023
1010.73        70.32389
1011.11        68.66757
1011.49        66.00542
1011.86        62.66428
1012.24        59.67384
1012.62        58.36406
1013.00        58.96387
1013.38        61.22573
1013.76        64.61295
1014.14         67.5004
1014.52        68.90542
1014.90        69.05407
1015.28        68.37091
1015.66        67.63059
1016.04        67.09614
1016.41        66.51572
1016.79        65.76257
1017.17         64.8134
1017.55        63.72793
1017.93        62.66808
1018.31        61.86402
1018.69        61.49761
1019.06        61.61769
1019.44        62.27575
1019.82        63.13164
1020.20        63.41868
1020.58        62.85237
1020.95        61.49677
1021.33        60.31713
1021.71        60.40012
1022.09        61.92401
1022.46        64.95545
1022.84        68.28291
1023.22         68.9734
1023.60        66.11311
1023.97        60.67363
1024.35        55.70923
1024.73        54.67702
