SpectraSmart Spectrum 2.9.0.0
--------- Device Information -----------
Spectrum Name :  反射率_0
Saving Time :  2024/04/26 22:42:48
Spectro-Module Model Name : SE2030-DUVN
Spectro-Module Serial Number : OS361AC55029948
Wavelength Start : 200
Wavelength End : 1025
Wavelength Unit : Wavelength(nm)
Spectrum Unit : Reflectance(%)
-----------Spectrum Setting ------------
Integration Time : 20ms
Average : 10
Boxcar : 0
Background removal :  enabled
linearity correction :  enabled
SC :  disabled
Intensity correction :  disabled
DWT denoise :  enabled
savitzky-golay :  disabled
FFT :  disabled
Running average :  disabled
Kalman :  disabled
High pass :  disabled
---------------BEGIN--------------------
Wavelength(nm)             Reflectance(%)
200.29               0
200.75        54.13253
201.21        54.15155
201.67        54.70685
202.13        55.57457
202.58        56.64828
203.04         58.5477
203.50        61.19938
203.96        63.39265
204.42         64.2629
204.88        63.71976
205.34         62.2801
205.80        61.58029
206.26        61.93764
206.72        62.43289
207.18        63.04766
207.64        63.83632
208.10        65.03554
208.55        68.03214
209.01        71.37014
209.47        70.71839
209.93        65.75681
210.39        59.70564
210.85        56.84033
211.31        60.19132
211.77        71.67469
212.23        99.69197
212.69        167.9856
213.14        268.5609
213.60        238.9368
214.06        148.0616
214.52        93.95876
214.98        73.20548
215.44         67.9637
215.90        69.06569
216.36        73.05152
216.81        75.70076
217.27        75.87796
217.73        76.24919
218.19        76.23375
218.65        73.59251
219.11        69.83474
219.57        65.77374
220.02        65.00665
220.48          71.319
220.94        85.21464
221.40        109.2645
221.86         141.713
222.32        158.2827
222.77        141.4391
223.23        109.1406
223.69         79.9725
224.15        63.47191
224.61        56.85294
225.06        54.92383
225.52        55.33857
225.98         55.6876
226.44        55.39881
226.90         55.3108
227.36        55.04683
227.81        53.87995
228.27        52.04322
228.73        49.58635
229.19         47.5825
229.65        47.37145
230.10        48.87061
230.56        51.62521
231.02        54.34263
231.48        54.94168
231.93        53.14498
232.39        50.15914
232.85        47.24281
233.31        46.04485
233.77        46.74475
234.22        48.73253
234.68        51.32846
235.14         53.5965
235.60        55.22351
236.05        56.63643
236.51        57.78028
236.97        58.54171
237.43        58.91455
237.88        58.72542
238.34         58.5636
238.80        59.88806
239.26        63.30804
239.71        69.52747
240.17        77.47949
240.63        83.68695
241.08        85.85852
241.54        83.29744
242.00        79.28503
242.46        81.25652
242.91        94.30559
243.37        121.4665
243.83        164.9646
244.28        207.8416
244.74        221.2189
245.20        201.4186
245.66         169.263
246.11        146.7272
246.57         136.122
247.03        131.1721
247.48        127.1018
247.94        118.3851
248.40        107.2899
248.85         98.1067
249.31        92.35715
249.77        89.33197
250.22        88.03159
250.68        87.37184
251.14          87.629
251.59        89.60047
252.05        93.05767
252.51        97.64725
252.96        99.86392
253.42        97.36262
253.88        91.20808
254.33        82.88598
254.79        77.02803
255.25        77.21465
255.70        82.67651
256.16        91.60403
256.62        99.34238
257.07        99.11408
257.53        92.80943
257.99        84.73192
258.44        78.07082
258.90        75.64536
259.35         76.0759
259.81        78.19571
260.27        80.31326
260.72        80.49831
261.18        78.98192
261.63        76.34589
262.09        73.91782
262.55        72.41678
263.00        71.69751
263.46        71.55133
263.91        71.18291
264.37        70.03431
264.83        68.07929
265.28        65.65174
265.74        63.49906
266.19        62.15083
266.65        61.72609
267.11        61.84139
267.56        62.10013
268.02        61.90337
268.47        61.07311
268.93        59.86012
269.38        58.38643
269.84         56.9085
270.30        55.51567
270.75        54.12085
271.21          52.862
271.66        51.87919
272.12        51.18056
272.57        50.70036
273.03        50.24931
273.48        49.48703
273.94        48.41491
274.39        47.11089
274.85        45.82248
275.31        44.72887
275.76        43.84615
276.22        43.14532
276.67        42.52485
277.13        41.96545
277.58        41.37471
278.04        40.79619
278.49        40.15037
278.95        39.45544
279.40         38.6663
279.86        37.88334
280.31        37.06276
280.77        36.27274
281.22        35.49589
281.68        34.80033
282.13        34.21677
282.59        33.88905
283.04         33.7759
283.50         33.8494
283.95         33.9798
284.41        33.97989
284.86        33.79884
285.32        33.52444
285.77        33.22633
286.22        33.08184
286.68        33.12165
287.13        33.24052
287.59        33.39972
288.04        33.48779
288.50        33.49764
288.95         33.4356
289.41        33.32338
289.86        33.10807
290.32        32.84935
290.77        32.56031
291.22         32.3404
291.68        32.31659
292.13        32.51409
292.59        32.93585
293.04        33.54383
293.50        34.29029
293.95        35.14008
294.40        36.10329
294.86        37.18658
295.31        38.38809
295.77        39.70646
296.22        41.11007
296.68        42.57066
297.13        44.03401
297.58        45.50235
298.04        46.99358
298.49        48.54343
298.95        50.23134
299.40        52.04774
299.85        53.96023
300.31        55.91495
300.76        57.80342
301.21        59.61138
301.67        61.39188
302.12        63.13625
302.58        64.92981
303.03        66.74123
303.48        68.56926
303.94        70.44851
304.39        72.35731
304.84         74.3169
305.30        76.34444
305.75        78.33873
306.20        80.24068
306.66        82.05222
307.11         83.7476
307.57          85.408
308.02        87.04205
308.47        88.68268
308.93        90.32191
309.38        91.91068
309.83        93.50186
310.29        95.09984
310.74        96.68268
311.19        98.17995
311.65        99.44568
312.10        100.4234
312.55        101.1436
313.00        101.7373
313.46        102.4206
313.91        103.2255
314.36        104.1356
314.82         105.026
315.27        105.7086
315.72        106.1232
316.18        106.3613
316.63        106.5392
317.08        106.8887
317.53         107.465
317.99        108.1857
318.44         108.936
318.89        109.4976
319.35        109.8044
319.80        109.9225
320.25        109.9599
320.70        110.0933
321.16        110.3708
321.61        110.7867
322.06        111.2332
322.51        111.5433
322.97        111.6672
323.42        111.6649
323.87        111.7043
324.32        112.0804
324.78        112.8009
325.23         113.838
325.68        114.8481
326.13        115.2739
326.59        114.9846
327.04         114.192
327.49        113.2683
327.94        112.8346
328.39        113.0588
328.85        113.7265
329.30        114.7052
329.75        115.4757
330.20        115.8549
330.66        115.9661
331.11        115.9952
331.56        116.1562
332.01        116.5263
332.46        116.9831
332.92        117.4087
333.37        117.8069
333.82        118.0889
334.27        118.3304
334.72        118.5147
335.17        118.5866
335.63         118.561
336.08        118.5292
336.53        118.6383
336.98        119.1782
337.43        120.1892
337.88        121.5372
338.34          122.99
338.79        124.2804
339.24        125.2124
339.69        125.8569
340.14         126.155
340.59        126.0466
341.05         125.629
341.50        124.9501
341.95        124.3264
342.40        124.2392
342.85        124.7895
343.30        125.8458
343.75        127.1431
344.20        128.2097
344.66        128.8837
345.11        129.2775
345.56        129.4636
346.01        129.5793
346.46        129.7029
346.91        129.7954
347.36           129.9
347.81         130.112
348.26        130.4301
348.72        130.8109
349.17         131.223
349.62        131.6406
350.07        132.0285
350.52        132.4189
350.97        132.6174
351.42        132.3239
351.87        131.5384
352.32        130.3744
352.77        129.2672
353.22        128.8556
353.67        129.2363
354.13        130.2087
354.58        131.3043
355.03        131.6817
355.48        131.1286
355.93         129.909
356.38        128.4983
356.83        127.6171
357.28        127.4204
357.73        127.6452
358.18        127.9523
358.63        127.8064
359.08        127.0603
359.53        125.9276
359.98        124.6081
360.43        123.3649
360.88        122.2892
361.33        121.2964
361.78        120.3644
362.23        119.4819
362.68        118.6423
363.13        117.8715
363.58        117.1546
364.03        116.4406
364.48        115.7016
364.93        114.9277
365.38        114.1073
365.83        113.2442
366.28        112.3515
366.73        111.4369
367.18        110.5218
367.63        109.6333
368.08        108.7814
368.53        107.9705
368.98        107.1965
369.43        106.4434
369.88        105.7058
370.33        104.9854
370.78        104.2879
371.23        103.6314
371.68        103.0164
372.13         102.426
372.58        101.8462
373.03        101.2552
373.48        100.6353
373.93        99.98435
374.38        99.28477
374.83         98.5179
375.28        97.69306
375.72        96.80896
376.17        95.95961
376.62        95.16597
377.07        94.45448
377.52        93.84454
377.97        93.32337
378.42        92.87969
378.87         92.5024
379.32        92.14877
379.77         91.8781
380.22        91.78008
380.67        91.82688
381.11        92.00689
381.56        92.01928
382.01        91.47865
382.46        90.37143
382.91        88.90832
383.36        87.48523
383.81        86.63439
384.26        86.43698
384.71        86.70774
385.15        87.21368
385.60        87.53504
386.05         87.5209
386.50         87.2797
386.95        86.84299
387.40        86.27239
387.85        85.63137
388.29        84.86048
388.74        84.15658
389.19        83.58085
389.64        83.14524
390.09        82.82781
390.54        82.58607
390.98        82.31998
391.43        82.04787
391.88        81.78504
392.33        81.53899
392.78         81.3018
393.23        81.06917
393.67        80.84023
394.12        80.68606
394.57        80.44627
395.02        80.16454
395.47         80.0789
395.91        80.13197
396.36        79.96313
396.81        79.58161
397.26        79.19341
397.71        78.83344
398.15        78.49866
398.60         78.3016
399.05        78.01269
399.50        77.70637
399.95        77.87828
400.39        78.36842
400.84        78.18102
401.29        77.37677
401.74        76.98404
402.18        77.00832
402.63        76.60603
403.08        75.89541
403.53        75.54499
403.97        75.59141
404.42        75.76924
404.87        75.93169
405.32         75.9127
405.76        75.64873
406.21        75.24377
406.66        74.82362
407.11        74.55116
407.55        74.51571
408.00         74.7207
408.45        75.04796
408.90        75.16014
409.34        74.97586
409.79        74.64587
410.24        74.30004
410.68        74.07349
411.13        74.01978
411.58        74.09121
412.03        74.18345
412.47        74.13032
412.92        73.87618
413.37        73.51674
413.81        73.16962
414.26        73.07108
414.71         73.2319
415.15        73.60596
415.60        74.04183
416.05        74.35825
416.49        74.48823
416.94        74.46911
417.39        74.37494
417.83        74.31075
418.28        74.31604
418.73        74.35112
419.17        74.39878
419.62        74.44016
420.07        74.45656
420.51        74.43877
420.96        74.41774
421.41        74.35648
421.85        74.23116
422.30        74.18089
422.74        74.12013
423.19         73.9187
423.64        73.60995
424.08        73.49119
424.53        73.59378
424.98        73.77505
425.42        74.03905
425.87        74.49506
426.31          74.995
426.76          75.134
427.21        74.90981
427.65        74.57395
428.10        74.27083
428.54        74.17478
428.99        74.36877
429.44        74.57552
429.88          74.805
430.33        75.43925
430.77        76.16733
431.22        76.47167
431.66        76.27644
432.11        75.65942
432.56        74.89716
433.00        74.71671
433.45        75.30603
433.89        75.96164
434.34        76.05197
434.78         77.3394
435.23        76.90551
435.67         74.8505
436.12        75.61423
436.57        75.53941
437.01        75.96021
437.46        76.18944
437.90        75.97143
438.35        75.71487
438.79        75.89849
439.24        76.02217
439.68        76.18188
440.13         76.6571
440.57        77.30222
441.02         77.0825
441.46        76.22086
441.91        76.57092
442.35        77.72401
442.80        77.60661
443.24        76.49629
443.69        76.56721
444.13        77.71457
444.58        78.23972
445.02        78.07281
445.47        78.09234
445.91        78.36317
446.36        78.64113
446.80        78.91242
447.24        79.23821
447.69        79.56444
448.13        79.67291
448.58        79.75439
449.02        79.66012
449.47        79.50835
449.91        79.35475
450.36        79.25749
450.80         79.1829
451.25        79.16169
451.69        79.17992
452.13        79.24596
452.58        79.34573
453.02        79.46578
453.47         79.5871
453.91        79.67915
454.36        79.76685
454.80        79.83099
455.24         79.6019
455.69        79.05167
456.13        78.68951
456.58        78.77059
457.02        77.33043
457.46        77.71539
457.91        77.96033
458.35        78.63049
458.79        78.60499
459.24        77.88976
459.68        76.89617
460.13        75.99447
460.57        75.63301
461.01        75.96955
461.46        76.37091
461.90        77.13512
462.34        78.06638
462.79        78.07246
463.23        78.15625
463.68         77.9743
464.12        77.57845
464.56        77.00095
465.01        76.33948
465.45        75.72212
465.89        75.37308
466.34        75.25801
466.78        75.59038
467.22        76.30763
467.67        75.49619
468.11        75.60535
468.55        75.53033
468.99        75.91384
469.44        75.92957
469.88        75.57976
470.32        75.28494
470.77        75.10149
471.21        74.98303
471.65        74.93552
472.10        74.97691
472.54        75.05025
472.98        75.05245
473.42        74.96033
473.87        74.88644
474.31        74.76151
474.75        74.43031
475.20        74.05268
475.64        73.72173
476.08        74.08808
476.52        74.09866
476.97        73.87992
477.41        73.91135
477.85        74.28756
478.29        73.93253
478.74        74.00232
479.18        74.70288
479.62        74.19559
480.06         74.2099
480.50        74.07459
480.95        74.05663
481.39        74.18178
481.83        73.61875
482.27        73.77686
482.72        74.10223
483.16        73.85394
483.60        73.86198
484.04        74.00138
484.48        74.15524
484.93        74.01532
485.37         74.1115
485.81        73.56237
486.25        72.93286
486.69        72.16333
487.14        74.92542
487.58        74.74959
488.02        74.14332
488.46        73.22359
488.90        72.83932
489.34        74.10941
489.79        75.14341
490.23         74.2679
490.67        73.72552
491.11        73.24265
491.55        73.12453
491.99         73.3204
492.43        73.25906
492.88        72.96029
493.32        72.91923
493.76        73.11524
494.20        73.25484
494.64         73.3096
495.08        73.25057
495.52         73.1362
495.96        73.31052
496.41        73.66821
496.85        73.63998
497.29        73.16029
497.73        73.02889
498.17        72.42074
498.61        72.37096
499.05        72.57517
499.49        72.87934
499.93        72.94334
500.37        73.08598
500.82        73.21804
501.26        73.32477
501.70        73.38058
502.14        73.38954
502.58        73.27937
503.02        73.27296
503.46        73.35175
503.90        73.48152
504.34        73.59669
504.78        73.57487
505.22        73.36573
505.66        73.11687
506.10        72.94709
506.54        72.69557
506.98        72.32191
507.42        73.17442
507.86        72.78781
508.30        72.97251
508.74        72.98092
509.18        72.90787
509.62        72.77956
510.06        72.68631
510.50        72.67304
510.94        72.68851
511.38        72.71671
511.82        72.73071
512.26        72.72273
512.70        72.71046
513.14        72.70553
513.58        72.72205
514.02        72.76495
514.46        72.82365
514.90        72.89718
515.34        72.98833
515.78        73.08685
516.22        73.18017
516.66        73.24827
517.10        73.26071
517.54        73.21265
517.98        73.12199
518.42        72.99411
518.86        72.83842
519.30        72.67141
519.74        72.49848
520.18        72.36594
520.62        72.34041
521.06        72.43177
521.50        72.62475
521.93        72.85456
522.37        72.98894
522.81        73.00314
523.25        72.92165
523.69        72.81431
524.13        72.79789
524.57        72.88955
525.01        73.03891
525.45        73.17202
525.89        73.17123
526.32        73.00628
526.76        72.75416
527.20        72.46067
527.64        72.19901
528.08        72.00448
528.52        71.85574
528.96        71.78805
529.40          71.855
529.83        72.04453
530.27        72.34128
530.71        72.64062
531.15        72.77696
531.59        72.71299
532.03        72.50305
532.46         72.2294
532.90        72.04617
533.34        72.00325
533.78        72.08305
534.22        72.20732
534.66        72.28145
535.09        72.22541
535.53        71.95582
535.97        71.56593
536.41        71.36572
536.85        71.39575
537.28        71.49828
537.72        71.63416
538.16        71.79703
538.60        71.95528
539.04        72.11057
539.47         72.2198
539.91        72.25921
540.35        72.21035
540.79        72.10344
541.22        71.94481
541.66        71.86304
542.10        71.86226
542.54        71.92484
542.97        71.98978
543.41        71.99462
543.85        71.91094
544.29        71.76476
544.72        71.60187
545.16        71.52346
545.60         71.5388
546.04        71.66525
546.47         71.8352
546.91        71.88435
547.35        71.82887
547.79        71.78202
548.22        71.79025
548.66        71.96618
549.10        72.29013
549.53        72.32907
549.97        72.11539
550.41        71.89935
550.84        71.75375
551.28        71.71913
551.72        71.76908
552.15         71.7459
552.59        71.67305
553.03        71.66209
553.46        71.83589
553.90        71.88938
554.34        71.82924
554.77        71.84707
555.21        72.00504
555.65        71.69863
556.08        71.99994
556.52        71.99043
556.96        71.96424
557.39        72.00355
557.83        72.08181
558.27        71.88814
558.70        71.47142
559.14         71.3269
559.57        71.42812
560.01        71.34713
560.45        71.16261
560.88        71.36591
561.32        71.86764
561.75        72.16233
562.19        72.18707
562.63        71.90317
563.06        71.47845
563.50        71.49513
563.93         71.8605
564.37        72.00176
564.80        71.86097
565.24        71.70799
565.68        71.49059
566.11        71.63383
566.55        71.09032
566.98        70.92091
567.42        70.92281
567.85         71.0133
568.29        71.38146
568.72        71.77321
569.16        72.25391
569.60        72.34766
570.03         72.2344
570.47          72.372
570.90        72.69318
571.34        71.54499
571.77        71.99989
572.21        72.75478
572.64        72.45985
573.08        72.61373
573.51        71.99326
573.95        71.93526
574.38        72.43217
574.82        72.13114
575.25        71.74142
575.69        71.82494
576.12        72.56586
576.56        71.92218
576.99        71.64046
577.42        71.79594
577.86        71.81723
578.29         72.3653
578.73        72.43465
579.16        72.54624
579.60        72.08284
580.03        72.00358
580.47        72.06841
580.90        72.57345
581.33         72.7815
581.77        72.45483
582.20        71.98735
582.64        72.38027
583.07        72.79411
583.51        72.38246
583.94        72.24348
584.37        72.24741
584.81        72.09186
585.24        72.09019
585.68        72.03693
586.11        72.01688
586.54        72.46947
586.98         71.9183
587.41        70.90774
587.85        71.67497
588.28        71.22395
588.71        71.80639
589.15        71.00286
589.58        71.63141
590.01        71.63406
590.45        71.35445
590.88        72.29773
591.31        72.24676
591.75        71.90172
592.18        71.40128
592.61        70.94336
593.05        71.54348
593.48        71.92329
593.91        71.75212
594.35        72.11862
594.78        71.44872
595.21        70.91716
595.65        71.08302
596.08        72.19403
596.51        72.23624
596.94        71.76037
597.38        71.42329
597.81        71.32589
598.24        72.32138
598.68        71.73683
599.11        71.51333
599.54        71.99039
599.97        71.97334
600.41        71.77567
600.84        71.23765
601.27        71.71617
601.70        71.47395
602.14         71.7915
602.57        71.51764
603.00        71.25684
603.43        70.58911
603.87        71.43018
604.30        72.04457
604.73        72.06556
605.16        70.99229
605.60        71.30249
606.03         70.8261
606.46        70.37405
606.89         70.8083
607.32        71.68889
607.76        70.98418
608.19        71.48113
608.62        71.62672
609.05         71.1869
609.48        71.22487
609.92        72.38532
610.35        71.52853
610.78        70.90042
611.21         71.2469
611.64         71.1312
612.07        71.61519
612.50         71.6442
612.94        71.73352
613.37        71.67447
613.80        71.58801
614.23        70.89912
614.66        70.75233
615.09        71.16422
615.52        71.36405
615.96        71.30898
616.39        71.40302
616.82        71.68046
617.25        71.20831
617.68        71.14403
618.11        71.32003
618.54         71.2914
618.97        71.46522
619.40         71.5871
619.84        71.41952
620.27        71.42933
620.70        71.26933
621.13         71.0914
621.56        70.71178
621.99        70.22092
622.42        70.08585
622.85        70.32699
623.28        70.36437
623.71        70.16946
624.14        70.72787
624.57        70.80025
625.00        70.65263
625.43        70.93604
625.86        70.83484
626.29        70.67154
626.72        70.62448
627.15        70.58842
627.58        70.60082
628.01         70.5472
628.44        70.56578
628.87        70.69224
629.30        70.27493
629.73        70.17791
630.16        70.60513
630.59         70.3887
631.02          70.626
631.45        70.84818
631.88        71.00852
632.31        71.05886
632.74        71.03706
633.17        70.96673
633.60        70.85223
634.03        70.71453
634.46        70.55183
634.89        70.37883
635.32        70.23693
635.75        70.14264
636.18        70.01563
636.61        69.89754
637.04        69.89404
637.47        70.00763
637.89        70.19701
638.32        70.36343
638.75        70.41387
639.18        70.32252
639.61        70.11943
640.04        69.88824
640.47        69.76397
640.90        69.78164
641.33        69.90611
641.76        70.07343
642.18        70.18378
642.61        70.18376
643.04        70.11335
643.47        70.02383
643.90         69.9962
644.33        70.04797
644.76         70.1495
645.18        70.24915
645.61        70.24791
646.04        70.13604
646.47        69.95395
646.90        69.76723
647.33        69.66599
647.75        69.64804
648.18        69.74964
648.61        69.95966
649.04        69.99761
649.47        69.77216
649.89        70.39732
650.32        70.00693
650.75        69.97092
651.18        69.81209
651.61        69.89906
652.03        70.22218
652.46        70.31398
652.89         70.1296
653.32         70.2031
653.74        70.58411
654.17        69.86038
654.60        69.88594
655.03        70.18726
655.46        69.87833
655.88        69.67924
656.31        70.06898
656.74        68.66238
657.16        72.65728
657.59        76.84792
658.02        72.01763
658.45         71.5004
658.87        70.59792
659.30        70.60703
659.73        70.05405
660.15        71.60644
660.58        69.89658
661.01        69.77479
661.44        69.81561
661.86        69.63786
662.29        69.20879
662.72        69.67043
663.14        69.65969
663.57        69.65871
664.00        69.39837
664.42        69.49891
664.85        69.97614
665.27        70.50438
665.70        70.87808
666.13        70.97514
666.55        70.75652
666.98        70.19482
667.41        69.46223
667.83        69.28945
668.26        69.03532
668.69        69.20947
669.11        69.51252
669.54        69.77747
669.96        69.94117
670.39         70.1329
670.82         70.2102
671.24        70.28573
671.67        70.31448
672.09        70.27787
672.52        70.20818
672.94        70.12463
673.37        70.04735
673.80        69.96815
674.22        69.91303
674.65        69.87993
675.07        69.88818
675.50        69.92801
675.92        69.97044
676.35        69.95329
676.77        69.86766
677.20        69.72491
677.62        69.58218
678.05        69.53236
678.47        69.59076
678.90        69.73579
679.32         69.8915
679.75        69.95112
680.17        69.88797
680.60        69.73996
681.02        69.58562
681.45        69.55074
681.87        69.67716
682.30        69.89075
682.72        70.13139
683.15         70.3112
683.57        70.38277
684.00        70.24831
684.42        70.01195
684.85        69.95309
685.27        70.09745
685.70        70.33192
686.12         70.5435
686.54        70.60932
686.97        70.49345
687.39        70.25053
687.82        69.96838
688.24        69.80841
688.66        69.81001
689.09        69.92055
689.51        70.09084
689.94        70.20786
690.36        70.24437
690.78        70.22086
691.21        70.17329
691.63        70.14771
692.06        70.16375
692.48        70.21538
692.90        70.26002
693.33        70.23947
693.75        70.14063
694.17        69.95179
694.60        69.77159
695.02        69.75867
695.44        69.90617
695.87        70.19925
696.29        70.49905
696.71         70.3208
697.14        69.79874
697.56        69.64018
697.98        69.85379
698.41        70.11168
698.83        69.94989
699.25        70.13147
699.68        70.42619
700.10        70.54893
700.52        70.43808
700.94        70.19523
701.37        69.94451
701.79        69.88102
702.21        70.04109
702.64        70.33999
703.06        70.66613
703.48         70.8224
703.90        70.75538
704.33        70.53271
704.75        70.23759
705.17         69.9925
705.59        69.85357
706.01        69.78983
706.44        69.79813
706.86        69.90765
707.28        70.09715
707.70        70.31145
708.12         70.5325
708.55          70.823
708.97        71.11258
709.39        71.14136
709.81        70.94337
710.23        70.84155
710.66        70.86772
711.08        70.86577
711.50        70.79459
711.92        70.68413
712.34        70.53748
712.76        70.36993
713.19        70.20958
713.61        70.13735
714.03        70.15906
714.45        70.26121
714.87        70.43304
715.29        70.65865
715.71        70.91528
716.13        71.18201
716.56        71.40873
716.98        71.60876
717.40        71.72475
717.82        71.77377
718.24        71.73205
718.66        71.51848
719.08        71.15109
719.50        70.87505
719.92        70.45769
720.34        70.31202
720.76        70.36945
721.19        70.56729
721.61        70.88333
722.03        71.22743
722.45        71.54149
722.87        71.82498
723.29        71.99172
723.71        71.90931
724.13        71.57669
724.55        71.05312
724.97        70.48639
725.39        70.12807
725.81        70.05088
726.23        70.16419
726.65        70.39762
727.07         70.7841
727.49        71.01299
727.91        71.31343
728.33        71.56895
728.75        71.71959
729.17        71.74736
729.59        71.65048
730.01        71.48614
730.43        71.35909
730.85        71.29983
731.27        71.28725
731.69        71.28473
732.10        71.22569
732.52        71.09692
732.94         70.9426
733.36        70.81879
733.78        70.67722
734.20        70.51746
734.62        70.59296
735.04        70.96815
735.46        70.42574
735.88        71.04542
736.30        71.13689
736.72        71.29781
737.13        71.42811
737.55        71.46745
737.97        71.55988
738.39        71.64095
738.81        71.37653
739.23        70.91337
739.65        70.96038
740.06         71.4206
740.48        71.66818
740.90         71.6571
741.32        71.56647
741.74        71.79873
742.16        71.89006
742.57        71.95331
742.99        72.00101
743.41        72.02201
743.83        71.97475
744.25        71.85587
744.67        71.67284
745.08        71.50111
745.50        71.43554
745.92        71.50684
746.34        71.68634
746.75         71.8829
747.17        71.93291
747.59        71.80627
748.01        71.55499
748.42        71.28745
748.84         71.1622
749.26        71.21453
749.68        71.44682
750.09        71.64328
750.51        71.74875
750.93        71.68212
751.35        71.48641
751.76        71.22398
752.18        71.02118
752.60        70.90753
753.01        70.85876
753.43        70.82866
753.85        70.78122
754.27        70.71191
754.68        70.64981
755.10        70.63087
755.52        70.70018
755.93        70.85572
756.35        71.06448
756.77        71.31441
757.18         71.5112
757.60        71.63376
758.02        71.81996
758.43        72.03448
758.85        71.62116
759.26        71.80903
759.68        71.22262
760.10        71.21352
760.51        71.18269
760.93        71.47227
761.34         71.3372
761.76        71.98013
762.18        72.14865
762.59        72.24052
763.01        72.08916
763.42        72.24603
763.84         72.1764
764.26        72.04414
764.67        71.97803
765.09        71.97478
765.50        71.72924
765.92        71.36124
766.33        71.23455
766.75        71.30657
767.16        71.44381
767.58        71.37872
768.00        71.48888
768.41        71.69086
768.83        71.74287
769.24        71.62262
769.66        71.53632
770.07        71.50989
770.49        71.28741
770.90        71.04538
771.32        71.53736
771.73        72.55087
772.15        72.96739
772.56        72.69627
772.97        72.25867
773.39        71.87352
773.80        71.71165
774.22        71.83133
774.63        72.22318
775.05        72.66295
775.46        72.86758
775.88        72.72756
776.29        72.36551
776.70        71.95198
777.12        71.77964
777.53        71.93491
777.95        72.28304
778.36        72.69743
778.77        72.92664
779.19        72.91129
779.60        72.75115
780.02        72.51176
780.43        72.32906
780.84        72.26498
781.26        72.11413
781.67        71.96863
782.09        72.28898
782.50        72.92182
782.91        73.07264
783.33        72.74139
783.74        72.64734
784.15        72.80189
784.57        72.76628
784.98        72.59838
785.39         72.5935
785.81        72.77078
786.22        73.04856
786.63        73.33489
787.04        73.48312
787.46        73.47472
787.87        73.33787
788.28        73.16183
788.70        73.05988
789.11        73.04304
789.52        73.11132
789.93        73.21619
790.35        73.26892
790.76        73.25032
791.17        73.16636
791.58        73.08862
792.00        73.03371
792.41        73.01598
792.82        73.25217
793.23        73.59314
793.65        73.21092
794.06        72.37315
794.47        72.48117
794.88        73.35452
795.29        73.65194
795.71        73.23884
796.12        72.94973
796.53        72.91017
796.94        72.99905
797.35        73.24583
797.76        73.67596
798.18        74.12311
798.59        74.36916
799.00        74.33129
799.41        74.06764
799.82        73.70333
800.23        73.46066
800.64         73.4035
801.06        73.43534
801.47        73.54034
801.88        73.59258
802.29        73.55215
802.70         73.4658
803.11        73.35485
803.52        73.24446
803.93        73.16498
804.34        73.10928
804.75         73.0993
805.17        73.22443
805.58        73.53423
805.99        73.78206
806.40        73.94843
806.81        74.48638
807.22        75.13565
807.63        74.79445
808.04        73.69576
808.45        73.19917
808.86        73.44115
809.27        73.73551
809.68        73.90221
810.09         73.9469
810.50        73.81043
810.91        73.50095
811.32        73.21416
811.73        73.25877
812.14        73.69132
812.55        74.41309
812.96        75.17735
813.37        75.52124
813.78        75.30751
814.19        74.70512
814.60        73.94785
815.01        73.34743
815.42        72.99104
815.83        72.79338
816.24        72.72473
816.65        72.73326
817.05        72.79778
817.46        72.92274
817.87        73.10194
818.28        73.25822
818.69        73.37291
819.10        73.43565
819.51        73.48822
819.92        73.62289
820.33         73.8508
820.74        74.13287
821.14        74.39553
821.55        74.51783
821.96        74.47626
822.37        74.31045
822.78        74.09278
823.19        73.94436
823.60        73.90715
824.00        73.97852
824.41        74.06099
824.82        74.10352
825.23        74.07475
825.64        73.99506
826.04        73.91069
826.45        73.84817
826.86        73.83807
827.27        73.88706
827.68        73.94395
828.08        73.95119
828.49        73.84698
828.90        73.66349
829.31        73.53677
829.72          73.691
830.12        74.18411
830.53        74.88525
830.94        75.55908
831.35         75.7543
831.75        75.38049
832.16        74.55627
832.57         73.6047
832.97        73.01803
833.38          72.933
833.79        73.18833
834.20        73.61436
834.60        73.93465
835.01        74.06048
835.42        74.12694
835.82         74.1508
836.23         74.0692
836.64         73.9251
837.04        73.67381
837.45        73.49345
837.86        73.75517
838.26        74.52814
838.67         75.6688
839.08        76.76247
839.48        77.01973
839.89        76.25954
840.29        74.77515
840.70        73.23457
841.11        72.40668
841.51        72.48598
841.92         73.2317
842.33        74.33471
842.73        75.23141
843.14        75.59021
843.54        75.61394
843.95        75.47941
844.35        75.53468
844.76        75.84327
845.17        76.26958
845.57         76.6219
845.98        76.58172
846.38        76.11497
846.79        75.34666
847.19         74.5309
847.60        74.03078
848.00        73.95879
848.41        74.18581
848.81         74.5641
849.22        74.75116
849.62        74.69321
850.03        74.48402
850.43        74.24561
850.84        74.09881
851.24        74.13899
851.65        74.23566
852.05         74.4745
852.46        74.88589
852.86        75.42374
853.27        76.04754
853.67        76.51337
854.07         76.6113
854.48        76.29322
854.88        75.66367
855.29        74.84553
855.69        74.22565
856.10        73.87646
856.50        73.79726
856.90        73.89131
857.31        74.00142
857.71        74.11378
858.12        74.19608
858.52        74.28757
858.92        74.32409
859.33        74.27454
859.73        74.19408
860.13        74.01221
860.54        73.65813
860.94        73.19338
861.34        72.63535
861.75        72.16866
862.15        72.13129
862.55        72.55836
862.96        73.31701
863.36        74.18296
863.76        74.67206
864.17        74.62767
864.57        74.20696
864.97        73.56427
865.38        72.96362
865.78        72.53767
866.18        72.22031
866.58        72.02637
866.99        71.97937
867.39        72.10223
867.79        72.39789
868.19        72.82041
868.60        73.25772
869.00         73.6922
869.40        74.08547
869.80        74.41219
870.21        74.63885
870.61        74.80016
871.01        74.85313
871.41        74.71818
871.81        74.28277
872.22        73.55585
872.62        72.58897
873.02        71.64872
873.42        71.18112
873.82        71.30114
874.22        71.88956
874.63        72.61875
875.03         72.9691
875.43        72.79198
875.83        72.23723
876.23        71.57693
876.63        71.23933
877.03        71.33398
877.44        71.69713
877.84        72.14253
878.24        72.36324
878.64        72.22842
879.04         71.7327
879.44        71.12959
879.84         70.8791
880.24        71.04027
880.64         71.4393
881.04        71.77852
881.44        71.60187
881.84        70.83354
882.24        69.66982
882.65        68.49495
883.05        67.88423
883.45        67.99015
883.85        68.64648
884.25        69.58672
884.65        70.34729
885.05        70.75319
885.45        70.91344
885.85        70.95143
886.25        71.06826
886.65        71.31705
887.05        71.60545
887.45        71.83445
887.85        71.86877
888.25        71.67574
888.65        71.32082
889.04        70.91313
889.44        70.63154
889.84         70.5136
890.24        70.52879
890.64        70.58307
891.04        70.52256
891.44        70.31741
891.84        70.02102
892.24        69.75906
892.64        69.70957
893.04        69.90977
893.44        70.31775
893.83        70.80038
894.23        71.08412
894.63        71.11947
895.03        70.94704
895.43        70.76194
895.83        70.89618
896.23        71.39286
896.63        72.11574
897.02        72.75645
897.42        72.85191
897.82        72.32237
898.22        71.38856
898.62        70.33852
899.01        69.58256
899.41        69.26938
899.81        69.26227
900.21        69.51748
900.61        69.96013
901.00        70.50809
901.40         71.1553
901.80        71.75253
902.20        72.05273
902.59        72.01196
902.99        71.67464
903.39        71.16759
903.79        70.72525
904.18        70.42483
904.58        70.21916
904.98        70.13002
905.38        70.18269
905.77        70.36794
906.17        70.72373
906.57        71.08764
906.96        71.17991
907.36        70.93565
907.76        70.42976
908.15        69.97804
908.55        70.07038
908.95        70.80033
909.34        72.01606
909.74        73.26422
910.14        73.89051
910.53        73.69178
910.93        72.88979
911.33        71.81734
911.72        70.98034
912.12        70.60302
912.52        70.54836
912.91        70.65222
913.31        70.68687
913.70        70.58954
914.10        70.41248
914.49        70.35737
914.89        70.65088
915.29        71.34454
915.68        72.34083
916.08        73.25681
916.47        73.55235
916.87         73.1293
917.26        72.14407
917.66        71.08805
918.05        70.54313
918.45        70.65308
918.84         71.3036
919.24        72.11536
919.64        72.55895
920.03        72.48338
920.42        72.00839
920.82        71.51194
921.21        71.51828
921.61         72.1182
922.00        73.18372
922.40        74.26033
922.79        74.71567
923.19        74.35291
923.58        73.42634
923.98        72.39596
924.37        71.85711
924.77         71.9642
925.16        72.48199
925.55        73.15951
925.95        73.54215
926.34        73.49596
926.74        73.16425
927.13        72.62901
927.52        71.94213
927.92        71.23188
928.31        70.47811
928.70        69.86275
929.10        69.63992
929.49         69.8321
929.89        70.32109
930.28        71.03775
930.67        71.71524
931.07        72.20671
931.46        72.63851
931.85        72.84129
932.24         72.6199
932.64        72.03028
933.03        71.10034
933.42        70.26463
933.82        70.15068
934.21        70.86703
934.60        72.29778
934.99        73.92786
935.39        74.80453
935.78        74.70008
936.17        73.77225
936.56        72.57951
936.96        72.01759
937.35        72.29301
937.74        73.12228
938.13        73.96374
938.53        73.98463
938.92        73.03345
939.31        71.48601
939.70        69.85989
940.09        68.86401
940.49        68.64592
940.88         69.0015
941.27        69.72717
941.66        70.44318
942.05        70.97512
942.44        71.45535
942.84        71.84337
943.23        72.05624
943.62        72.11037
944.01        71.95316
944.40        71.77483
944.79        71.94515
945.18        72.50339
945.57        73.31763
945.97        74.02774
946.36        74.11837
946.75        73.43449
947.14        72.25009
947.53        70.86762
947.92        69.69008
948.31        68.87185
948.70        68.32027
949.09        68.11806
949.48        68.39831
949.87        69.13833
950.26        70.28459
950.65        71.56654
951.04        72.52197
951.43        72.98209
951.82        72.99463
952.21        72.70302
952.60        72.39179
952.99        72.18768
953.38        72.06949
953.77        71.97894
954.16        71.82205
954.55        71.58025
954.94         71.2633
955.33        71.07993
955.72        71.35835
956.11        72.13374
956.50        73.31192
956.89        74.36141
957.28        74.40675
957.66         73.2808
958.05        71.32458
958.44          69.286
958.83        68.23656
959.22         68.3875
959.61        69.45202
960.00        70.83845
960.39        71.44465
960.78        70.93536
961.16        69.66737
961.55        68.26071
961.94        67.50839
962.33        67.61352
962.72        68.35924
963.11        69.37086
963.49        69.98361
963.88        69.87568
964.27        69.25964
964.66        68.60535
965.04        68.62957
965.43        69.41093
965.82        70.76847
966.21        72.08488
966.60        72.20422
966.98         70.8424
967.37        68.56323
967.76        66.22808
968.15        64.87821
968.53        64.72245
968.92        65.47886
969.31        66.74212
969.69         67.6897
970.08        67.91212
970.47        67.66389
970.86        67.34973
971.24         67.5666
971.63        68.44408
972.02        69.76472
972.40        71.13509
972.79        71.55343
973.17        70.83255
973.56        69.37597
973.95        67.78844
974.33        66.81497
974.72        66.62534
975.11        66.96756
975.49        67.67173
975.88        68.31561
976.26        68.75047
976.65        69.05038
977.04        69.16069
977.42        68.95441
977.81        68.42289
978.19        67.58091
978.58        66.76877
978.96        66.53016
979.35        66.95039
979.74         67.8977
980.12        69.09965
980.51        69.79027
980.89        69.87175
981.28        69.56548
981.66        69.10664
982.05        68.81485
982.43         68.8119
982.82        68.92344
983.20        69.37795
983.59        70.47952
983.97        72.28152
984.35        74.63622
984.74        76.75411
985.12        77.54702
985.51        76.70905
985.89        74.63476
986.28        72.22334
986.66        70.75435
987.04        70.63509
987.43        71.49282
987.81        72.92387
988.20        73.95953
988.58         74.2342
988.96        73.93895
989.35        73.32819
989.73        72.74024
990.12        72.26911
990.50        71.82814
990.88        71.20564
991.27        70.14394
991.65        68.71066
992.03        67.11929
992.42        65.88015
992.80        65.60033
993.18        66.38735
993.56        68.07495
993.95        70.07581
994.33        71.42555
994.71        71.64259
995.10        71.09382
995.48        70.23328
995.86        69.88822
996.24        70.26472
996.63        70.89221
997.01        71.83537
997.39        72.82504
997.77        73.62257
998.15        74.45497
998.54        74.75079
998.92        73.49939
999.30        70.83991
999.68         67.1783
1000.06        63.92401
1000.45        63.08067
1000.83        65.12376
1001.21        69.66542
1001.59        75.35707
1001.97        78.87318
1002.35        78.84055
1002.73        76.22643
1003.12        72.78834
1003.50        70.77802
1003.88        70.84859
1004.26        72.19064
1004.64        74.28489
1005.02        76.05431
1005.40         76.8867
1005.78        77.29645
1006.16        76.99625
1006.54         75.4325
1006.92        72.82925
1007.30        69.49114
1007.69        66.53921
1008.07        65.42363
1008.45        66.58774
1008.83        69.69974
1009.21        74.06847
1009.59        77.70173
1009.97         79.3507
1010.35        79.36635
1010.73        77.93179
1011.11         75.4938
1011.49        72.57939
1011.86         69.2925
1012.24         66.3787
1012.62        64.72021
1013.00        64.44441
1013.38        65.43766
1013.76        67.40156
1014.14        69.33018
1014.52        70.60859
1014.90        71.33664
1015.28        71.65229
1015.66        71.93703
1016.04         72.3061
1016.41        72.53978
1016.79        72.54797
1017.17         72.3388
1017.55        71.93409
1017.93        71.47598
1018.31        70.97091
1018.69        70.31908
1019.06        69.52918
1019.44        68.57376
1019.82        67.66356
1020.20        67.31771
1020.58        67.63261
1020.95        68.24175
1021.33        68.87043
1021.71        69.03752
1022.09        68.69727
1022.46        68.19123
1022.84        67.21245
1023.22        65.47452
1023.60        63.22938
1023.97        60.49233
1024.35        58.77488
1024.73        59.68981
