SpectraSmart Spectrum 2.9.0.0
--------- Device Information -----------
Spectrum Name :  反射率_0
Saving Time :  2024/04/26 22:46:11
Spectro-Module Model Name : SE2030-DUVN
Spectro-Module Serial Number : OS361AC55029948
Wavelength Start : 200
Wavelength End : 1025
Wavelength Unit : Wavelength(nm)
Spectrum Unit : Reflectance(%)
-----------Spectrum Setting ------------
Integration Time : 20ms
Average : 10
Boxcar : 0
Background removal :  enabled
linearity correction :  enabled
SC :  disabled
Intensity correction :  disabled
DWT denoise :  enabled
savitzky-golay :  disabled
FFT :  disabled
Running average :  disabled
Kalman :  disabled
High pass :  disabled
---------------BEGIN--------------------
Wavelength(nm)             Reflectance(%)
200.29               0
200.75        41.69645
201.21        37.69594
201.67        34.41911
202.13        33.26258
202.58        34.17484
203.04        37.19782
203.50        42.22023
203.96        47.48386
204.42        51.38765
204.88        54.01692
205.34        54.96069
205.80         54.5173
206.26        53.11819
206.72        50.38427
207.18        48.00636
207.64        47.58725
208.10        49.27443
208.55        54.10448
209.01        60.10563
209.47         59.6328
209.93        51.53858
210.39        41.97084
210.85        36.09071
211.31        36.28299
211.77        43.25038
212.23        62.15437
212.69        111.4435
213.14        194.9668
213.60        192.2752
214.06        134.0319
214.52        93.89838
214.98        74.75636
215.44        65.03084
215.90        57.64196
216.36        52.08154
216.81        48.85515
217.27        48.23679
217.73        51.65261
218.19        57.58612
218.65        57.69246
219.11         50.6543
219.57        42.23001
220.02        37.68033
220.48        40.02293
220.94        49.06351
221.40        65.79066
221.86        90.01524
222.32        106.8235
222.77        102.2431
223.23         86.1076
223.69        68.81882
224.15         56.1901
224.61        47.88545
225.06        41.64162
225.52        37.74367
225.98        36.44093
226.44        37.21059
226.90        39.79836
227.36        42.70643
227.81        43.31966
228.27        41.39376
228.73        37.85379
229.19        34.57987
229.65        33.75802
230.10        35.43775
230.56        38.78053
231.02        42.22096
231.48        43.28611
231.93        41.57669
232.39        38.43277
232.85        35.28322
233.31        33.93709
233.77        34.61158
234.22        36.66084
234.68        39.25278
235.14        41.23782
235.60         42.2455
236.05        42.68484
236.51        42.83756
236.97        43.21702
237.43        44.05248
237.88        45.11098
238.34        46.35128
238.80        48.08977
239.26          50.555
239.71        54.33844
240.17        59.15728
240.63        64.01163
241.08        68.11746
241.54        70.69276
242.00        73.06142
242.46        78.75922
242.91        90.77737
243.37        111.0712
243.83        140.2422
244.28        165.0902
244.74        165.8358
245.20        142.5515
245.66        113.3879
246.11        94.41582
246.57        86.38951
247.03        84.55514
247.48        85.16396
247.94        82.66913
248.40        77.55312
248.85         72.9571
249.31        70.19852
249.77        69.30961
250.22        69.84709
250.68        70.96705
251.14         73.2562
251.59        77.49666
252.05        82.87923
252.51        88.84873
252.96        91.43601
253.42        87.96347
253.88        80.00007
254.33        69.55521
254.79        62.09941
255.25        62.06122
255.70        68.59695
256.16        79.50258
256.62        89.30759
257.07        89.93314
257.53        83.26387
257.99        74.36543
258.44        67.15335
258.90        64.87246
259.35        66.06004
259.81        69.17857
260.27        72.20839
260.72        72.77025
261.18        71.08129
261.63        68.05779
262.09        65.21187
262.55        63.49569
263.00        62.79755
263.46          62.768
263.91        62.62256
264.37        61.76799
264.83        60.14724
265.28        58.09145
265.74        56.24418
266.19        55.03833
266.65        54.58031
267.11         54.5282
267.56        54.57534
268.02        54.26811
268.47        53.46895
268.93        52.38371
269.38        51.06247
269.84        49.64104
270.30        48.18497
270.75        46.64999
271.21        45.23919
271.66        44.19384
272.12        43.54531
272.57        43.20969
273.03        42.92934
273.48        42.26344
273.94        41.19193
274.39        39.83613
274.85        38.53043
275.31         37.5936
275.76         37.0513
276.22        36.80382
276.67        36.64034
277.13        36.36674
277.58        35.87565
278.04         35.2713
278.49        34.57588
278.95        33.94412
279.40        33.35621
279.86        32.83199
280.31        32.27821
280.77        31.68073
281.22        31.00611
281.68        30.35348
282.13        29.75019
282.59        29.31122
283.04        29.01904
283.50        28.86177
283.95        28.78766
284.41        28.73246
284.86        28.66802
285.32        28.62778
285.77        28.61176
286.22        28.68776
286.68        28.85658
287.13        29.04743
287.59        29.22776
288.04        29.30545
288.50        29.28363
288.95        29.16496
289.41         29.0004
289.86        28.79138
290.32        28.60258
290.77        28.44577
291.22        28.37483
291.68        28.44587
292.13        28.67598
292.59        29.08609
293.04        29.69546
293.50        30.54443
293.95        31.60946
294.40        32.86135
294.86        34.22922
295.31        35.59682
295.77        36.93153
296.22          38.232
296.68        39.53146
297.13        40.87511
297.58        42.29146
298.04        43.77445
298.49        45.30978
298.95         46.8951
299.40        48.51344
299.85        50.17258
300.31        51.88646
300.76        53.64869
301.21        55.45989
301.67        57.32817
302.12        59.19113
302.58        61.04576
303.03        62.84371
303.48        64.62271
303.94        66.42828
304.39        68.26002
304.84        70.15308
305.30        72.11098
305.75        74.08531
306.20        76.09439
306.66        78.13804
307.11         80.1643
307.57        82.15027
308.02        83.95001
308.47        85.57085
308.93         87.0548
309.38        88.46288
309.83          90.016
310.29        91.75376
310.74        93.59889
311.19        95.39697
311.65        96.86128
312.10        97.90208
312.55         98.6106
313.00        99.16761
313.46        99.86308
313.91        100.7532
314.36        101.7812
314.82        102.8361
315.27        103.7544
315.72        104.4588
316.18        105.0303
316.63        105.4925
317.08        105.9331
317.53        106.3905
317.99        106.8278
318.44        107.2574
318.89        107.6737
319.35        108.0666
319.80        108.4437
320.25        108.8063
320.70        109.1526
321.16        109.4827
321.61         109.847
322.06        110.2029
322.51        110.4933
322.97        110.6936
323.42        110.8051
323.87        110.9635
324.32         111.418
324.78        112.1611
325.23        113.2058
325.68        114.1741
326.13        114.4447
326.59        113.9004
327.04        112.7769
327.49        111.5934
327.94        111.1985
328.39        111.7966
328.85        113.1109
329.30        114.8094
329.75        116.0037
330.20        116.3826
330.66        116.1526
331.11        115.6833
331.56        115.4988
332.01        115.7749
332.46        116.3166
332.92        116.8884
333.37        117.2852
333.82        117.3696
334.27        117.3079
334.72        117.2248
335.17        117.2786
335.63        117.5318
336.08        117.9859
336.53        118.6527
336.98        119.6098
337.43         120.823
337.88        122.2135
338.34        123.5985
338.79        124.8056
339.24        125.6798
339.69         126.257
340.14        126.4972
340.59        126.3747
341.05        125.9906
341.50        125.4018
341.95        124.8754
342.40        124.8037
342.85         125.274
343.30        126.1785
343.75        127.3187
344.20        128.3376
344.66        129.0958
345.11        129.6629
345.56        130.0381
346.01        130.2443
346.46        130.3299
346.91        130.2938
347.36        130.2255
347.81        130.2929
348.26        130.5178
348.72        130.8335
349.17        131.1956
349.62        131.5583
350.07        131.8809
350.52        132.2122
350.97         132.359
351.42        132.0174
351.87         131.191
352.32        129.9936
352.77        128.8763
353.22        128.5013
353.67        128.9707
354.13        130.0816
354.58        131.3358
355.03        131.8445
355.48        131.3719
355.93        130.1702
356.38        128.7612
356.83        127.9391
357.28        127.8708
357.73        128.2897
358.18        128.7409
358.63        128.5038
359.08        127.4131
359.53        125.7438
359.98        123.9221
360.43        122.5493
360.88        121.7645
361.33         121.377
361.78        121.0859
362.23        120.4265
362.68        119.3009
363.13        117.8936
363.58        116.4711
364.03        115.4204
364.48        114.8207
364.93        114.5133
365.38        114.2934
365.83        113.8523
366.28        113.0955
366.73        112.1268
367.18        111.0504
367.63        110.0164
368.08        109.0847
368.53        108.2207
368.98        107.3977
369.43        106.5769
369.88        105.7503
370.33        104.9388
370.78        104.1983
371.23        103.6145
371.68        103.1936
372.13        102.8906
372.58        102.5942
373.03        102.1306
373.48        101.4522
373.93        100.6012
374.38        99.66373
374.83        98.79652
375.28        98.04411
375.72        97.33422
376.17        96.68188
376.62        95.98627
377.07        95.24493
377.52        94.53864
377.97        93.86166
378.42        93.21313
378.87        92.61023
379.32        92.00496
379.77        91.55336
380.22        91.48866
380.67        91.79913
381.11        92.44558
381.56        92.96364
382.01        92.67073
382.46         91.4802
382.91        89.68761
383.36        87.89931
383.81         86.9567
384.26         86.9922
384.71        87.71713
385.15        88.70965
385.60         89.2338
386.05        89.06085
386.50        88.42107
386.95        87.51444
387.40         86.6539
387.85        85.97173
388.29        85.32199
388.74        84.81665
389.19        84.40285
389.64        84.06041
390.09        83.80751
390.54        83.61932
390.98        83.41503
391.43        83.20928
391.88        82.99174
392.33        82.76208
392.78        82.48688
393.23        82.16166
393.67         81.8751
394.12        81.69199
394.57        81.27478
395.02        80.75649
395.47        80.74948
395.91        81.14579
396.36        81.17245
396.81        80.79006
397.26        80.40424
397.71        80.11019
398.15        79.86297
398.60        79.77144
399.05        79.73058
399.50        79.67796
399.95        79.65051
400.39        79.61079
400.84        79.22256
401.29        78.58094
401.74        78.31275
402.18        78.34055
402.63        77.79705
403.08        76.87824
403.53        76.53912
403.97        76.81804
404.42        77.22232
404.87        77.54296
405.32        77.60001
405.76        77.31546
406.21        76.88195
406.66        76.40044
407.11        75.90124
407.55        75.58467
408.00        75.61857
408.45        75.95588
408.90        76.55213
409.34        77.04678
409.79        76.56187
410.24        75.39317
410.68        74.83493
411.13        74.99332
411.58        75.14503
412.03        75.14137
412.47         75.0839
412.92         74.9099
413.37        74.63551
413.81        74.36929
414.26          74.338
414.71        74.54819
415.15        74.96601
415.60        75.43168
416.05        75.74818
416.49         75.8452
416.94        75.75772
417.39        75.59134
417.83        75.49633
418.28         75.5211
418.73        75.62676
419.17        75.73116
419.62        75.70764
420.07        75.52528
420.51        75.21198
420.96        74.92062
421.41        74.78502
421.85        74.80143
422.30         75.0832
422.74        75.39233
423.19        75.28368
423.64        74.79049
424.08        74.49277
424.53        74.48773
424.98        74.53016
425.42        74.64587
425.87        75.08389
426.31        75.66399
426.76        75.71945
427.21        75.29966
427.65        75.04689
428.10        74.99113
428.54        74.86011
428.99        74.72555
429.44         74.4377
429.88        74.19739
430.33        74.82861
430.77        75.94367
431.22        76.46781
431.66        76.26023
432.11        75.71002
432.56        75.10262
433.00        74.89593
433.45        75.34393
433.89        76.22918
434.34        76.75675
434.78        78.02831
435.23        77.02809
435.67        74.73656
436.12        75.03593
436.57        75.12897
437.01        76.02358
437.46        76.29766
437.90        75.93472
438.35        75.32726
438.79        75.46748
439.24        75.49785
439.68        75.64355
440.13        76.13281
440.57        76.81718
441.02        76.77924
441.46        76.15837
441.91        76.52795
442.35        77.50417
442.80        77.30786
443.24        76.16418
443.69        76.09177
444.13        77.02045
444.58         77.4375
445.02        77.28419
445.47        77.37318
445.91        77.70725
446.36        77.95227
446.80        78.08139
447.24        78.20505
447.69         78.3077
448.13         78.2853
448.58         78.2585
449.02        78.16923
449.47        78.09392
449.91        78.17133
450.36        78.34453
450.80        78.24965
451.25        77.97279
451.69        77.85739
452.13        77.96175
452.58         78.1446
453.02        78.34314
453.47        78.48421
453.91        78.51768
454.36        78.49487
454.80        78.43592
455.24        78.18432
455.69        77.73972
456.13         77.5073
456.58        77.55486
457.02        76.50233
457.46        75.92507
457.91        76.17062
458.35        77.23521
458.79        77.42246
459.24        76.72307
459.68        75.87813
460.13        75.16889
460.57        74.92666
461.01        75.33809
461.46        75.10203
461.90        75.58273
462.34         76.6374
462.79        76.11176
463.23        76.26724
463.68        76.55553
464.12        76.34113
464.56        75.69294
465.01        74.84283
465.45        74.04119
465.89        73.82737
466.34        74.09803
466.78        74.49825
467.22        74.86832
467.67        74.35423
468.11        73.86515
468.55        73.91797
468.99        74.61792
469.44        74.76595
469.88        74.32927
470.32        74.02052
470.77        73.91817
471.21        73.82134
471.65        73.73624
472.10        73.72269
472.54        73.74709
472.98        73.73172
473.42          73.648
473.87        73.63342
474.31        73.59634
474.75        73.22283
475.20        72.65739
475.64        72.46649
476.08        72.67938
476.52        72.63638
476.97        72.25097
477.41        72.29377
477.85        72.93507
478.29        71.94584
478.74        72.48047
479.18        73.18452
479.62        72.52776
480.06        72.52901
480.50         72.4582
480.95        72.42282
481.39        72.41138
481.83        72.07207
482.27         72.0761
482.72        72.39308
483.16        72.27419
483.60        72.18008
484.04        72.46284
484.48        72.63775
484.93        72.51112
485.37        72.66663
485.81        71.82809
486.25        71.06836
486.69        71.27193
487.14        73.39027
487.58        72.85911
488.02        72.46912
488.46        71.75678
488.90        71.83649
489.34        72.59592
489.79        73.61151
490.23        73.02074
490.67        72.34035
491.11        71.42954
491.55        71.20361
491.99        71.59884
492.43        71.57147
492.88        71.11367
493.32        70.96032
493.76        71.14743
494.20        71.29849
494.64        71.37347
495.08        71.54896
495.52         71.7486
495.96        71.63845
496.41        71.28737
496.85        71.24796
497.29        71.37754
497.73        71.37357
498.17        70.42016
498.61        70.33752
499.05        70.81818
499.49        71.02917
499.93        70.67942
500.37        70.82809
500.82        71.33244
501.26        71.24559
501.70        70.59592
502.14        70.99592
502.58        70.94405
503.02        71.15231
503.46        71.15893
503.90        71.29585
504.34        71.48988
504.78        71.50457
505.22        71.32865
505.66        71.03214
506.10         70.7466
506.54        70.54858
506.98        70.45314
507.42        70.65613
507.86        71.14138
508.30        70.61162
508.74        71.04537
509.18        70.86453
509.62        70.71751
510.06        70.63138
510.50        70.64117
510.94        70.69445
511.38         70.7492
511.82        70.79806
512.26        70.82629
512.70        70.84776
513.14        70.86062
513.58        70.85718
514.02        70.83967
514.46        70.80493
514.90        70.77409
515.34        70.78507
515.78        70.83972
516.22        70.92097
516.66        70.99264
517.10         70.9983
517.54         70.9254
517.98         70.7933
518.42        70.63144
518.86        70.49115
519.30        70.39302
519.74        70.32433
520.18        70.29173
520.62        70.30424
521.06        70.35861
521.50        70.45396
521.93        70.56847
522.37        70.64211
522.81        70.66793
523.25        70.65131
523.69        70.61653
524.13        70.60783
524.57        70.63081
525.01        70.66426
525.45         70.6825
525.89        70.64481
526.32        70.53674
526.76        70.39936
527.20        70.24162
527.64        70.08198
528.08         69.9354
528.52        69.79879
528.96         69.7046
529.40        69.70145
529.83        69.78816
530.27        69.95513
530.71        70.13331
531.15        70.22017
531.59        70.19109
532.03        70.06722
532.46        69.89997
532.90        69.82308
533.34        69.85049
533.78        69.90469
534.22        69.93034
534.66        69.92918
535.09        69.83636
535.53        69.52699
535.97        69.08969
536.41        68.84004
536.85        68.82001
537.28         68.8784
537.72        68.98795
538.16        69.15582
538.60        69.35123
539.04        69.56649
539.47        69.74125
539.91        69.82983
540.35         69.8085
540.79        69.69151
541.22        69.53121
541.66        69.43986
542.10        69.43672
542.54        69.49651
542.97        69.56231
543.41        69.57375
543.85        69.50757
544.29        69.40054
544.72        69.27962
545.16        69.22451
545.60        69.23804
546.04        69.30202
546.47        69.40381
546.91        69.51642
547.35        69.61954
547.79        69.72079
548.22        69.79972
548.66        69.80676
549.10        69.81384
549.53        69.79691
549.97        69.76687
550.41        69.59188
550.84        69.35809
551.28        69.26597
551.72        69.27554
552.15        69.33319
552.59        69.50994
553.03        68.88328
553.46        69.54871
553.90        69.31565
554.34         69.4075
554.77        69.36022
555.21        69.41439
555.65        69.36415
556.08        69.51563
556.52        69.59296
556.96        69.63789
557.39        69.65191
557.83        69.62748
558.27        69.42632
558.70        69.09643
559.14        68.94415
559.57        68.94321
560.01        68.84564
560.45        68.70339
560.88        68.78007
561.32        69.06203
561.75        69.35948
562.19        69.59026
562.63         69.4904
563.06        69.15491
563.50        69.14402
563.93         69.3724
564.37        69.40692
564.80        69.24567
565.24        69.12259
565.68        68.64841
566.11           69.33
566.55        68.60574
566.98        68.47947
567.42        68.35485
567.85        68.52961
568.29        68.95473
568.72         69.3246
569.16        69.66909
569.60        69.74313
570.03        69.75678
570.47        69.85749
570.90        70.17643
571.34        69.10186
571.77          69.355
572.21        69.52926
572.64        69.81681
573.08        70.00713
573.51        69.39015
573.95        69.31463
574.38        69.76514
574.82        69.88431
575.25        69.04485
575.69        69.63056
576.12        70.10735
576.56        69.60928
576.99        68.97578
577.42        69.28601
577.86        69.37528
578.29        70.27029
578.73        70.03667
579.16        70.45348
579.60         69.3791
580.03          69.422
580.47         69.0634
580.90        70.17767
581.33         69.9583
581.77        69.93851
582.20        69.47086
582.64        70.56266
583.07        69.99646
583.51        70.00851
583.94        69.86115
584.37        69.70883
584.81        69.67713
585.24        69.57487
585.68        69.47841
586.11        69.60715
586.54        70.06844
586.98        69.19451
587.41        68.72501
587.85        69.29638
588.28        69.02279
588.71        69.41122
589.15        68.77946
589.58         69.0661
590.01         69.0022
590.45        68.69581
590.88        69.84744
591.31        69.88428
591.75        69.40986
592.18        68.79112
592.61        68.27357
593.05        69.08411
593.48        69.56856
593.91        69.72567
594.35        69.70806
594.78        68.96289
595.21        68.52404
595.65        68.73591
596.08        69.80393
596.51        69.89165
596.94        69.11745
597.38        68.73606
597.81        68.73734
598.24        69.63512
598.68        69.33254
599.11        68.74498
599.54        69.82523
599.97        69.51258
600.41        69.29256
600.84        68.76266
601.27        69.21107
601.70        68.89179
602.14        68.93069
602.57        68.83023
603.00         69.0641
603.43        68.25793
603.87         69.0305
604.30        69.37258
604.73        69.36283
605.16        68.42714
605.60        68.72222
606.03        68.22488
606.46        67.67016
606.89        68.07814
607.32        68.89537
607.76        68.33788
608.19        68.87585
608.62        68.64128
609.05        68.58572
609.48        68.50248
609.92        69.29054
610.35        69.06878
610.78        68.52232
611.21        68.28167
611.64        68.53024
612.07        68.81741
612.50        68.73275
612.94        68.77589
613.37         68.8074
613.80        68.52164
614.23        68.08314
614.66        67.85693
615.09        68.55815
615.52        68.62652
615.96        68.15293
616.39        68.60681
616.82        68.68478
617.25        68.01144
617.68        68.14519
618.11        68.15289
618.54         68.5085
618.97         68.5563
619.40        68.32911
619.84        68.16608
620.27        68.24177
620.70        68.21943
621.13        68.12865
621.56        67.78605
621.99        67.22797
622.42        67.10559
622.85        67.54193
623.28        66.90011
623.71        67.03852
624.14         67.5498
624.57        67.97249
625.00        67.49461
625.43        67.95714
625.86        67.92953
626.29        68.09643
626.72        67.35541
627.15         67.6797
627.58         67.5621
628.01        67.39757
628.44         67.8343
628.87        67.60941
629.30        66.94438
629.73        66.98734
630.16        67.23077
630.59        67.14324
631.02        67.45194
631.45        67.79617
631.88        68.02282
632.31        68.06261
632.74        67.97894
633.17        67.81964
633.60        67.64649
634.03          67.498
634.46        67.35432
634.89        67.22387
635.32        67.13867
635.75        67.10573
636.18        67.04906
636.61         66.9961
637.04        67.02602
637.47        67.13737
637.89        67.29784
638.32        67.41879
638.75        67.42455
639.18        67.29836
639.61        67.06515
640.04        66.82016
640.47        66.71568
640.90        66.78449
641.33        66.98485
641.76         67.2219
642.18        67.34286
642.61        67.28489
643.04        67.10542
643.47         66.8871
643.90        66.76523
644.33        66.77212
644.76        66.85788
645.18         66.9662
645.61        66.99049
646.04        66.91895
646.47        66.80281
646.90        66.67502
647.33        66.60445
647.75        66.59164
648.18        66.57535
648.61        66.62022
649.04        66.81779
649.47        66.98355
649.89        67.61983
650.32        66.95925
650.75        66.84454
651.18        66.84511
651.61        66.96999
652.03        67.18787
652.46        67.29202
652.89        67.22887
653.32        67.10905
653.74        67.11655
654.17        66.48671
654.60        67.34614
655.03        67.14508
655.46        66.79447
655.88        66.22662
656.31        67.16932
656.74         67.0908
657.16        70.53324
657.59        74.12477
658.02          68.922
658.45        68.73557
658.87        67.41437
659.30        67.16574
659.73        66.99538
660.15        67.84528
660.58        67.04958
661.01        66.99507
661.44        66.96525
661.86        66.62537
662.29        66.02811
662.72        66.41355
663.14        66.46428
663.57        66.49634
664.00        66.22284
664.42        66.29794
664.85        66.72698
665.27        67.18023
665.70        67.49665
666.13        67.48867
666.55        67.38531
666.98        66.92281
667.41        66.32094
667.83        66.24686
668.26        66.07538
668.69        66.28678
669.11        66.58343
669.54        66.81611
669.96        66.93498
670.39        66.98727
670.82        66.99567
671.24        66.98416
671.67        66.97053
672.09        66.86779
672.52        66.73781
672.94        66.78148
673.37        66.94763
673.80        66.89848
674.22        66.67534
674.65        66.59317
675.07        66.68362
675.50        66.74189
675.92        66.73946
676.35        66.70142
676.77        66.61822
677.20        66.50179
677.62         66.4112
678.05        66.28305
678.47        66.17612
678.90         66.2532
679.32         66.5666
679.75        66.05731
680.17        66.49315
680.60        66.45374
681.02        66.47218
681.45        66.51834
681.87        66.61641
682.30        66.69423
682.72        66.73586
683.15        66.81311
683.57        66.89313
684.00        66.77504
684.42        66.54056
684.85        66.49744
685.27        66.66065
685.70        66.88809
686.12        67.08588
686.54        67.17642
686.97        67.12691
687.39        66.97289
687.82        66.76796
688.24         66.6212
688.66        66.56168
689.09        66.55417
689.51        66.59222
689.94        66.63272
690.36        66.66669
690.78        66.69676
691.21        66.71982
691.63        66.71896
692.06        66.69691
692.48        66.66652
692.90        66.62309
693.33        66.56343
693.75        66.49987
694.17        66.40303
694.60        66.33095
695.02        66.39474
695.44         66.5817
695.87         66.8261
696.29        67.04591
696.71        67.00964
697.14        66.75925
697.56        66.58012
697.98        66.54622
698.41        66.53689
698.83        66.55342
699.25        66.74257
699.68        66.97971
700.10        67.04193
700.52        66.87112
700.94        66.55293
701.37        66.22892
701.79        66.13213
702.21        66.30621
702.64        66.65689
703.06         67.0659
703.48        67.32251
703.90        67.36165
704.33        67.25031
704.75        67.04788
705.17        66.84084
705.59        66.67792
706.01        66.53635
706.44        66.44328
706.86        66.47237
707.28        66.61755
707.70        66.83687
708.12        67.08763
708.55        67.33929
708.97        67.53745
709.39        67.55778
709.81        67.42833
710.23        67.34485
710.66        67.33327
711.08        67.31068
711.50        67.24406
711.92        67.14253
712.34        67.00975
712.76        66.86222
713.19        66.72894
713.61        66.69012
714.03        66.74798
714.45        66.88619
714.87        67.07617
715.29        67.27596
715.71        67.45998
716.13        67.61507
716.56        67.72077
716.98        67.84046
717.40        67.94006
717.82          68.013
718.24        68.00452
718.66        67.82944
719.08        67.50211
719.50        67.08378
719.92        66.69988
720.34        66.53493
720.76        66.62609
721.19        66.89138
721.61        67.27538
722.03        67.62923
722.45        67.88231
722.87        68.06027
723.29        68.12389
723.71         68.0183
724.13        67.75853
724.55         67.3707
724.97        66.96387
725.39        66.72841
725.81        66.71617
726.23        66.85976
726.65        67.08445
727.07        67.40921
727.49        67.54383
727.91        67.70704
728.33        67.83427
728.75        67.94816
729.17        68.04683
729.59        68.10752
730.01        68.11817
730.43        68.06772
730.85        67.95863
731.27        67.80375
731.69        67.62937
732.10        67.46867
732.52        67.33447
732.94        67.24144
733.36        67.20287
733.78          67.103
734.20         66.9272
734.62        66.95105
735.04        67.26496
735.46        66.75764
735.88        67.40567
736.30        67.57709
736.72        67.84002
737.13        68.07679
737.55        68.20969
737.97        68.46155
738.39        68.69676
738.81        68.28699
739.23        67.44248
739.65        67.33305
740.06        67.89052
740.48           68.11
740.90        67.93415
741.32        67.97554
741.74        68.22849
742.16        68.35218
742.57        68.32199
742.99        68.21747
743.41        68.07136
743.83        67.91542
744.25        67.77275
744.67        67.62475
745.08        67.51879
745.50        67.51196
745.92        67.61449
746.34        67.79523
746.75        67.99213
747.17        68.08691
747.59        68.05987
748.01        67.95871
748.42        67.81142
748.84        67.67408
749.26        67.59071
749.68        67.49391
750.09        67.41071
750.51        67.57433
750.93        67.85939
751.35        67.76891
751.76        67.35645
752.18         67.1081
752.60         67.0378
753.01        66.96062
753.43        66.89255
753.85        66.52203
754.27        66.68494
754.68        66.69657
755.10        66.78561
755.52        66.90405
755.93         67.0314
756.35        67.14668
756.77        67.29219
757.18        67.45736
757.60        67.63351
758.02        68.01131
758.43        68.46431
758.85         68.0331
759.26         68.0856
759.68        67.53933
760.10        66.92739
760.51        67.44139
760.93        68.09659
761.34        67.84969
761.76        68.10774
762.18        68.04465
762.59        68.30249
763.01        68.07774
763.42        68.54872
763.84        68.52325
764.26        68.34867
764.67        68.09121
765.09        67.87353
765.50         67.8055
765.92        67.85799
766.33        67.73512
766.75        67.40659
767.16        67.22424
767.58        67.20236
768.00        67.27579
768.41        67.45364
768.83        67.64251
769.24         67.7777
769.66        68.00557
770.07        68.23177
770.49        67.94504
770.90        67.37286
771.32        67.63062
771.73        68.58395
772.15        68.93462
772.56        68.61527
772.97        68.32291
773.39        68.18275
773.80        68.09518
774.22        68.07635
774.63        68.19861
775.05        68.34505
775.46        68.40393
775.88        68.31539
776.29        68.13723
776.70         67.9521
777.12        67.91765
777.53        68.07552
777.95         68.3327
778.36        68.61117
778.77        68.74252
779.19          68.701
779.60        68.56255
780.02        68.36396
780.43        68.22421
780.84        68.19659
781.26        68.01641
781.67        67.81163
782.09        68.25902
782.50        69.13377
782.91        69.27071
783.33        68.68549
783.74        68.44257
784.15        68.58083
784.57        68.46137
784.98        68.16872
785.39        68.13947
785.81         68.4015
786.22        68.82856
786.63        69.28497
787.04        69.55099
787.46        69.58254
787.87        69.43148
788.28        69.20477
788.70        69.04361
789.11        68.97464
789.52        68.98891
789.93        69.04541
790.35        69.07596
790.76        69.06461
791.17        68.99882
791.58        68.94083
792.00         68.9337
792.41        68.96362
792.82        69.15372
793.23        69.38995
793.65        68.98153
794.06        68.21973
794.47        68.46981
794.88        69.51287
795.29        69.90977
795.71        69.56028
796.12         69.2951
796.53        69.23727
796.94        69.21842
797.35        69.27351
797.76        69.45045
798.18        69.64863
798.59        69.75188
799.00        69.70732
799.41        69.55055
799.82        69.35712
800.23        69.26148
800.64        69.29356
801.06        69.37331
801.47        69.49561
801.88        69.56133
802.29        69.54034
802.70        69.46945
803.11        69.35752
803.52        69.21558
803.93        69.07603
804.34        68.94075
804.75        68.86699
805.17        69.00102
805.58         69.3965
805.99        69.78018
806.40        70.08004
806.81        70.67159
807.22        71.26831
807.63        70.77757
808.04        69.47536
808.45        68.81513
808.86         68.9616
809.27         69.1898
809.68        69.33974
810.09         69.4591
810.50        69.47948
810.91        69.39068
811.32         69.3103
811.73        69.42056
812.14        69.75024
812.55        70.23575
812.96        70.69868
813.37        70.81698
813.78        70.51615
814.19        69.93142
814.60        69.27428
815.01        68.82425
815.42        68.64658
815.83        68.66116
816.24         68.8055
816.65        68.95255
817.05        69.05286
817.46        69.13089
817.87        69.19383
818.28        69.19834
818.69        69.14587
819.10        69.01476
819.51        68.90831
819.92        69.02399
820.33        69.38927
820.74        69.93951
821.14        70.47962
821.55        70.69015
821.96        70.50523
822.37        70.01949
822.78        69.43044
823.19        69.07831
823.60        69.07138
824.00        69.34334
824.41        69.70814
824.82        69.94798
825.23        69.97406
825.64        69.85857
826.04        69.69268
826.45        69.57764
826.86        69.56676
827.27        69.62801
827.68        69.69951
828.08          69.715
828.49        69.60464
828.90        69.40932
829.31        69.24103
829.72        69.27745
830.12        69.57187
830.53        70.01542
830.94        70.42387
831.35        70.43717
831.75        69.99859
832.16         69.2142
832.57        68.37151
832.97        67.90193
833.38         67.9163
833.79         68.2585
834.20        68.77386
834.60        69.21286
835.01        69.48807
835.42        69.72064
835.82        69.88316
836.23        69.84673
836.64        69.64379
837.04        69.25826
837.45        68.93979
837.86        69.17046
838.26        70.04616
838.67        71.39375
839.08        72.74803
839.48         73.2196
839.89        72.58799
840.29        71.17963
840.70         69.6621
841.11        68.81553
841.51        68.84351
841.92          69.486
842.33        70.48724
842.73         71.3847
843.14         71.8677
843.54        72.11494
843.95        72.18067
844.35        72.20898
844.76        72.23115
845.17        72.17935
845.57        72.02353
845.98        71.71455
846.38        71.28826
846.79         70.7886
847.19        70.33289
847.60        70.06441
848.00        70.02295
848.41        70.13705
848.81         70.3292
849.22        70.38026
849.62        70.27284
850.03         70.0611
850.43        69.81358
850.84        69.57262
851.24        69.42193
851.65        69.28668
852.05        69.31998
852.46        69.66999
852.86        70.31653
853.27         71.1534
853.67        71.89729
854.07         72.2879
854.48        72.25121
854.88        71.89913
855.29        71.28706
855.69        70.67323
856.10        70.10874
856.50        69.62286
856.90        69.24381
857.31        69.02798
857.71        69.02755
858.12        69.17899
858.52        69.43059
858.92        69.55621
859.33        69.47199
859.73        69.27148
860.13         68.9545
860.54        68.56352
860.94         68.1852
861.34        67.79796
861.75        67.49707
862.15        67.48281
862.55           67.76
862.96        68.23526
863.36        68.80075
863.76        69.17504
864.17        69.25058
864.57        69.12542
864.97        68.80782
865.38        68.33099
865.78        67.77594
866.18        67.14642
866.58        66.59589
866.99        66.39461
867.39         66.6275
867.79        67.20401
868.19        67.95316
868.60        68.58398
869.00         69.0248
869.40         69.2978
869.80        69.41073
870.21        69.39635
870.61        69.34019
871.01        69.19646
871.41        68.92545
871.81        68.47034
872.22        67.83888
872.62        67.06202
873.02        66.35765
873.42        66.07809
873.82        66.29491
874.22        66.90257
874.63        67.57023
875.03        67.78098
875.43        67.41108
875.83        66.63145
876.23        65.75763
876.63        65.28716
877.03        65.34517
877.44        65.73717
877.84        66.29121
878.24        66.72222
878.64        66.87541
879.04         66.7281
879.44        66.41298
879.84         66.2316
880.24        66.22546
880.64        66.24089
881.04        66.19998
881.44        66.02424
881.84        65.70695
882.24        65.33292
882.65        64.95837
883.05        64.64267
883.45        64.42724
883.85        64.29111
884.25        64.31749
884.65        64.63849
885.05        65.22952
885.45        66.00688
885.85         66.7554
886.25        67.15721
886.65         67.1552
887.05        66.85243
887.45        66.39754
887.85         66.0612
888.25        65.93199
888.65        65.90925
889.04        65.97873
889.44        66.14516
889.84        66.35783
890.24        66.63712
890.64        66.81881
891.04        66.62306
891.44        66.03745
891.84        65.18575
892.24          64.344
892.64        63.92443
893.04        64.02341
893.44        64.52572
893.83        65.26987
894.23        65.92356
894.63        66.37516
895.03        66.66929
895.43        66.86058
895.83         67.0528
896.23        67.25995
896.63        67.41882
897.02        67.42101
897.42        67.14397
897.82        66.59713
898.22        65.89196
898.62        65.20136
899.01          64.755
899.41        64.62497
899.81        64.72543
900.21        64.98248
900.61        65.26769
901.00         65.5135
901.40        65.74078
901.80        65.89249
902.20        65.87762
902.59        65.70642
902.99        65.40025
903.39        65.06585
903.79         64.8876
904.18        64.89903
904.58        65.03822
904.98        65.27838
905.38        65.57665
905.77         65.9072
906.17         66.3213
906.57        66.66006
906.96        66.66426
907.36        66.29162
907.76        65.61415
908.15        65.01427
908.55        65.08482
908.95        65.93501
909.34        67.39375
909.74        68.90418
910.14        69.62053
910.53        69.29972
910.93        68.22791
911.33        66.86078
911.72        65.90068
912.12        65.61231
912.52         65.7856
912.91        66.17737
913.31        66.43916
913.70        66.47063
914.10        66.36433
914.49        66.32489
914.89        66.58966
915.29        67.21592
915.68        68.08436
916.08        68.85326
916.47         69.0559
916.87        68.60896
917.26        67.66412
917.66        66.63734
918.05        65.99574
918.45         65.8688
918.84        66.17992
919.24        66.65292
919.64        66.93678
920.03         66.9257
920.42        66.67694
920.82        66.46023
921.21        66.63642
921.61        67.24644
922.00        68.19881
922.40        69.08096
922.79        69.33405
923.19        68.80009
923.58        67.71428
923.98         66.5342
924.37        65.85423
924.77         65.8283
925.16        66.24529
925.55        66.85425
925.95        67.19531
926.34        67.13197
926.74          66.797
927.13        66.30539
927.52        65.76359
927.92        65.29354
928.31        64.85622
928.70        64.53391
929.10        64.43407
929.49        64.55849
929.89        64.83076
930.28        65.30559
930.67         65.9483
931.07        66.66037
931.46        67.47022
931.85        68.07313
932.24        68.04307
932.64        67.37699
933.03        66.21545
933.42        65.02968
933.82        64.49339
934.21        64.76044
934.60        65.68377
934.99        66.91563
935.39        67.81091
935.78        68.17381
936.17        68.06156
936.56        67.70449
936.96        67.46366
937.35        67.43442
937.74        67.51978
938.13        67.44114
938.53        66.81345
938.92        65.63393
939.31        64.11649
939.70        62.74062
940.09        62.16404
940.49        62.47764
940.88        63.51994
941.27         64.8731
941.66        65.75163
942.05        65.90193
942.44        65.55891
942.84        65.04697
943.23        64.88873
943.62        65.23566
944.01         65.8538
944.40        66.61725
944.79        67.36092
945.18        67.96298
945.57        68.46384
945.97        68.67101
946.36        68.35621
946.75        67.49265
947.14        66.25632
947.53        64.94176
947.92        63.95414
948.31        63.42361
948.70        63.27327
949.09        63.50213
949.48        64.07814
949.87        64.91927
950.26        65.97726
950.65        67.05595
951.04        67.84342
951.43        68.21316
951.82         68.1823
952.21        67.81085
952.60        67.24239
952.99        66.60119
953.38        65.95279
953.77        65.37106
954.16          64.956
954.55        64.72886
954.94        64.61954
955.33        64.76011
955.72        65.33979
956.11        66.32406
956.50        67.66199
956.89        68.75418
957.28        68.62283
957.66         67.1243
958.05        64.64284
958.44        62.13107
958.83        60.96011
959.22        61.38906
959.61         63.0534
960.00        65.17043
960.39        66.25478
960.78        65.83783
961.16        64.39157
961.55        62.68924
961.94        61.75844
962.33        61.87341
962.72        62.74833
963.11        63.96742
963.49        64.78842
963.88        64.84721
964.27        64.37064
964.66        63.84693
965.04        64.01062
965.43        64.95853
965.82         66.5239
966.21        68.01572
966.60         68.1519
966.98        66.62775
967.37         64.0304
967.76         61.4365
968.15        60.17195
968.53        60.48059
968.92         62.0476
969.31        64.14774
969.69        65.31386
970.08        64.96793
970.47        63.56844
970.86        62.07182
971.24        61.84304
971.63        63.15624
972.02        65.61907
972.40        68.34302
972.79        69.31683
973.17        68.03226
973.56        65.26109
973.95         62.2291
974.33        60.49107
974.72        60.36721
975.11        61.35577
975.49        62.93742
975.88        64.04128
976.26        64.28165
976.65        63.97456
977.04        63.33799
977.42        62.65326
977.81        62.02726
978.19        61.30284
978.58        60.73274
978.96        60.73058
979.35        61.33075
979.74        62.49042
980.12        63.83342
980.51        64.41377
980.89        64.10912
981.28        63.14616
981.66         62.0696
982.05         61.6489
982.43        62.07656
982.82        63.12521
983.20        64.54873
983.59        65.76677
983.97        66.60286
984.35        67.15649
984.74        67.42621
985.12         67.6734
985.51        67.88902
985.89        67.96995
986.28        67.94542
986.66        67.80844
987.04        67.62743
987.43        67.41479
987.81        67.16609
988.20        66.74516
988.58        66.20143
988.96        65.52244
989.35        64.90961
989.73        64.62647
990.12        64.68797
990.50        65.07985
990.88         65.4351
991.27        65.13258
991.65        64.07645
992.03        62.47859
992.42        60.97879
992.80        60.43232
993.18        61.00296
993.56        62.47775
993.95        64.14838
994.33        64.84071
994.71        64.09694
995.10        62.42603
995.48        60.58673
995.86        59.75688
996.24        60.22147
996.63        61.51993
997.01        63.41129
997.39        65.01301
997.77         65.8629
998.15        66.28816
998.54        66.22107
998.92        65.45258
999.30        64.17331
999.68        62.43052
1000.06        60.96662
1000.45        60.85394
1000.83        62.34742
1001.21        65.26775
1001.59        68.75185
1001.97        70.64319
1002.35        70.15134
1002.73        68.02119
1003.12        65.43316
1003.50        63.79294
1003.88         63.5439
1004.26        64.09354
1004.64        65.41003
1005.02        67.33523
1005.40        69.50946
1005.78        72.08572
1006.16        73.93849
1006.54        73.29358
1006.92        70.14339
1007.30        65.17229
1007.69        60.34797
1008.07        58.36625
1008.45        59.96013
1008.83        64.53224
1009.21        70.70215
1009.59        74.86829
1009.97        75.22427
1010.35        72.82811
1010.73         68.8646
1011.11        65.10299
1011.49        62.30392
1011.86        59.98833
1012.24         58.5005
1012.62        58.35351
1013.00         59.5125
1013.38        62.01387
1013.76        65.24551
1014.14        67.37522
1014.52        67.51068
1014.90        66.04045
1015.28        63.72956
1015.66         61.7904
1016.04        60.56775
1016.41        59.66984
1016.79        59.20306
1017.17         59.4251
1017.55        60.26453
1017.93        61.70632
1018.31         63.1151
1018.69         63.5111
1019.06        62.72166
1019.44        60.84882
1019.82        58.49283
1020.20        57.25349
1020.58        57.69264
1020.95         59.0941
1021.33        60.72557
1021.71        61.61509
1022.09        61.60976
1022.46        61.21585
1022.84        60.19593
1023.22        58.28449
1023.60         55.8394
1023.97        52.96651
1024.35        51.13101
1024.73        51.89621
