SpectraSmart Spectrum 2.9.0.0
--------- Device Information -----------
Spectrum Name :  反射率_0
Saving Time :  2024/04/26 22:43:39
Spectro-Module Model Name : SE2030-DUVN
Spectro-Module Serial Number : OS361AC55029948
Wavelength Start : 200
Wavelength End : 1025
Wavelength Unit : Wavelength(nm)
Spectrum Unit : Reflectance(%)
-----------Spectrum Setting ------------
Integration Time : 20ms
Average : 10
Boxcar : 0
Background removal :  enabled
linearity correction :  enabled
SC :  disabled
Intensity correction :  disabled
DWT denoise :  enabled
savitzky-golay :  disabled
FFT :  disabled
Running average :  disabled
Kalman :  disabled
High pass :  disabled
---------------BEGIN--------------------
Wavelength(nm)             Reflectance(%)
200.29               0
200.75        46.87321
201.21        49.11987
201.67        50.60135
202.13        51.86324
202.58        53.16157
203.04        54.76752
203.50        56.62685
203.96        58.05462
204.42        58.53788
204.88        58.12035
205.34        57.39509
205.80        57.64213
206.26        58.91439
206.72         60.2921
207.18        61.37384
207.64        61.92402
208.10        61.99016
208.55        62.30611
209.01        61.45598
209.47        57.69699
209.93        52.67464
210.39        48.66546
210.85        46.94343
211.31        48.02419
211.77        52.45802
212.23        63.66042
212.69        92.99857
213.14        145.9929
213.60        149.1057
214.06         115.948
214.52        91.82491
214.98        80.11209
215.44        74.09167
215.90        69.34259
216.36        65.80315
216.81         64.1524
217.27        64.83263
217.73        69.12485
218.19        75.88641
218.65         77.5183
219.11        72.07078
219.57        64.52228
220.02        60.01953
220.48        61.75905
220.94        69.41293
221.40        83.86759
221.86        104.4232
222.32        117.0127
222.77        109.9429
223.23        93.10632
223.69        76.80764
224.15        66.57936
224.61        61.29369
225.06        58.16486
225.52        56.56923
225.98        55.65559
226.44        55.04047
226.90        54.99733
227.36        54.83643
227.81        53.40131
228.27        50.91405
228.73        47.82495
229.19        45.35866
229.65        44.91746
230.10        46.43507
230.56        49.35182
231.02        52.43696
231.48        53.72794
231.93        52.79572
232.39        50.63681
232.85        48.27111
233.31        47.05563
233.77        47.16183
234.22        48.15008
234.68        49.38504
235.14        50.00022
235.60        49.76329
236.05        49.03835
236.51        48.18489
236.97        47.93305
237.43        48.61914
237.88        50.04172
238.34        52.05783
238.80        54.77646
239.26        58.38277
239.71        63.61499
240.17        70.08597
240.63         76.4483
241.08        81.61431
241.54        84.50892
242.00         86.8636
242.46        93.35836
242.91        107.8155
243.37        132.7406
243.83        169.0318
244.28        200.5549
244.74        202.6413
245.20        174.8908
245.66        139.4994
246.11        116.4042
246.57        106.6305
247.03        104.6288
247.48        104.9815
247.94        100.1253
248.40        91.13953
248.85        82.32987
249.31        76.59575
249.77        74.80359
250.22        76.24126
250.68        80.23366
251.14        85.43527
251.59         87.3131
252.05        84.09372
252.51        78.73624
252.96        73.55507
253.42        71.00297
253.88        70.76166
254.33        71.06625
254.79        72.91237
255.25        76.84534
255.70        82.32305
256.16        89.17908
256.62        94.14336
257.07        92.50206
257.53        86.40263
257.99        79.09554
258.44        73.33392
258.90          71.686
259.35        72.76701
259.81        75.49713
260.27        78.07161
260.72        78.35616
261.18        76.60132
261.63        73.52094
262.09        70.59321
262.55        68.70832
263.00         67.7451
263.46        67.44217
263.91        66.95995
264.37        65.65771
264.83        63.51956
265.28        60.92115
265.74        58.65916
266.19         57.3484
266.65        57.09862
267.11         57.4918
267.56        58.05456
268.02        58.06202
268.47        57.30368
268.93        56.06171
269.38        54.52013
269.84        53.03164
270.30        51.70522
270.75        50.41131
271.21         49.2423
271.66        48.27921
272.12        47.51114
272.57        46.89997
273.03        46.27262
273.48        45.31551
273.94        44.05296
274.39        42.58069
274.85        41.15951
275.31        39.99164
275.76        39.10458
276.22        38.46503
276.67        37.97796
277.13        37.61474
277.58        37.27947
278.04        36.99823
278.49        36.67332
278.95        36.29202
279.40        35.78788
279.86          35.236
280.31        34.59212
280.77        33.92263
281.22        33.21339
281.68        32.53875
282.13        31.91613
282.59        31.45747
283.04        31.14068
283.50        30.96784
283.95        30.88158
284.41        30.80461
284.86        30.71006
285.32        30.63885
285.77        30.60385
286.22        30.69744
286.68        30.91972
287.13        31.18232
287.59        31.43976
288.04        31.57553
288.50        31.58764
288.95        31.48903
289.41        31.32121
289.86        31.06897
290.32         30.8015
290.77        30.52682
291.22        30.34661
291.68        30.38817
292.13        30.67356
292.59        31.20754
293.04        31.93026
293.50         32.7545
293.95        33.64391
294.40        34.62605
294.86        35.74127
295.31        37.04353
295.77        38.54065
296.22        40.17387
296.68        41.89653
297.13        43.62719
297.58         45.3517
298.04        47.09555
298.49        48.86327
298.95        50.68645
299.40        52.55374
299.85        54.44583
300.31        56.37259
300.76        58.32774
301.21         60.3121
301.67        62.34472
302.12         64.3521
302.58        66.31413
303.03        68.18703
303.48        70.02885
303.94        71.91423
304.39        73.87942
304.84        75.96259
305.30        78.13671
305.75        80.33432
306.20        82.55473
306.66        84.77586
307.11         86.9375
307.57        88.97108
308.02        90.65415
308.47        91.99989
308.93        93.09186
309.38        94.07059
309.83        95.28255
310.29        96.80125
310.74        98.51833
311.19        100.2414
311.65        101.6185
312.10        102.5322
312.55         103.089
313.00         103.478
313.46        103.9952
313.91        104.7017
314.36        105.5487
314.82        106.4084
315.27        107.1001
315.72        107.5552
316.18          107.86
316.63        108.1145
317.08        108.5228
317.53        109.1263
317.99        109.8426
318.44        110.5448
318.89        110.9972
319.35        111.1438
319.80        111.0728
320.25        110.9239
320.70        110.9232
321.16        111.1335
321.61        111.5277
322.06        112.0086
322.51        112.4221
322.97        112.7022
323.42        112.9001
323.87        113.1003
324.32        113.4634
324.78        113.9776
325.23        114.6595
325.68        115.2828
326.13        115.5034
326.59        115.2539
327.04        114.6803
327.49        114.0687
327.94         113.903
328.39        114.3005
328.85        115.0838
329.30        116.1118
329.75        116.8489
330.20        117.1191
330.66        117.0409
331.11        116.8585
331.56        116.8861
332.01        117.2303
332.46        117.7606
332.92        118.3103
333.37        118.7862
333.82        119.0692
334.27        119.2571
334.72        119.3881
335.17        119.4976
335.63        119.6203
336.08        119.8183
336.53        120.1631
336.98        120.8255
337.43        121.8174
337.88        123.0373
338.34        124.3419
338.79        125.6188
339.24        126.7067
339.69        127.6217
340.14        128.2041
340.59        128.2313
341.05        127.7593
341.50        126.8948
341.95        126.0252
342.40         125.737
342.85        126.1684
343.30        127.1598
343.75        128.4356
344.20        129.5079
344.66        130.2051
345.11        130.6505
345.56        130.9056
346.01        131.0852
346.46        131.2561
346.91        131.3701
347.36        131.4787
347.81        131.6943
348.26        132.0227
348.72        132.4284
349.17        132.8519
349.62        133.2246
350.07        133.5079
350.52        133.7368
350.97        133.7992
351.42        133.5261
351.87        132.9283
352.32        132.0735
352.77        131.2479
353.22        130.8651
353.67        130.9907
354.13        131.5039
354.58        132.1039
355.03        132.2349
355.48        131.7578
355.93        130.8338
356.38        129.8069
356.83        129.1988
357.28        129.1056
357.73        129.3335
358.18        129.5626
358.63        129.2899
359.08        128.3941
359.53        127.0629
359.98        125.5617
360.43        124.2618
360.88        123.2625
361.33        122.4579
361.78        121.7103
362.23        120.8119
362.68        119.7281
363.13        118.5599
363.58        117.4336
364.03        116.5196
364.48         115.839
364.93        115.3013
365.38        114.8026
365.83        114.1927
366.28        113.4289
366.73        112.5727
367.18        111.6445
367.63        110.6725
368.08        109.6829
368.53        108.6639
368.98        107.6949
369.43        106.8998
369.88        106.2977
370.33        105.8691
370.78        105.4801
371.23        104.9068
371.68         104.096
372.13        103.0927
372.58        102.0746
373.03        101.3288
373.48        100.9033
373.93        100.7027
374.38        100.4915
374.83        99.90187
375.28        98.86897
375.72        97.51294
376.17        96.14614
376.62        95.11515
377.07        94.51363
377.52        94.24297
377.97        94.12202
378.42        93.87099
378.87        93.40726
379.32        92.79147
379.77        92.19415
380.22        91.85614
380.67        91.80125
381.11        91.97595
381.56        92.05222
382.01        91.60364
382.46        90.58996
382.91        89.22168
383.36        87.91061
383.81        87.21251
384.26        87.19997
384.71        87.66865
385.15        88.30672
385.60        88.56989
386.05         88.2991
386.50        87.66637
386.95        86.82793
387.40        86.03395
387.85        85.38917
388.29        84.76626
388.74        84.28672
389.19        83.90671
389.64        83.60303
390.09        83.38379
390.54        83.19297
390.98        82.90683
391.43        82.54922
391.88        82.14282
392.33        81.74391
392.78        81.41135
393.23        81.15307
393.67        80.97433
394.12        80.90836
394.57        80.68177
395.02        80.35046
395.47        80.28812
395.91        80.42762
396.36        80.28664
396.81         79.8616
397.26        79.41504
397.71        79.00127
398.15        78.60307
398.60        78.34166
399.05        78.04958
399.50        77.75405
399.95        77.79711
400.39        78.06517
400.84        77.75292
401.29        76.97825
401.74        76.78147
402.18         77.1079
402.63        76.89474
403.08        76.22911
403.53        75.96684
403.97           76.13
404.42        76.28249
404.87        76.33346
405.32        76.29228
405.76        76.12222
406.21        75.90878
406.66        75.66421
407.11        75.36966
407.55        75.12691
408.00        74.95984
408.45        74.90498
408.90        75.15892
409.34        75.51109
409.79        75.23817
410.24         74.4996
410.68        74.16753
411.13        74.29649
411.58        74.37881
412.03        74.31765
412.47        74.20237
412.92        73.99081
413.37        73.70253
413.81        73.39293
414.26        73.20879
414.71        73.15099
415.15        73.21622
415.60        73.34033
416.05        73.49224
416.49        73.65038
416.94        73.80312
417.39        73.94762
417.83        74.06438
418.28        74.15291
418.73        74.21234
419.17        74.23256
419.62        74.20668
420.07        74.12794
420.51        73.97947
420.96        73.83873
421.41        73.71522
421.85        73.58798
422.30        73.66782
422.74        73.79251
423.19        73.51198
423.64         72.9309
424.08        72.83689
424.53        73.21438
424.98        73.39709
425.42        73.35027
425.87        73.53806
426.31        73.87119
426.76        73.73174
427.21        73.21697
427.65        72.99294
428.10        73.05961
428.54        73.03989
428.99        72.98247
429.44        72.81593
429.88        72.69434
430.33        73.30518
430.77        74.28816
431.22        74.66925
431.66        74.36562
432.11         73.8253
432.56        73.27046
433.00        73.10751
433.45        73.53307
433.89        74.08665
434.34        74.15511
434.78        75.86814
435.23        74.84821
435.67        73.50208
436.12        72.64885
436.57        72.64396
437.01        73.65649
437.46         74.1415
437.90        74.16463
438.35        72.71953
438.79        73.74012
439.24        73.76337
439.68        73.87271
440.13        74.26231
440.57        74.84827
441.02        74.79729
441.46        74.22073
441.91        74.63305
442.35         75.6199
442.80         75.3974
443.24        74.22486
443.69        74.17448
444.13        75.13279
444.58        75.73608
445.02        75.37724
445.47        75.41917
445.91        75.74407
446.36        75.98208
446.80        76.09317
447.24        76.47667
447.69        76.54784
448.13        76.68795
448.58        76.73954
449.02        76.70445
449.47        76.62279
449.91         76.5385
450.36        76.49833
450.80        76.46511
451.25        76.46426
451.69        76.46993
452.13        76.49247
452.58        76.52842
453.02        76.56896
453.47        76.60635
453.91        76.62346
454.36        76.63442
454.80        76.63047
455.24        76.46568
455.69        76.12681
456.13        75.90402
456.58        75.94277
457.02        75.11417
457.46        75.06067
457.91        75.37107
458.35        75.76035
458.79        75.72583
459.24        75.17189
459.68        74.38588
460.13        73.59255
460.57        73.37043
461.01        73.92857
461.46        73.69427
461.90        73.88825
462.34        75.73538
462.79        74.95869
463.23        75.22585
463.68        75.18649
464.12         75.0354
464.56        74.68419
465.01        73.93047
465.45         73.0384
465.89        72.60464
466.34        72.58344
466.78        72.94379
467.22        73.63715
467.67        72.61377
468.11        72.89069
468.55         72.8597
468.99        73.31594
469.44        73.40161
469.88        73.11227
470.32        72.87395
470.77        72.73735
471.21          72.654
471.65         72.6313
472.10         72.6935
472.54        72.77871
472.98        72.77885
473.42        72.66248
473.87        72.54423
474.31        72.39439
474.75         72.0727
475.20        71.69917
475.64        71.62464
476.08        71.81936
476.52        71.80657
476.97        71.52383
477.41        71.40439
477.85        71.61311
478.29        71.19029
478.74        71.58248
479.18        72.28757
479.62        71.92097
480.06        71.98524
480.50         71.9025
480.95        71.90878
481.39        72.05865
481.83        71.30481
482.27        71.50611
482.72        71.85217
483.16        71.49342
483.60        71.53028
484.04        71.54008
484.48        71.82723
484.93        72.04175
485.37        71.54729
485.81        71.10222
486.25        70.48514
486.69        69.25935
487.14          71.958
487.58        72.60416
488.02        71.96429
488.46        70.66974
488.90        70.43892
489.34        71.75796
489.79        72.83327
490.23        72.03049
490.67        71.39591
491.11        70.79639
491.55        70.72158
491.99         71.1027
492.43        71.12638
492.88        70.78123
493.32        70.67833
493.76        70.85704
494.20        71.02111
494.64        71.14496
495.08        71.33412
495.52        71.50732
495.96        71.49287
496.41        71.31587
496.85        71.11678
497.29        70.85792
497.73        70.95892
498.17        70.51932
498.61        70.36431
499.05        70.26817
499.49         70.5575
499.93        70.84899
500.37        70.96485
500.82        70.82627
501.26        70.63638
501.70        70.47227
502.14         70.5518
502.58        70.87724
503.02        70.70987
503.46        70.88682
503.90         70.9116
504.34        71.01209
504.78        71.01022
505.22        70.89387
505.66        70.72944
506.10        70.58282
506.54         70.4537
506.98         70.3375
507.42         70.5613
507.86        70.72609
508.30        70.46384
508.74        70.68724
509.18        70.58536
509.62        70.49528
510.06        70.43875
510.50        70.43941
510.94        70.46597
511.38        70.49514
511.82        70.52013
512.26        70.53493
512.70         70.5461
513.14        70.54998
513.58        70.57964
514.02        70.64445
514.46        70.65659
514.90        70.59989
515.34        70.85756
515.78        70.77956
516.22        70.87691
516.66        70.93581
517.10        70.93767
517.54        70.87474
517.98        70.76967
518.42          70.652
518.86        70.55257
519.30        70.48476
519.74        70.43613
520.18        70.40973
520.62        70.40681
521.06        70.42479
521.50          70.473
521.93        70.52345
522.37        70.50586
522.81        70.42364
523.25        70.29326
523.69        70.18172
524.13        70.19801
524.57        70.35029
525.01        70.58411
525.45        70.81788
525.89        70.92025
526.32        70.84802
526.76        70.67077
527.20        70.41174
527.64        70.11731
528.08        69.82639
528.52        69.52804
528.96        69.29639
529.40        69.26431
529.83        69.42892
530.27        69.71615
530.71        70.02055
531.15        70.21487
531.59        70.25202
532.03        70.14292
532.46        69.94626
532.90        69.82257
533.34        69.79948
533.78        69.79725
534.22        69.77563
534.66        69.76125
535.09        69.69315
535.53        69.43725
535.97        69.07747
536.41        68.91879
536.85        68.99381
537.28        69.15234
537.72        69.33746
538.16        69.51086
538.60        69.63843
539.04        69.72826
539.47        69.77255
539.91        69.80714
540.35        69.82575
540.79        69.81991
541.22        69.79343
541.66        69.77985
542.10        69.77588
542.54        69.77615
542.97        69.76151
543.41         69.7311
543.85        69.67545
544.29        69.61293
544.72        69.53123
545.16        69.45178
545.60        69.36881
546.04        69.28679
546.47        69.24435
546.91        69.29556
547.35        69.43752
547.79        69.64968
548.22        69.85774
548.66        69.93056
549.10        69.92086
549.53        69.83171
549.97        69.71616
550.41        69.49543
550.84        69.24664
551.28        69.22856
551.72        69.39162
552.15         69.4263
552.59        69.34415
553.03         69.2933
553.46        69.40894
553.90        69.43912
554.34        69.41279
554.77        69.36754
555.21        69.35416
555.65        69.41676
556.08        69.54167
556.52        69.72364
556.96        69.87151
557.39        69.86493
557.83        69.71561
558.27        69.44254
558.70        69.11438
559.14        68.95485
559.57        68.94458
560.01         68.8679
560.45        68.76199
560.88        68.89612
561.32        69.22461
561.75        69.44196
562.19        69.50607
562.63        69.35824
563.06         69.1067
563.50        69.12219
563.93        69.30756
564.37        69.42583
564.80        69.42947
565.24        69.13354
565.68        68.50725
566.11        69.11404
566.55        68.49784
566.98        68.50909
567.42         68.4946
567.85        68.67194
568.29        68.99781
568.72        69.28825
569.16        69.59447
569.60         69.6087
570.03        69.54773
570.47        69.59648
570.90        69.94117
571.34        68.79798
571.77        69.61356
572.21        69.77767
572.64        69.54808
573.08        70.03051
573.51        69.22984
573.95        69.04203
574.38         69.1608
574.82        69.38464
575.25        69.11105
575.69        69.36078
576.12         69.4958
576.56        68.85284
576.99        68.65675
577.42        68.87014
577.86        69.16827
578.29        69.62651
578.73         69.3263
579.16        69.63078
579.60        69.30525
580.03        69.55188
580.47        68.96535
580.90        70.03324
581.33        69.70868
581.77        69.64525
582.20        68.59481
582.64         69.5041
583.07         69.4511
583.51        69.31805
583.94        69.11205
584.37        69.47787
584.81         69.5873
585.24        69.47076
585.68        68.93489
586.11        69.09449
586.54        69.31858
586.98        68.68805
587.41        68.59268
587.85         68.8931
588.28        68.63575
588.71        68.63206
589.15        68.47221
589.58         68.9489
590.01        68.85598
590.45        68.80038
590.88        69.54925
591.31        69.38579
591.75        68.80314
592.18        68.37762
592.61        68.27484
593.05        68.89523
593.48        69.32954
593.91        69.32049
594.35        69.05966
594.78        68.63406
595.21        68.31013
595.65        68.52133
596.08        69.36889
596.51        69.32624
596.94        68.94616
597.38        68.69502
597.81        68.73916
598.24        69.23608
598.68        68.83094
599.11        68.60136
599.54        69.56998
599.97        68.94791
600.41        68.90891
600.84        68.38659
601.27        68.93516
601.70        68.76448
602.14        69.08681
602.57        68.92754
603.00        68.80035
603.43        68.05926
603.87        68.83025
604.30        69.04708
604.73        69.32391
605.16        68.45432
605.60        68.44712
606.03         67.9823
606.46        67.62352
606.89        68.06659
607.32        68.69989
607.76        67.91534
608.19        68.55163
608.62        68.52362
609.05        68.33669
609.48         68.3763
609.92        69.36991
610.35        69.23002
610.78        68.24546
611.21        68.54596
611.64        68.54076
612.07        68.63998
612.50        68.61371
612.94        68.53297
613.37         68.4161
613.80        68.63709
614.23        68.03407
614.66        67.98657
615.09        68.15047
615.52        68.34534
615.96        68.46482
616.39        68.56949
616.82        68.66149
617.25        68.28037
617.68        68.24258
618.11        68.30534
618.54        68.28977
618.97        68.81427
619.40        68.80181
619.84        68.30305
620.27        68.39835
620.70        68.23811
621.13        68.22841
621.56        67.78176
621.99        67.27721
622.42        67.16241
622.85         67.5783
623.28        67.13198
623.71        67.39045
624.14        67.55999
624.57        67.92652
625.00        67.78811
625.43        68.18442
625.86        68.08539
626.29        67.88263
626.72        67.69506
627.15        67.84266
627.58        67.93595
628.01        67.96523
628.44        67.99306
628.87        67.81766
629.30        67.56728
629.73        67.50567
630.16        67.47108
630.59        67.55363
631.02        67.73701
631.45        67.96161
631.88        68.11377
632.31        68.15359
632.74        68.10156
633.17        67.98875
633.60        67.87699
634.03        67.78977
634.46        67.70568
634.89        67.61021
635.32        67.49936
635.75        67.37883
636.18        67.18807
636.61        66.99113
637.04        66.92634
637.47        67.00919
637.89        67.19139
638.32        67.37168
638.75        67.44873
639.18        67.39168
639.61        67.23252
640.04        67.04968
640.47        66.96967
640.90        67.02276
641.33        67.16964
641.76        67.34512
642.18        67.45033
642.61        67.43318
643.04        67.33417
643.47        67.20196
643.90        67.11481
644.33         67.0916
644.76        67.10456
645.18        67.12031
645.61        67.06742
646.04        66.94939
646.47         66.8084
646.90        66.67754
647.33        66.62261
647.75        66.63063
648.18        66.64899
648.61        66.73745
649.04        66.91347
649.47         67.0196
649.89        67.73588
650.32        67.22377
650.75         67.0556
651.18        66.84963
651.61        66.79398
652.03        66.94389
652.46        67.37225
652.89        67.86963
653.32        67.84344
653.74        67.42084
654.17        66.91952
654.60        67.48085
655.03        67.66471
655.46        66.59045
655.88        66.47688
656.31          67.139
656.74        65.09933
657.16        68.83912
657.59        73.35245
658.02         68.4248
658.45        68.18446
658.87        67.39211
659.30         67.4123
659.73        66.98499
660.15        68.41859
660.58        67.00686
661.01        66.98853
661.44        67.07465
661.86        66.72471
662.29        66.00871
662.72         66.4089
663.14        66.61045
663.57        66.70133
664.00        66.37959
664.42        66.43826
664.85        66.88515
665.27        67.28283
665.70        67.49527
666.13        67.57002
666.55        67.49002
666.98        67.17641
667.41        66.70466
667.83        66.64001
668.26        66.33449
668.69        66.31388
669.11        66.37411
669.54        66.50393
669.96        66.68917
670.39        66.95432
670.82        67.23383
671.24         67.3617
671.67         67.3412
672.09        67.21397
672.52        67.06718
672.94        67.11726
673.37        67.28929
673.80        67.10643
674.22        66.64474
674.65         66.4437
675.07        66.54407
675.50        66.57108
675.92        66.50835
676.35        66.49047
676.77        66.49567
677.20        66.51771
677.62        66.58044
678.05        66.46211
678.47        66.41293
678.90        66.63976
679.32        66.51688
679.75        66.50415
680.17        66.37486
680.60        66.51588
681.02        66.33132
681.45        66.38001
681.87        66.50687
682.30        66.65852
682.72        66.80817
683.15        66.96745
683.57        67.09558
684.00        66.99125
684.42        66.75243
684.85        66.71915
685.27        66.91497
685.70        67.17608
686.12        67.38298
686.54        67.45544
686.97         67.3646
687.39        67.02133
687.82        66.74613
688.24        66.52807
688.66        66.47528
689.09        66.50388
689.51        66.58752
689.94        66.67789
690.36        66.75325
690.78        66.78914
691.21        66.79859
691.63        66.84541
692.06        66.91476
692.48        66.90323
692.90        66.80597
693.33        66.71629
693.75        66.64256
694.17         66.5072
694.60        66.37601
695.02        66.39033
695.44        66.54437
695.87         66.7897
696.29         67.0284
696.71        66.93922
697.14        66.64433
697.56        66.37103
697.98        66.25792
698.41        66.24274
698.83        66.33527
699.25        66.65762
699.68          67.042
700.10        67.19737
700.52        67.04246
700.94        66.68012
701.37        66.28373
701.79        66.13919
702.21        66.30692
702.64        66.67839
703.06        67.11626
703.48        67.37941
703.90        67.39535
704.33        67.24294
704.75        67.00112
705.17        66.78534
705.59        66.64856
706.01        66.55422
706.44        66.50608
706.86        66.54238
707.28        66.64996
707.70        66.79991
708.12         66.9673
708.55        67.15573
708.97        67.31635
709.39         67.2972
709.81        67.13875
710.23        67.07708
710.66        67.13754
711.08        67.21406
711.50        67.24609
711.92        67.20641
712.34        67.08808
712.76        66.91779
713.19        66.73573
713.61         66.6438
714.03         66.6571
714.45        66.75652
714.87          66.925
715.29        67.13762
715.71        67.36963
716.13        67.60343
716.56            67.8
716.98        67.98716
717.40         68.1174
717.82        68.19036
718.24        68.15949
718.66        67.95607
719.08        67.60268
719.50        67.15792
719.92        66.74976
720.34        66.56722
720.76        66.64742
721.19        66.90662
721.61        67.29005
722.03        67.64786
722.45        67.90686
722.87        68.09335
723.29        68.15447
723.71        68.01376
724.13        67.68605
724.55        67.20742
724.97        66.71497
725.39        66.44202
725.81        66.44963
726.23        66.65751
726.65        66.96609
727.07        67.35387
727.49         67.5165
727.91        67.67967
728.33        67.79158
728.75        67.89747
729.17        68.00274
729.59        68.07803
730.01        68.09438
730.43        68.02366
730.85        67.86893
731.27        67.63809
731.69        67.38214
732.10        67.25376
732.52        67.14297
732.94        67.15226
733.36        67.21001
733.78        67.19112
734.20        67.07386
734.62        67.02583
735.04         67.1369
735.46        66.89999
735.88        67.33704
736.30        67.58022
736.72        67.88345
737.13        68.11364
737.55        68.17986
737.97        68.31736
738.39        68.44129
738.81        68.01331
739.23        67.25275
739.65        67.19699
740.06        67.75071
740.48        68.04417
740.90        68.03731
741.32        67.88584
741.74         68.3136
742.16        68.42027
742.57        68.40329
742.99        68.30828
743.41        68.17852
743.83        68.05112
744.25         67.9397
744.67        67.83065
745.08        67.74905
745.50        67.71438
745.92         67.7342
746.34         67.7961
746.75        67.86552
747.17        67.86993
747.59        67.80573
748.01        67.70109
748.42        67.58186
748.84        67.51627
749.26        67.52579
749.68        67.50779
750.09        67.48708
750.51        67.68837
750.93        68.01266
751.35        68.04972
751.76        67.80347
752.18        67.63696
752.60        67.55835
753.01         67.3774
753.43        67.12846
753.85        66.91589
754.27        66.75362
754.68        66.79763
755.10         67.0823
755.52         66.7166
755.93        67.16543
756.35        67.24078
756.77        67.40889
757.18        67.55833
757.60        67.68594
758.02        67.94065
758.43        68.28088
758.85        67.75527
759.26        68.20564
759.68        67.49828
760.10        67.47935
760.51        67.33061
760.93        67.45444
761.34        67.67132
761.76        68.04627
762.18         68.2252
762.59        68.24264
763.01        68.17603
763.42        68.12807
763.84        68.05432
764.26        67.99994
764.67        67.97388
765.09        67.97141
765.50         67.8309
765.92         67.6075
766.33        67.41125
766.75        67.21637
767.16        67.08925
767.58        67.01107
768.00        66.93201
768.41        66.91297
768.83         67.1669
769.24        67.58377
769.66        67.77044
770.07        67.71227
770.49        67.60064
770.90         67.5565
771.32        67.87695
771.73         68.4429
772.15        68.62833
772.56        68.40176
772.97        68.08608
773.39        67.82614
773.80        67.72773
774.22        67.81763
774.63        68.11813
775.05        68.45138
775.46        68.59737
775.88        68.46915
776.29        68.16178
776.70        67.82364
777.12        67.71548
777.53        67.90714
777.95         68.2743
778.36        68.68781
778.77        68.89169
779.19        68.83226
779.60        68.61819
780.02        68.31953
780.43         68.0846
780.84        67.98003
781.26        67.78608
781.67        67.61979
782.09        68.00234
782.50        68.76752
782.91         69.0662
783.33        68.83954
783.74        68.73768
784.15          68.759
784.57         68.4892
784.98        68.06779
785.39        67.91615
785.81        68.09914
786.22        68.53297
786.63        69.06128
787.04         69.3899
787.46        69.45975
787.87        69.35561
788.28        69.17987
788.70        69.05733
789.11        69.01003
789.52        69.02295
789.93        69.06543
790.35        69.08563
790.76        69.07757
791.17        69.04915
791.58        69.03481
792.00        69.02362
792.41        69.02532
792.82        69.15343
793.23        69.32682
793.65        69.10197
794.06        68.62869
794.47        68.67437
794.88        69.13655
795.29        69.25855
795.71        68.98047
796.12        68.75385
796.53        68.68066
796.94        68.74069
797.35        68.95908
797.76        69.33762
798.18        69.72961
798.59        69.94678
799.00        69.91505
799.41        69.68417
799.82        69.37585
800.23        69.20296
800.64        69.22068
801.06        69.33618
801.47        69.50578
801.88        69.56104
802.29        69.45509
802.70        69.24693
803.11        68.99626
803.52        68.79342
803.93        68.68548
804.34        68.64893
804.75         68.6785
805.17        68.80624
805.58        69.06393
805.99        69.25681
806.40         69.3764
806.81        69.81967
807.22        70.37082
807.63        70.08453
808.04         69.1637
808.45        68.77563
808.86        69.03512
809.27        69.35463
809.68        69.56273
810.09        69.63096
810.50        69.49951
810.91        69.18414
811.32        68.86975
811.73        68.84863
812.14        69.18005
812.55        69.77621
812.96        70.42223
813.37         70.7137
813.78        70.53038
814.19         70.0192
814.60        69.38605
815.01          68.906
815.42        68.65327
815.83        68.55103
816.24        68.55671
816.65        68.59301
817.05        68.63476
817.46        68.69594
817.87        68.79757
818.28        68.91089
818.69         69.0292
819.10        69.12808
819.51        69.23788
819.92        69.42657
820.33        69.68995
820.74        69.99477
821.14        70.25056
821.55        70.30998
821.96        70.15079
822.37        69.82552
822.78        69.44169
823.19        69.18091
823.60        69.10751
824.00         69.2066
824.41        69.37254
824.82        69.52394
825.23        69.61237
825.64        69.65903
826.04        69.69413
826.45        69.72595
826.86        69.77371
827.27        69.83304
827.68        69.85858
828.08        69.81024
828.49        69.63379
828.90        69.36225
829.31        69.11459
829.72        69.08329
830.12        69.32623
830.53        69.73603
830.94         70.1308
831.35        70.14874
831.75        69.72715
832.16        68.96818
832.57        68.14202
832.97        67.65318
833.38        67.61082
833.79        67.87379
834.20        68.30439
834.60         68.6796
835.01        68.92379
835.42        69.15078
835.82        69.34495
836.23        69.39682
836.64        69.33092
837.04        69.11415
837.45        68.95506
837.86        69.27245
838.26        70.14462
838.67        71.41374
839.08        72.63034
839.48        72.94415
839.89        72.16245
840.29        70.61012
840.70        68.97984
841.11        68.08011
841.51        68.11482
841.92        68.82574
842.33        69.91801
842.73        70.85125
843.14        71.29654
843.54        71.45174
843.95        71.42868
844.35        71.46814
844.76        71.61834
845.17        71.77077
845.57        71.83759
845.98        71.67607
846.38        71.29285
846.79        70.76691
847.19        70.23553
847.60        69.87224
848.00        69.74061
848.41        69.76482
848.81        69.90147
849.22        69.99066
849.62        70.01782
850.03        70.00863
850.43        69.98009
850.84        69.89108
851.24         69.7911
851.65        69.62043
852.05         69.5258
852.46        69.65474
852.86        70.02638
853.27        70.57567
853.67        71.07552
854.07        71.33246
854.48         71.2831
854.88        71.00979
855.29        70.58285
855.69        70.27203
856.10        70.09914
856.50        70.07587
856.90        70.09592
857.31        70.00189
857.71        69.80539
858.12         69.4937
858.52        69.19919
858.92        69.01991
859.33        68.96441
859.73        69.04073
860.13        69.10706
860.54        68.95159
860.94        68.58302
861.34        68.07189
861.75        67.57748
862.15        67.40026
862.55        67.59077
862.96        68.01005
863.36        68.58369
863.76        69.09634
864.17        69.43342
864.57        69.66978
864.97         69.7045
865.38        69.39957
865.78        68.79111
866.18        67.91007
866.58        67.00259
866.99        66.51765
867.39        66.60494
867.79        67.14629
868.19        67.88046
868.60        68.36327
869.00        68.49886
869.40        68.36896
869.80        68.12292
870.21        68.04916
870.61        68.29127
871.01        68.68681
871.41        69.02168
871.81        69.01358
872.22        68.61053
872.62         67.9012
873.02        67.14454
873.42          66.767
873.82        66.88315
874.22        67.37363
874.63        67.92307
875.03        68.04753
875.43        67.62719
875.83        66.82323
876.23        65.96748
876.63        65.56507
877.03        65.73787
877.44        66.30927
877.84        67.00308
878.24        67.36538
878.64        67.22018
879.04        66.57948
879.44        65.80789
879.84        65.55476
880.24        65.91247
880.64        66.64584
881.04         67.3381
881.44         67.3392
881.84        66.52287
882.24        65.14205
882.65        63.71552
883.05        63.03142
883.45        63.28583
883.85        64.24071
884.25        65.48976
884.65        66.33797
885.05        66.55588
885.45         66.3446
885.85        65.95869
886.25        65.78674
886.65        65.94209
887.05        66.28849
887.45        66.67269
887.85        66.86698
888.25        66.80275
888.65        66.56216
889.04        66.28951
889.44        66.22149
889.84        66.38483
890.24        66.69337
890.64        66.96404
891.04        66.90839
891.44        66.48209
891.84        65.82375
892.24        65.12943
892.64        64.67314
893.04        64.54276
893.44        64.67435
893.83        65.01768
894.23        65.43314
894.63        65.86715
895.03        66.30788
895.43         66.7542
895.83        67.20982
896.23        67.63841
896.63        67.99757
897.02        68.14178
897.42        67.89392
897.82        67.25875
898.22        66.35349
898.62         65.4213
899.01        64.80527
899.41        64.60811
899.81        64.73191
900.21        65.04363
900.61        65.30911
901.00        65.44389
901.40        65.50643
901.80        65.52758
902.20        65.55455
902.59        65.61774
902.99        65.67852
903.39        65.73406
903.79        65.79247
904.18        65.83853
904.58        65.86864
904.98        65.92389
905.38        66.06866
905.77        66.31205
906.17         66.6653
906.57        66.97221
906.96         66.9809
907.36        66.63786
907.76        66.02099
908.15        65.45591
908.55        65.43613
908.95        66.05571
909.34        67.17392
909.74        68.31948
910.14        68.79506
910.53        68.40774
910.93        67.41156
911.33         66.1959
911.72        65.35686
912.12        65.11909
912.52        65.28461
912.91        65.65567
913.31        65.95421
913.70        66.08865
914.10        66.13184
914.49        66.19566
914.89        66.36568
915.29        66.68143
915.68        67.08653
916.08        67.41264
916.47        67.47414
916.87        67.25032
917.26        66.79147
917.66        66.33756
918.05        66.11376
918.45        66.17911
918.84          66.507
919.24        66.89506
919.64        67.11985
920.03        67.12458
920.42         66.9478
920.82        66.77464
921.21        66.83897
921.61        67.17175
922.00        67.72402
922.40        68.28487
922.79        68.63034
923.19        68.65119
923.58        68.44442
923.98        68.14455
924.37        67.88981
924.77        67.74235
925.16        67.60973
925.55        67.49509
925.95        67.39105
926.34        67.29823
926.74        67.21854
927.13        67.05046
927.52        66.55192
927.92        65.77201
928.31        64.81947
928.70        63.95404
929.10        63.53722
929.49        63.63074
929.89        64.05399
930.28        64.77386
930.67         65.6081
931.07        66.40409
931.46        67.26637
931.85        67.86245
932.24        67.72092
932.64        66.85169
933.03        65.37338
933.42        63.93289
933.82        63.48652
934.21        64.21331
934.60        65.89764
934.99        67.87643
935.39        68.92269
935.78        68.71634
936.17        67.52979
936.56         66.0102
936.96        65.18465
937.35        65.32492
937.74        66.10835
938.13        67.03869
938.53        67.35839
938.92        66.89361
939.31        65.96426
939.70        64.97123
940.09        64.45833
940.49        64.52979
940.88        65.01083
941.27        65.71722
941.66        66.32037
942.05        66.68054
942.44        66.92333
942.84        67.05379
943.23        67.05948
943.62         66.9733
944.01        66.74182
944.40         66.5292
944.79        66.63663
945.18        67.09863
945.57        67.83339
945.97        68.48466
946.36        68.54225
946.75        67.85613
947.14        66.64915
947.53        65.31851
947.92        64.42226
948.31        64.10509
948.70        64.22878
949.09        64.59471
949.48        64.85558
949.87        64.89253
950.26        64.79969
950.65        64.72633
951.04        64.91409
951.43        65.40025
951.82        66.06285
952.21        66.68314
952.60        66.93445
952.99        66.76702
953.38        66.33087
953.77          65.834
954.16        65.60255
954.55        65.71448
954.94        66.02002
955.33        66.47615
955.72        66.99699
956.11         67.4974
956.50        68.03371
956.89        68.31541
957.28        67.86518
957.66        66.65625
958.05        64.91083
958.44        63.23627
958.83        62.50497
959.22        62.86283
959.61        64.07879
960.00        65.59456
960.39        66.34935
960.78        66.00665
961.16        64.88222
961.55        63.54236
961.94        62.72845
962.33        62.64299
962.72         63.0952
963.11        63.78561
963.49        64.19522
963.88        64.06027
964.27        63.54438
964.66        63.04971
965.04        63.17943
965.43        63.98999
965.82        65.36112
966.21        66.66208
966.60        66.71483
966.98        65.25685
967.37        62.83553
967.76        60.45153
968.15        59.35245
968.53        59.75741
968.92        61.33918
969.31        63.44207
969.69        64.72217
970.08        64.61333
970.47        63.54395
970.86        62.26461
971.24        61.84422
971.63        62.52262
972.02        63.97335
972.40        65.64964
972.79        66.25126
973.17        65.47147
973.56         63.8225
973.95        62.03785
974.33        61.02462
974.72        60.97894
975.11        61.57838
975.49        62.54509
975.88        63.28598
976.26        63.58972
976.65        63.60201
977.04        63.38276
977.42        62.97404
977.81        62.42216
978.19        61.70498
978.58        61.10247
978.96         61.0529
979.35          61.611
979.74        62.66327
980.12        63.97801
980.51        64.86826
980.89        65.21786
981.28        65.17593
981.66        64.89252
982.05        64.57117
982.43        64.32082
982.82        64.03445
983.20        63.97057
983.59        64.51792
983.97        65.79742
984.35        67.66194
984.74        69.47269
985.12        70.36651
985.51        70.04183
985.89        68.79335
986.28        67.22272
986.66         66.1651
987.04         65.9259
987.43        66.24917
987.81        66.91564
988.20        67.37599
988.58        67.43743
988.96        67.18153
989.35        66.78414
989.73         66.4744
990.12        66.28275
990.50        66.16188
990.88        65.82053
991.27        64.83469
991.65        63.23851
992.03        61.30257
992.42        59.64061
992.80        59.01925
993.18        59.58952
993.56        61.15745
993.95        63.15502
994.33        64.62214
994.71         65.0492
995.10        64.74424
995.48        64.11314
995.86        63.91505
996.24        64.32899
996.63        64.92667
997.01        65.63784
997.39        66.00884
997.77        65.85087
998.15         65.5196
998.54        64.85502
998.92        63.42896
999.30        61.42178
999.68        59.01844
1000.06        57.18189
1000.45        57.27748
1000.83         59.6256
1001.21        63.99522
1001.59        69.24532
1001.97        72.53133
1002.35        72.67105
1002.73        70.43059
1003.12        67.41708
1003.50        65.72311
1003.88        65.94706
1004.26        67.36886
1004.64        69.43832
1005.02        70.98327
1005.40        71.41652
1005.78         71.3137
1006.16        70.52891
1006.54        68.73657
1006.92        66.19533
1007.30        63.10248
1007.69        60.52671
1008.07        59.85221
1008.45         61.4827
1008.83        65.14639
1009.21         69.9519
1009.59        73.46236
1009.97         74.3585
1010.35        73.19804
1010.73        70.68889
1011.11        68.00201
1011.49        65.70697
1011.86        63.55746
1012.24        61.92302
1012.62        61.26222
1013.00        61.56562
1013.38        62.82711
1013.76        64.61697
1014.14        65.68824
1014.52        65.49553
1014.90        64.39204
1015.28        62.89302
1015.66        61.77814
1016.04        61.27061
1016.41        61.07312
1016.79        61.30347
1017.17        62.23709
1017.55        63.71661
1017.93         65.5564
1018.31         67.1389
1018.69        67.55788
1019.06        66.67612
1019.44        64.69916
1019.82        61.97809
1020.20        59.65265
1020.58        58.41986
1020.95        57.92566
1021.33        58.27847
1021.71        59.46809
1022.09        61.42487
1022.46        64.50723
1022.84         67.7467
1023.22        68.66213
1023.60        66.44518
1023.97        61.77183
1024.35        57.28355
1024.73        55.97892
