SpectraSmart Spectrum 2.9.0.0
--------- Device Information -----------
Spectrum Name :  反射率_0
Saving Time :  2024/04/26 22:44:22
Spectro-Module Model Name : SE2030-DUVN
Spectro-Module Serial Number : OS361AC55029948
Wavelength Start : 200
Wavelength End : 1025
Wavelength Unit : Wavelength(nm)
Spectrum Unit : Reflectance(%)
-----------Spectrum Setting ------------
Integration Time : 20ms
Average : 10
Boxcar : 0
Background removal :  enabled
linearity correction :  enabled
SC :  disabled
Intensity correction :  disabled
DWT denoise :  enabled
savitzky-golay :  disabled
FFT :  disabled
Running average :  disabled
Kalman :  disabled
High pass :  disabled
---------------BEGIN--------------------
Wavelength(nm)             Reflectance(%)
200.29               0
200.75        48.93904
201.21        44.20513
201.67        40.72689
202.13        39.82114
202.58        41.34209
203.04        45.62105
203.50        51.62791
203.96        55.07056
204.42        53.11412
204.88        46.02245
205.34        37.44368
205.80         34.7874
206.26        39.31189
206.72        47.36499
207.18        54.95181
207.64        59.08861
208.10         59.9211
208.55        59.15822
209.01        56.19154
209.47        52.32312
209.93         50.1717
210.39        49.43031
210.85        50.43769
211.31        54.23936
211.77        62.47754
212.23        81.15188
212.69        127.3588
213.14        203.2505
213.60        196.7099
214.06        140.2043
214.52        102.6078
214.98        85.62376
215.44        78.04285
215.90        73.45588
216.36        70.77646
216.81        69.35938
217.27        69.17062
217.73        71.70158
218.19         76.1132
218.65        76.85207
219.11        72.73483
219.57        67.01041
220.02        63.80208
220.48         66.1419
220.94        73.78525
221.40        87.65211
221.86        106.5429
222.32        116.0378
222.77        105.7011
223.23        86.51411
223.69        69.07129
224.15        58.62791
224.61        53.67465
225.06        51.29995
225.52        50.59213
225.98        50.48014
226.44        50.59787
226.90        51.31909
227.36        51.95946
227.81        51.33668
228.27        49.54584
228.73         46.8511
229.19        44.59796
229.65        44.41077
230.10        46.17729
230.56        49.26819
231.02         52.0859
231.48        52.09372
231.93        49.07273
232.39        44.59719
232.85        40.22169
233.31        37.89669
233.77        37.86497
234.22        39.37807
234.68         41.8337
235.14        44.46932
235.60        46.92131
236.05        49.51751
236.51         51.8528
236.97        53.00732
237.43        52.69474
237.88        51.02546
238.34        48.85415
238.80        48.01856
239.26        49.30729
239.71        53.14298
240.17        59.27722
240.63        66.29231
241.08         72.9866
241.54        78.64637
242.00        84.42838
242.46        93.91472
242.91        110.5193
243.37        136.3464
243.83        171.2584
244.28        198.0518
244.74        192.9382
245.20        158.3651
245.66        119.2537
246.11        96.05271
246.57        88.95296
247.03        91.66945
247.48        98.81754
247.94        101.2349
248.40        97.68758
248.85        92.39636
249.31        88.05763
249.77        85.27061
250.22         83.4024
250.68        81.19221
251.14        77.94933
251.59        73.58447
252.05        69.55701
252.51        67.53315
252.96        66.63104
253.42        65.82006
253.88        64.88539
254.33        63.60612
254.79        64.05976
255.25        67.82965
255.70        74.35329
256.16        82.77772
256.62        89.36162
257.07        88.67268
257.53        82.68254
257.99        75.07558
258.44        68.81949
258.90        66.53369
259.35        66.90347
259.81        68.82757
260.27        70.64086
260.72        70.42239
261.18        68.42399
261.63         65.3285
262.09        62.44942
262.55        60.55369
263.00        59.52924
263.46        59.13395
263.91        58.63662
264.37        57.48388
264.83        55.64765
265.28        53.42606
265.74        51.50048
266.19        50.38838
266.65          50.175
267.11        50.49594
267.56        50.91927
268.02        50.77871
268.47        49.90582
268.93        48.58249
269.38        47.01526
269.84        45.57803
270.30        44.38532
270.75        43.29935
271.21        42.40697
271.66          41.787
272.12        41.40757
272.57        41.21996
273.03        40.98595
273.48        40.29478
273.94        39.15207
274.39        37.69628
274.85          36.255
275.31        35.14431
275.76        34.41348
276.22        33.97518
276.67        33.71054
277.13         33.5433
277.58        33.36102
278.04        33.20136
278.49         32.9426
278.95        32.52122
279.40        31.88972
279.86        31.15562
280.31        30.34394
280.77        29.60594
281.22        28.94873
281.68        28.40088
282.13        27.95833
282.59         27.6923
283.04        27.56301
283.50         27.5699
283.95        27.62193
284.41         27.5843
284.86        27.42301
285.32        27.19695
285.77        26.96873
286.22         26.8929
286.68        26.99382
287.13        27.18703
287.59        27.41019
288.04        27.52497
288.50        27.51864
288.95        27.40333
289.41        27.25532
289.86        27.11609
290.32        27.04593
290.77        27.03567
291.22         27.0802
291.68        27.15476
292.13        27.26508
292.59        27.45648
293.04        27.82196
293.50        28.51692
293.95        29.54906
294.40        30.86761
294.86        32.33044
295.31        33.70407
295.77         34.9413
296.22        36.09246
296.68        37.28421
297.13        38.70474
297.58        40.40647
298.04        42.32173
298.49        44.35115
298.95        46.36007
299.40        48.28671
299.85        50.17517
300.31        52.06392
300.76         53.9875
301.21         55.9692
301.67        58.00642
302.12         60.0554
302.58        62.14515
303.03        64.22994
303.48        66.34122
303.94        68.50337
304.39        70.67709
304.84        72.88659
305.30        75.14065
305.75        77.38895
306.20        79.65556
306.66        81.93495
307.11        84.15537
307.57        86.29723
308.02        88.21691
308.47        89.92422
308.93        91.47399
309.38        92.90248
309.83        94.39365
310.29        95.99699
310.74         97.6584
311.19        99.29555
311.65        100.7374
312.10        101.9066
312.55        102.8387
313.00         103.639
313.46        104.4825
313.91        105.3929
314.36        106.3597
314.82        107.2734
315.27        107.9782
315.72        108.4262
316.18        108.7032
316.63        108.9267
317.08        109.3308
317.53        109.9689
317.99        110.7573
318.44        111.5777
318.89         112.201
319.35        112.5587
319.80        112.7255
320.25        112.8003
320.70        112.9465
321.16        113.2154
321.61        113.6032
322.06        114.0398
322.51        114.4217
322.97        114.7025
323.42        114.9141
323.87        115.1624
324.32        115.6415
324.78        116.3355
325.23        117.2588
325.68        118.1028
326.13        118.3786
326.59        117.9889
327.04        117.1214
327.49        116.1841
327.94        115.8529
328.39        116.2944
328.85        117.2889
329.30        118.5939
329.75        119.4783
330.20        119.7035
330.66          119.44
331.11        119.0446
331.56        119.0118
332.01        119.4915
332.46         120.295
332.92        121.1378
333.37        121.7313
333.82        121.9025
334.27        121.8191
334.72        121.6345
335.17        121.5724
335.63        121.7218
336.08         122.081
336.53        122.6547
336.98        123.5042
337.43        124.5978
337.88        125.8741
338.34        127.1855
338.79          128.41
339.24        129.4032
339.69        130.1888
340.14        130.6654
340.59        130.7127
341.05        130.3995
341.50        129.7835
341.95        129.2059
342.40          129.18
342.85        129.8124
343.30        130.9684
343.75        132.3188
344.20        133.2938
344.66        133.7264
345.11        133.7674
345.56        133.6287
346.01        133.6614
346.46        133.9814
346.91        134.4846
347.36         135.047
347.81        135.5007
348.26        135.7868
348.72        135.9413
349.17        136.0797
349.62        136.4173
350.07        136.9694
350.52        137.6728
350.97        138.2124
351.42        138.0952
351.87        137.2725
352.32         135.947
352.77        134.6105
353.22        133.9753
353.67        134.1776
354.13        134.9893
354.58        136.0004
355.03        136.4709
355.48        136.1806
355.93        135.3408
356.38        134.2982
356.83         133.578
357.28        133.2916
357.73        133.2354
358.18        133.1407
358.63        132.6024
359.08        131.5362
359.53        130.1318
359.98        128.6132
360.43        127.2722
360.88        126.1935
361.33        125.2919
361.78        124.4865
362.23        123.6606
362.68        122.7821
363.13        121.8996
363.58        121.0495
364.03        120.2684
364.48        119.5497
364.93        118.8537
365.38        118.1321
365.83         117.332
366.28        116.4458
366.73        115.4957
367.18        114.5249
367.63        113.5929
368.08        112.7192
368.53         111.903
368.98        111.1137
369.43        110.2941
369.88        109.4371
370.33        108.5619
370.78        107.7297
371.23        107.0475
371.68        106.5322
372.13         106.133
372.58        105.7664
373.03        105.2999
373.48        104.6844
373.93        103.9476
374.38         103.111
374.83        102.2242
375.28        101.3193
375.72         100.371
376.17        99.46854
376.62        98.62067
377.07        97.85098
377.52        97.19575
377.97        96.63009
378.42        96.11964
378.87         95.6531
379.32         95.1888
379.77        94.82701
380.22          94.719
380.67         94.8433
381.11        95.17455
381.56        95.33804
382.01        94.82346
382.46        93.59304
382.91        91.90052
383.36        90.24261
383.81        89.29488
384.26        89.15965
384.71        89.60221
385.15        90.30201
385.60        90.69094
386.05        90.58208
386.50        90.14297
386.95        89.47503
387.40        88.74419
387.85        88.04713
388.29        87.28584
388.74        86.63742
389.19         86.1364
389.64        85.77401
390.09        85.52255
390.54        85.32721
390.98        85.06459
391.43        84.75082
391.88         84.4166
392.33        84.05317
392.78        83.64251
393.23        83.19972
393.67        82.70585
394.12        82.31525
394.57        82.06763
395.02        81.97903
395.47        82.05775
395.91        82.20329
396.36         82.1508
396.81        81.88609
397.26        81.52174
397.71        81.10503
398.15        80.73984
398.60        80.56316
399.05        80.21833
399.50        79.79784
399.95         80.0706
400.39        80.77996
400.84        80.33381
401.29        78.91547
401.74        78.40855
402.18        78.79241
402.63        78.44875
403.08        77.48188
403.53        77.07589
403.97        77.26419
404.42        77.50268
404.87        77.65888
405.32        77.67254
405.76        77.47346
406.21        77.23624
406.66        77.02423
407.11        76.66133
407.55        76.33772
408.00        76.63689
408.45        77.38499
408.90        77.63361
409.34        77.23274
409.79        76.61877
410.24         76.0014
410.68        75.55573
411.13        75.36378
411.58        75.33469
412.03         75.3801
412.47        75.38738
412.92        75.29195
413.37        75.15952
413.81        75.03594
414.26        75.06502
414.71        75.23577
415.15        75.51446
415.60        75.80183
416.05        76.02174
416.49         76.1399
416.94        76.16958
417.39        76.12454
417.83        76.01167
418.28         75.8549
418.73        75.65471
419.17        75.47243
419.62        75.40993
420.07        75.47227
420.51        75.60429
420.96        75.76198
421.41        75.78371
421.85        75.61726
422.30        75.47038
422.74        75.29327
423.19        74.95768
423.64        74.52787
424.08         74.3869
424.53        74.55008
424.98        74.70119
425.42        74.81181
425.87        75.22437
426.31        75.76267
426.76        75.56459
427.21        74.79951
427.65        74.60934
428.10         74.9628
428.54        75.02921
428.99         74.8559
429.44        74.63271
429.88        74.54111
430.33        75.20722
430.77         76.2546
431.22        76.69112
431.66        76.43208
432.11        75.90254
432.56        75.31046
433.00        75.19342
433.45        75.73166
433.89        76.03312
434.34        75.55943
434.78        77.41671
435.23        76.75953
435.67        75.09852
436.12        75.55911
436.57        75.50998
437.01        75.97622
437.46        76.20606
437.90        76.32664
438.35        74.91208
438.79        75.58788
439.24        75.46346
439.68        75.53437
440.13        75.95164
440.57        76.61664
441.02         76.5491
441.46        75.88914
441.91        76.45929
442.35        77.74046
442.80        77.45715
443.24        75.92928
443.69        75.77222
444.13        76.91548
444.58        77.42495
445.02        77.21085
445.47         77.2395
445.91        77.55123
446.36        77.83463
446.80        78.05875
447.24        78.32182
447.69        78.56537
448.13        78.55054
448.58        78.36257
449.02        78.35548
449.47        78.52474
449.91        78.49575
450.36        78.28696
450.80        78.14813
451.25        78.11781
451.69        77.97034
452.13          77.784
452.58        77.84784
453.02        78.09718
453.47        78.19424
453.91        78.09706
454.36        77.99726
454.80        77.92748
455.24        77.71624
455.69         77.3644
456.13        77.18559
456.58        77.30994
457.02        76.43383
457.46        76.52847
457.91        76.73253
458.35        77.28811
458.79        77.24387
459.24        76.62585
459.68        75.76706
460.13        74.94234
460.57        74.68052
461.01        75.16321
461.46        75.27229
461.90        75.43151
462.34        77.25987
462.79        76.12458
463.23        76.41694
463.68        76.58862
464.12        76.44604
464.56        75.89503
465.01        74.84372
465.45        73.69234
465.89        73.51057
466.34        74.09964
466.78        74.51891
467.22        74.69959
467.67        73.84157
468.11        74.05311
468.55        74.05595
468.99        74.35896
469.44        74.33015
469.88        73.97622
470.32         73.6906
470.77        73.53683
471.21        73.45403
471.65        73.43998
472.10        73.51963
472.54        73.63354
472.98         73.6434
473.42        73.51866
473.87        73.44988
474.31        73.34743
474.75        72.86716
475.20        72.25068
475.64        71.94363
476.08        72.59309
476.52        72.68059
476.97        72.31488
477.41        72.31118
477.85        72.82187
478.29        72.09737
478.74        72.50889
479.18        72.99725
479.62        72.53993
480.06        72.53413
480.50         72.4753
480.95        72.43189
481.39        72.39537
481.83        72.25557
482.27        72.02612
482.72         72.4005
483.16        72.45633
483.60        71.90331
484.04        72.42274
484.48        72.58806
484.93         72.5572
485.37        72.53265
485.81        71.30856
486.25        70.93443
486.69        71.95112
487.14        74.40858
487.58        73.15324
488.02        72.07427
488.46        71.39033
488.90        71.42331
489.34        72.61167
489.79        73.42721
490.23        72.89574
490.67        72.19115
491.11        71.40956
491.55        71.26652
491.99        71.68693
492.43        71.67556
492.88        71.22194
493.32        71.08166
493.76        71.27916
494.20        71.41325
494.64        71.45122
495.08        71.54626
495.52        71.65422
495.96        71.61354
496.41        71.45789
496.85         71.4072
497.29          71.352
497.73        71.42323
498.17        70.74107
498.61         70.5702
499.05        70.65766
499.49        70.77856
499.93        70.63611
500.37        70.81683
500.82         71.2132
501.26        71.21946
501.70        70.77345
502.14        71.46274
502.58        71.16274
503.02        71.22644
503.46        71.40088
503.90        71.52978
504.34        71.65559
504.78        71.61008
505.22        71.36528
505.66         71.0787
506.10        70.87476
506.54        70.55401
506.98        70.06786
507.42        70.98879
507.86        70.48286
508.30          70.717
508.74        70.82787
509.18        70.90638
509.62        70.92072
510.06        70.87711
510.50        70.80651
510.94        70.67722
511.38         70.5377
511.82        70.46701
512.26        70.48225
512.70        70.56799
513.14         70.6782
513.58        70.73534
514.02        70.72257
514.46        70.65112
514.90        70.55964
515.34        70.54592
515.78        70.63013
516.22        70.64397
516.66        70.78548
517.10        70.79701
517.54        70.73518
517.98        70.62174
518.42        70.48691
518.86         70.3722
519.30        70.29322
519.74        70.24005
520.18        70.21703
520.62        70.22936
521.06        70.27511
521.50        70.35876
521.93        70.45865
522.37        70.51458
522.81        70.52303
523.25        70.48992
523.69        70.45358
524.13        70.47958
524.57        70.57307
525.01        70.70245
525.45        70.81501
525.89        70.82655
526.32         70.7119
526.76        70.52564
527.20        70.29797
527.64        70.08184
528.08        69.90351
528.52        69.75034
528.96        69.64914
529.40        69.63951
529.83        69.71593
530.27        69.87282
530.71         70.0396
531.15        70.10903
531.59        70.05734
532.03        69.90938
532.46        69.71878
532.90        69.62311
533.34         69.6397
533.78        69.69036
534.22        69.72712
534.66         69.7635
535.09        69.73158
535.53         69.4962
535.97        69.12976
536.41         68.9229
536.85        68.91289
537.28        68.96132
537.72        69.04211
538.16        69.16575
538.60        69.30964
539.04        69.46495
539.47        69.60256
539.91         69.7243
540.35        69.80762
540.79        69.84916
541.22        69.84583
541.66        69.81876
542.10        69.77071
542.54         69.7099
542.97        69.62812
543.41         69.5437
543.85        69.44966
544.29        69.35123
544.72        69.26463
545.16        69.22501
545.60        69.22041
546.04        69.33521
546.47        69.51411
546.91        69.47039
547.35        69.28128
547.79        69.38004
548.22        69.71475
548.66        69.89316
549.10         69.9297
549.53        69.86358
549.97         69.7435
550.41        69.53569
550.84        69.32308
551.28        69.26745
551.72        69.33852
552.15        69.35101
552.59        69.32829
553.03        69.04974
553.46        69.57856
553.90        69.16679
554.34        69.34323
554.77        69.40373
555.21        69.28508
555.65        69.34664
556.08         69.4362
556.52        69.52648
556.96        69.56488
557.39        69.61807
557.83        69.66981
558.27        69.51354
558.70        69.19109
559.14        69.05857
559.57        69.09131
560.01        68.96401
560.45        68.75114
560.88        68.87717
561.32        69.28809
561.75        69.53167
562.19        69.56152
562.63        69.43096
563.06        69.22003
563.50        69.18398
563.93        69.25574
564.37        69.28432
564.80         69.2699
565.24         69.1138
565.68         68.7188
566.11        69.42683
566.55        68.75385
566.98         68.6911
567.42        68.62978
567.85         68.7323
568.29        69.27599
568.72        69.54533
569.16        69.67792
569.60        70.03233
570.03        70.04452
570.47        70.31045
570.90        70.67046
571.34        69.95207
571.77         70.1721
572.21        70.54293
572.64        69.97531
573.08         70.7225
573.51        69.71175
573.95        69.75333
574.38        70.18346
574.82        70.56625
575.25        70.20872
575.69        70.31825
576.12        70.67905
576.56        69.83665
576.99        69.79573
577.42        69.53238
577.86        70.07079
578.29        70.23244
578.73        70.66746
579.16        70.55431
579.60         70.1067
580.03        69.92088
580.47        69.78706
580.90        70.76019
581.33         70.4427
581.77         70.6119
582.20          70.349
582.64        71.20398
583.07        71.00056
583.51        70.83855
583.94        70.34644
584.37        70.15994
584.81        70.34081
585.24        70.29581
585.68        70.02194
586.11        70.12513
586.54        70.80237
586.98        69.58731
587.41        69.41016
587.85         69.4808
588.28         69.6719
588.71        69.99876
589.15        69.37524
589.58        69.57497
590.01         69.4924
590.45        69.26665
590.88        70.17551
591.31        70.04478
591.75        69.49635
592.18        68.97797
592.61        68.70577
593.05        69.63725
593.48        70.14597
593.91        70.24759
594.35        70.13567
594.78        69.41809
595.21        68.83337
595.65        69.05502
596.08        70.18628
596.51        70.33097
596.94        69.61831
597.38        69.24216
597.81        69.19854
598.24        70.05617
598.68        69.92515
599.11        69.16273
599.54        69.99104
599.97        69.96239
600.41        69.72943
600.84        69.20377
601.27        69.40439
601.70        69.42011
602.14        69.52656
602.57         69.3599
603.00        69.14439
603.43        68.59139
603.87        69.33707
604.30        69.57317
604.73        69.77438
605.16        69.04737
605.60        68.93495
606.03        68.54983
606.46        68.31554
606.89        68.85642
607.32        69.30049
607.76         68.9538
608.19         69.2934
608.62        69.22442
609.05        69.14639
609.48        68.91042
609.92        69.39982
610.35        69.42987
610.78        68.67185
611.21        69.00869
611.64        68.87424
612.07        69.13728
612.50        69.00733
612.94        68.98181
613.37        68.90841
613.80        68.86873
614.23        68.39902
614.66        68.12624
615.09        68.81721
615.52        68.93436
615.96        68.71993
616.39        68.67627
616.82        68.83599
617.25        68.59391
617.68        68.40272
618.11         68.4769
618.54         68.8333
618.97        68.97236
619.40        68.89996
619.84        68.52322
620.27        68.48917
620.70        68.51379
621.13        68.67884
621.56        68.18103
621.99        67.15694
622.42        67.17291
622.85        67.67292
623.28        67.60786
623.71        67.65867
624.14        67.96312
624.57        68.35031
625.00        67.99927
625.43        68.29367
625.86        68.20733
626.29        68.29861
626.72        67.59162
627.15        68.00777
627.58        67.97712
628.01        67.99785
628.44        67.95691
628.87        67.85914
629.30        67.74126
629.73        67.62988
630.16        67.61054
630.59         67.6992
631.02        67.77081
631.45        67.97523
631.88         68.0907
632.31        68.14698
632.74        68.15279
633.17        68.11261
633.60        68.03504
634.03         67.9288
634.46        67.78887
634.89          67.631
635.32        67.49865
635.75        67.40926
636.18        67.28918
636.61        67.16589
637.04        67.12163
637.47        67.15928
637.89        67.24429
638.32        67.32201
638.75        67.36792
639.18        67.36768
639.61        67.33077
640.04        67.27392
640.47        67.22572
640.90        67.19711
641.33        67.18598
641.76        67.19722
642.18        67.23386
642.61        67.26865
643.04        67.35946
643.47        67.39591
643.90        67.43951
644.33        67.45124
644.76        67.44004
645.18        67.39439
645.61        67.27836
646.04        67.10977
646.47        66.91523
646.90        66.74581
647.33        66.67174
647.75        66.67582
648.18        66.78334
648.61        67.00309
649.04        67.07826
649.47        66.91193
649.89        67.63071
650.32         67.3706
650.75         67.1803
651.18        66.69863
651.61        66.66075
652.03        67.06214
652.46        67.35996
652.89        67.46401
653.32        67.43042
653.74        67.37331
654.17        67.18024
654.60        67.76007
655.03        67.68046
655.46        66.88497
655.88        66.91906
656.31        68.16577
656.74         69.0717
657.16        72.78942
657.59        76.60832
658.02        70.14363
658.45         68.5797
658.87        67.88201
659.30        67.64713
659.73        67.74465
660.15        68.57719
660.58        67.28284
661.01        67.12827
661.44        67.28124
661.86        67.10605
662.29        66.57133
662.72        66.93946
663.14        66.89961
663.57        66.89121
664.00        66.63805
664.42         66.7127
664.85        67.12542
665.27        67.57237
665.70        67.88821
666.13        68.00672
666.55        67.89332
666.98        67.49328
667.41        66.92209
667.83        66.81133
668.26        66.52731
668.69        66.57984
669.11        66.71343
669.54        66.84182
669.96        66.93306
670.39        67.01913
670.82        67.11325
671.24        67.18787
671.67        67.24671
672.09        67.28967
672.52        67.32386
672.94        67.32845
673.37        67.29314
673.80        67.16066
674.22        66.98292
674.65        66.87116
675.07        66.86213
675.50        66.88768
675.92        66.91676
676.35        66.90575
676.77        66.84258
677.20        66.73993
677.62        66.63472
678.05        66.58311
678.47        66.59612
678.90        66.66592
679.32        66.76024
679.75         66.8094
680.17        66.78899
680.60        66.78136
681.02        66.83751
681.45        66.72155
681.87        66.90583
682.30         67.0916
682.72          67.352
683.15        67.43866
683.57        67.36015
684.00        67.26891
684.42         67.2233
684.85        67.23925
685.27        67.33189
685.70        67.49975
686.12        67.66098
686.54        67.76665
686.97         67.8054
687.39        67.48235
687.82        67.42823
688.24        67.25028
688.66        67.15047
689.09        67.08913
689.51        67.07805
689.94        67.09314
690.36        67.12661
690.78        67.17652
691.21        67.23982
691.63        67.30067
692.06        67.35638
692.48        67.41799
692.90        67.45255
693.33        67.41623
693.75        67.30429
694.17        67.10077
694.60        66.90523
695.02        66.88339
695.44        67.03426
695.87        67.33432
696.29        67.64664
696.71        67.53775
697.14        67.12359
697.56        66.99036
697.98        67.14431
698.41        67.49055
698.83        67.29601
699.25        67.49597
699.68         67.7635
700.10         67.8125
700.52        67.58317
700.94        67.19076
701.37        66.80106
701.79        66.66368
702.21        66.83084
702.64        67.20604
703.06        67.64751
703.48        67.90622
703.90        67.91019
704.33        67.73644
704.75        67.48171
705.17        67.29288
705.59        67.22917
706.01        67.24636
706.44        67.32208
706.86        67.45203
707.28        67.60889
707.70        67.76698
708.12        67.92918
708.55        68.14828
708.97        68.38083
709.39        68.45193
709.81         68.3605
710.23         68.2823
710.66        68.23123
711.08         68.1256
711.50        67.96323
711.92        67.80507
712.34        67.66837
712.76        67.55858
713.19        67.47775
713.61        67.46355
714.03        67.50529
714.45        67.59322
714.87        67.73743
715.29        67.95562
715.71        68.23214
716.13        68.53912
716.56        68.78836
716.98        68.93437
717.40        68.92162
717.82        68.76354
718.24        68.50751
718.66         68.2754
719.08        68.09535
719.50         67.8764
719.92        67.67365
720.34        67.64681
720.76        67.80119
721.19        68.03479
721.61        68.32439
722.03        68.60114
722.45        68.81813
722.87         68.9763
723.29        69.02807
723.71        68.90884
724.13        68.62957
724.55        68.22537
724.97        67.81284
725.39        67.58741
725.81        67.60078
726.23        67.78294
726.65        68.04174
727.07        68.37238
727.49        68.47694
727.91        68.58288
728.33        68.65376
728.75        68.76107
729.17        68.91431
729.59        69.07789
730.01        69.20123
730.43         69.2109
730.85        69.09391
731.27        68.87936
731.69        68.63453
732.10        68.45665
732.52         68.3728
732.94        68.37923
733.36        68.44507
733.78        68.37941
734.20        68.14971
734.62        68.05932
735.04        68.25101
735.46         67.6767
735.88        68.35915
736.30        68.62069
736.72        68.98611
737.13        69.25614
737.55        69.33108
737.97        69.44264
738.39        69.51158
738.81        69.04326
739.23        68.25169
739.65        68.17738
740.06        68.73633
740.48        68.99786
740.90        68.89741
741.32        68.98411
741.74        69.27615
742.16        69.46446
742.57        69.53007
742.99        69.53629
743.41        69.47837
743.83        69.33646
744.25        69.12489
744.67        68.83529
745.08        68.58003
745.50        68.52028
745.92         68.6904
746.34        69.03885
746.75        69.40616
747.17        69.51708
747.59        69.32189
748.01        68.90738
748.42        68.43734
748.84        68.19291
749.26        68.24472
749.68        68.45129
750.09        68.70663
750.51        68.94985
750.93        69.07192
751.35         68.9123
751.76         68.5373
752.18        68.25159
752.60        68.08946
753.01        67.93373
753.43        67.79246
753.85        67.70475
754.27        67.66742
754.68        67.96935
755.10        68.05635
755.52         68.2798
755.93        68.45004
756.35        68.57137
756.77        68.68332
757.18        68.78415
757.60        68.87565
758.02         69.1129
758.43        69.41518
758.85        68.97719
759.26         68.8843
759.68        68.49049
760.10        68.22227
760.51        68.37864
760.93        68.84676
761.34        68.84367
761.76        68.59757
762.18        68.72787
762.59         69.2854
763.01        69.56033
763.42        69.52387
763.84        69.47627
764.26        69.44647
764.67        69.16735
765.09        68.79253
765.50        68.66899
765.92        68.79531
766.33         68.7715
766.75        68.53897
767.16        68.48456
767.58        68.56403
768.00         68.5189
768.41         68.4299
768.83        68.55676
769.24        68.81953
769.66        69.07621
770.07         69.2211
770.49        68.82196
770.90        68.16348
771.32        68.53851
771.73        69.72646
772.15        70.10243
772.56        69.57668
772.97        68.96808
773.39        68.52818
773.80        68.44582
774.22        68.70438
774.63        68.96306
775.05        69.08558
775.46        69.27234
775.88        69.44883
776.29        69.45639
776.70        69.34673
777.12        69.34209
777.53        69.48304
777.95        69.65395
778.36        69.80733
778.77        69.83371
779.19        69.73325
779.60        69.57787
780.02        69.39408
780.43         69.3057
780.84        69.36663
781.26        69.21624
781.67        68.98216
782.09        69.58788
782.50        70.71548
782.91        70.56254
783.33        69.53817
783.74        69.06785
784.15        69.33409
784.57        69.37862
784.98        69.20746
785.39        69.25055
785.81        69.50448
786.22        69.85873
786.63        70.22276
787.04        70.44923
787.46         70.5127
787.87         70.4332
788.28        70.30235
788.70        70.23888
789.11        70.25589
789.52        70.35822
789.93        70.47439
790.35        70.47539
790.76        70.33706
791.17        70.08212
791.58        69.83809
792.00        69.68922
792.41        69.66801
792.82        70.02929
793.23        70.53538
793.65         70.1589
794.06        69.22805
794.47        69.30755
794.88        70.15586
795.29        71.01018
795.71        70.21001
796.12         69.9869
796.53        70.00237
796.94        70.05727
797.35        70.16801
797.76        70.42185
798.18        70.72539
798.59         70.9254
799.00        70.96103
799.41         70.8541
799.82        70.68703
800.23        70.61527
800.64        70.67141
801.06        70.77434
801.47        70.88113
801.88        70.83246
802.29        70.59067
802.70        70.20736
803.11        69.78673
803.52        69.49196
803.93        69.39866
804.34        69.48575
804.75        69.67384
805.17        69.91722
805.58        70.22964
805.99        70.26998
806.40        70.16206
806.81        70.90542
807.22        72.14176
807.63        72.00491
808.04        70.68393
808.45        70.08906
808.86        70.36491
809.27        70.46862
809.68        70.29622
810.09        70.19168
810.50        70.14455
810.91         70.0588
811.32        70.03316
811.73         70.2197
812.14        70.62833
812.55          71.223
812.96        71.79562
813.37        71.95269
813.78        71.60696
814.19        70.91127
814.60        70.13492
815.01        69.64485
815.42        69.52411
815.83        69.67041
816.24        69.97879
816.65         70.2367
817.05        70.35877
817.46        70.38831
817.87        70.36839
818.28        70.30935
818.69        70.23126
819.10        70.10465
819.51        70.00335
819.92        70.07665
820.33        70.34511
820.74        70.76029
821.14        71.19489
821.55        71.43161
821.96        71.42034
822.37        71.22595
822.78        70.94085
823.19        70.72848
823.60        70.65044
824.00        70.68457
824.41        70.76289
824.82        70.87865
825.23        71.00395
825.64        71.15183
826.04        71.29691
826.45        71.35024
826.86        71.31169
827.27         71.2043
827.68        71.06181
828.08        70.97584
828.49        70.92399
828.90        70.90192
829.31        70.93148
829.72        71.04832
830.12        71.26714
830.53         71.5146
830.94        71.70715
831.35        71.65376
831.75        71.33842
832.16        70.81323
832.57        70.23443
832.97        69.82572
833.38        69.66129
833.79        69.66488
834.20        69.81879
834.60        70.08662
835.01        70.43058
835.42        70.89286
835.82        71.36089
836.23        71.55505
836.64        71.44871
837.04        71.07946
837.45        70.69418
837.86         70.7702
838.26        71.42283
838.67        72.46731
839.08        73.53631
839.48        73.92473
839.89        73.44147
840.29        72.34652
840.70        71.16155
841.11        70.45128
841.51        70.37834
841.92        70.75196
842.33        71.39519
842.73        72.00084
843.14        72.32951
843.54        72.51479
843.95         72.6138
844.35        72.77503
844.76        73.00455
845.17         73.2292
845.57        73.34203
845.98         73.1568
846.38        72.68343
846.79        72.01353
847.19        71.32748
847.60        70.87966
848.00        70.75465
848.41        70.84682
848.81         71.1115
849.22        71.37772
849.62        71.61341
850.03        71.85167
850.43        72.03606
850.84        72.00513
851.24        71.79408
851.65        71.36767
852.05        71.00383
852.46        71.08764
852.86        71.68119
853.27        72.61791
853.67        73.51747
854.07        73.98083
854.48        73.89983
854.88        73.43114
855.29        72.69011
855.69          72.037
856.10        71.55174
856.50        71.23244
856.90        71.03118
857.31        70.88289
857.71         70.8163
858.12         70.8092
858.52        70.90384
858.92        71.02956
859.33        71.13432
859.73        71.24262
860.13        71.27073
860.54        71.12486
860.94         70.8385
861.34        70.43304
861.75        69.99522
862.15        69.71331
862.55        69.62132
862.96        69.64452
863.36        69.78942
863.76        69.96685
864.17        70.11893
864.57        70.29263
864.97        70.38455
865.38        70.24613
865.78        69.89006
866.18         69.3453
866.58        68.78561
866.99        68.52686
867.39        68.67943
867.79        69.14752
868.19        69.74561
868.60        70.15941
869.00        70.32705
869.40        70.29098
869.80        70.15875
870.21        70.13945
870.61        70.34282
871.01        70.63439
871.41        70.81756
871.81        70.61844
872.22        70.00392
872.62        69.08688
873.02        68.13451
873.42        67.59439
873.82        67.59966
874.22        68.01183
874.63        68.59694
875.03         68.9945
875.43        69.06975
875.83        68.92429
876.23        68.66471
876.63        68.45676
877.03        68.36294
877.44        68.30611
877.84        68.26405
878.24        68.22771
878.64        68.15032
879.04        67.91224
879.44        67.65925
879.84        67.70541
880.24        68.05243
880.64        68.56361
881.04        68.94949
881.44         68.7648
881.84        67.94465
882.24        66.67737
882.65        65.36011
883.05         64.5976
883.45        64.55931
883.85         65.0871
884.25        65.94096
884.65        66.69109
885.05        67.16379
885.45        67.45132
885.85        67.63555
886.25        67.85502
886.65        68.14326
887.05        68.41985
887.45        68.59897
887.85        68.57155
888.25        68.32201
888.65        67.91683
889.04        67.46996
889.44        67.16826
889.84        67.04873
890.24        67.07082
890.64        67.15544
891.04        67.16779
891.44        67.07168
891.84        66.91695
892.24        66.76107
892.64        66.68006
893.04        66.70527
893.44        66.82897
893.83        67.03354
894.23         67.2399
894.63        67.44066
895.03        67.61525
895.43        67.82885
895.83        68.19814
896.23         68.6991
896.63        69.24947
897.02        69.62872
897.42         69.5212
897.82        68.89376
898.22        67.92552
898.62        66.84945
899.01        65.99409
899.41        65.49372
899.81         65.2532
900.21         65.2907
900.61        65.62338
901.00        66.19026
901.40         66.9516
901.80        67.70168
902.20        68.10345
902.59        68.08958
902.99        67.73943
903.39        67.21062
903.79         66.7882
904.18         66.5677
904.58        66.47533
904.98        66.53689
905.38        66.79139
905.77        67.21719
906.17        67.83811
906.57        68.44281
906.96        68.66653
907.36         68.4229
907.76        67.81166
908.15        67.18095
908.55        67.08015
908.95        67.62522
909.34        68.64546
909.74        69.71642
910.14        70.22198
910.53        69.96989
910.93        69.19543
911.33        68.15999
911.72        67.25262
912.12        66.68059
912.52        66.33336
912.91        66.17772
913.31        66.18295
913.70        66.31957
914.10        66.59052
914.49        67.00973
914.89        67.48994
915.29        67.99848
915.68        68.51234
916.08        68.89453
916.47        69.01633
916.87        68.87134
917.26        68.48272
917.66        68.05438
918.05        67.76327
918.45        67.67834
918.84        67.81198
919.24        68.03671
919.64        68.25742
920.03        68.43846
920.42        68.54607
920.82        68.70161
921.21        69.04668
921.61        69.56753
922.00        70.24611
922.40        70.78886
922.79        70.84652
923.19        70.33173
923.58         69.4187
923.98        68.46357
924.37        67.91273
924.77        67.88667
925.16        68.21809
925.55        68.73553
925.95        69.10883
926.34        69.22593
926.74        69.15907
927.13        68.91696
927.52        68.44929
927.92        67.84296
928.31        67.11198
928.70        66.43123
929.10        66.04359
929.49        65.99179
929.89        66.17369
930.28        66.60019
930.67        67.14978
931.07        67.72079
931.46        68.40492
931.85        68.95844
932.24        69.04927
932.64        68.67201
933.03        67.86681
933.42         67.0865
933.82        66.99953
934.21        67.72433
934.60        69.12751
934.99        70.66057
935.39        71.32616
935.78        70.90022
936.17        69.58224
936.56        68.02136
936.96        67.23788
937.35        67.47404
937.74        68.42722
938.13        69.47829
938.53        69.66045
938.92        68.77844
939.31        67.22298
939.70        65.58347
940.09        64.68536
940.49         64.6938
940.88        65.36684
941.27        66.37642
941.66        67.12676
942.05         67.4009
942.44        67.41099
942.84        67.30123
943.23        67.28012
943.62        67.42597
944.01         67.5857
944.40          67.809
944.79        68.22466
945.18        68.80399
945.57        69.52229
945.97        70.04777
946.36        69.91057
946.75        69.01432
947.14        67.60316
947.53        66.13002
947.92        65.23489
948.31        65.07139
948.70        65.45845
949.09        66.18804
949.48        66.88734
949.87        67.38017
950.26        67.73397
950.65        67.95141
951.04        68.04388
951.43        68.03026
951.82         67.8989
952.21        67.63757
952.60        67.25783
952.99        66.82384
953.38        66.39435
953.77        66.14761
954.16        66.34514
954.55        67.00589
954.94        68.00365
955.33        69.11813
955.72        69.95035
956.11        70.32996
956.50        70.34878
956.89        69.97507
957.28        69.20865
957.66        68.14735
958.05        66.88676
958.44        65.74908
958.83          65.184
959.22        65.24543
959.61         65.8147
960.00        66.58716
960.39        66.96898
960.78        66.75819
961.16        66.11897
961.55        65.29962
961.94        64.58391
962.33        64.08823
962.72        63.76476
963.11        63.60757
963.49        63.65984
963.88         63.8425
964.27        64.11965
964.66        64.58926
965.04        65.43565
965.43         66.5983
965.82        68.07101
966.21        69.30976
966.60        69.30125
966.98        67.85199
967.37        65.43946
967.76         63.0388
968.15        61.88155
968.53        62.17575
968.92        63.60536
969.31        65.54031
969.69        66.67413
970.08        66.46175
970.47        65.34795
970.86        64.00975
971.24        63.39455
971.63        63.72885
972.02         64.7108
972.40        65.96023
972.79        66.51444
973.17        66.13275
973.56        65.16305
973.95         64.0835
974.33        63.47416
974.72        63.47535
975.11        63.88299
975.49        64.48155
975.88        64.81342
976.26        64.76597
976.65        64.42902
977.04        64.00304
977.42        63.75287
977.81        63.71283
978.19        63.78539
978.58        63.93839
978.96        64.08009
979.35        64.15778
979.74        64.24763
980.12        64.40186
980.51        64.48193
980.89        64.58501
981.28        64.66841
981.66        64.84608
982.05        65.27844
982.43        65.99298
982.82        66.91746
983.20        67.97478
983.59        68.88493
983.97        69.60223
984.35        70.13464
984.74        70.35627
985.12         70.3437
985.51        70.07079
985.89        69.55405
986.28        69.03919
986.66        68.80421
987.04        68.97035
987.43        69.46085
987.81        70.04803
988.20         70.1506
988.58        69.64946
988.96        68.63304
989.35        67.51357
989.73        66.87403
990.12        66.80687
990.50        67.19987
990.88        67.58885
991.27        67.17844
991.65        65.86507
992.03         64.0112
992.42        62.32566
992.80        61.73414
993.18        62.42564
993.56        64.10716
993.95        66.20196
994.33        67.75299
994.71        68.23918
995.10        68.04388
995.48        67.44436
995.86        66.98005
996.24        66.81735
996.63        66.54781
997.01        66.48246
997.39        66.92633
997.77        67.84901
998.15        69.28368
998.54         70.3912
998.92        69.76097
999.30        67.40216
999.68        63.85486
1000.06        60.53086
1000.45        59.42633
1000.83         61.0511
1001.21        64.99017
1001.59        70.09151
1001.97        73.48315
1002.35        73.94913
1002.73        72.33723
1003.12        70.07886
1003.50        69.01427
1003.88        69.71082
1004.26        71.42309
1004.64        73.78439
1005.02        75.99528
1005.40        77.50213
1005.78        78.73222
1006.16        79.06549
1006.54        77.47944
1006.92        74.14861
1007.30        69.51172
1007.69        65.23843
1008.07        63.56744
1008.45        65.08861
1008.83        69.35757
1009.21         74.9799
1009.59        78.38961
1009.97        77.91313
1010.35        74.61071
1010.73        69.99159
1011.11        66.25342
1011.49        64.12761
1011.86        62.95958
1012.24         62.6389
1012.62        63.07092
1013.00        64.09959
1013.38        65.83175
1013.76        67.99303
1014.14        69.60023
1014.52        70.10159
1014.90        69.65623
1015.28        68.37514
1015.66        66.53346
1016.04        64.35574
1016.41        61.80353
1016.79        59.64076
1017.17        59.30265
1017.55        61.03577
1017.93        64.34093
1018.31        67.99939
1018.69        70.30972
1019.06        70.91771
1019.44        70.13339
1019.82        68.50584
1020.20        67.47009
1020.58        67.57149
1020.95        68.12769
1021.33        68.78503
1021.71         68.9723
1022.09        68.62875
1022.46        68.31429
1022.84        67.70086
1023.22         66.2579
1023.60        64.17895
1023.97        61.49572
1024.35        59.99425
1024.73        61.80064
