SpectraSmart Spectrum 2.9.0.0
--------- Device Information -----------
Spectrum Name :  反射率_0
Saving Time :  2024/04/26 22:37:38
Spectro-Module Model Name : SE2030-DUVN
Spectro-Module Serial Number : OS361AC55029948
Wavelength Start : 200
Wavelength End : 1025
Wavelength Unit : Wavelength(nm)
Spectrum Unit : Reflectance(%)
-----------Spectrum Setting ------------
Integration Time : 20ms
Average : 10
Boxcar : 0
Background removal :  enabled
linearity correction :  enabled
SC :  disabled
Intensity correction :  disabled
DWT denoise :  enabled
savitzky-golay :  disabled
FFT :  disabled
Running average :  disabled
Kalman :  disabled
High pass :  disabled
---------------BEGIN--------------------
Wavelength(nm)             Reflectance(%)
200.29               0
200.75        47.54176
201.21        43.88244
201.67        40.94576
202.13        39.08045
202.58        38.07229
203.04        37.96338
203.50        39.27677
203.96         42.8253
204.42        48.64185
204.88        56.21975
205.34        63.12312
205.80        65.62057
206.26        63.11913
206.72         57.1565
207.18        50.65861
207.64        45.73806
208.10        42.16098
208.55        39.17709
209.01        36.18282
209.47        34.21861
209.93        34.41814
210.39        36.41062
210.85        38.89937
211.31        41.74746
211.77        46.08508
212.23        54.54478
212.69        76.16242
213.14         121.155
213.60        133.8479
214.06        112.9334
214.52        94.03571
214.98        82.60326
215.44        74.23748
215.90        65.70282
216.36        57.55195
216.81        51.20658
217.27        47.36779
217.73        46.26746
218.19        47.63161
218.65        49.14122
219.11        49.34939
219.57        48.59045
220.02        49.02275
220.48        53.20164
220.94         61.5808
221.40        75.59693
221.86        93.21846
222.32        98.67285
222.77        83.14408
223.23        59.62534
223.69        40.83666
224.15         32.8977
224.61        32.79848
225.06        36.20953
225.52        40.45345
225.98        42.89491
226.44        43.27074
226.90        42.77543
227.36        41.44067
227.81        39.27179
228.27        36.80367
228.73        33.98851
229.19        31.88617
229.65         31.7725
230.10        33.52707
230.56        36.71797
231.02        39.95737
231.48        40.94116
231.93        39.33414
232.39        36.34795
232.85         33.3488
233.31        32.11752
233.77        32.87294
234.22        34.98987
234.68        37.70706
235.14        39.98753
235.60        41.46801
236.05        42.50706
236.51        43.25773
236.97        43.94873
237.43        44.69254
237.88        45.34616
238.34        45.94569
238.80        46.92643
239.26        48.56744
239.71        51.35881
240.17          55.235
240.63        59.85111
241.08         64.8044
241.54        69.34996
242.00        74.24564
242.46        81.85011
242.91        94.71258
243.37        114.8555
243.83        142.4095
244.28        164.1972
244.74        161.5161
245.20        134.9939
245.66        105.0639
246.11        89.33946
246.57        87.85506
247.03        95.38326
247.48        104.2834
247.94        101.8932
248.40        89.88163
248.85        76.32002
249.31        66.30223
249.77        62.02862
250.22        62.56163
250.68        66.33371
251.14        73.04654
251.59         79.9828
252.05        84.42716
252.51        87.60729
252.96        87.72127
253.42        84.00123
253.88        77.85033
254.33        70.06254
254.79        65.36369
255.25        67.78812
255.70        76.38196
256.16        89.04401
256.62        100.0292
257.07        100.7292
257.53         93.3229
257.99        83.42704
258.44        75.15625
258.90        71.86945
259.35        72.11453
259.81        74.40813
260.27        76.94391
260.72        77.66105
261.18         76.6518
261.63        74.46798
262.09        72.38792
262.55        71.09544
263.00        70.44667
263.46        70.25744
263.91        69.68679
264.37         68.1157
264.83        65.57582
265.28        62.47767
265.74        59.71228
266.19        57.99928
266.65        57.46034
267.11        57.65043
267.56        58.05429
268.02        57.87379
268.47        56.89036
268.93        55.42671
269.38        53.69376
269.84        52.07873
270.30        50.69981
270.75        49.40377
271.21         48.2884
271.66        47.44898
272.12        46.86245
272.57        46.47941
273.03        46.06519
273.48        45.21077
273.94        43.92345
274.39          42.328
274.85        40.76031
275.31        39.53047
275.76        38.68341
276.22         38.1491
276.67        37.76849
277.13        37.42292
277.58        36.99678
278.04        36.54153
278.49        36.02364
278.95        35.51675
279.40        34.97878
279.86         34.4751
280.31         33.8825
280.77        33.15459
281.22          32.275
281.68        31.35203
282.13        30.54173
282.59        30.14389
283.04        30.14672
283.50        30.48207
283.95        30.89506
284.41        30.98938
284.86          30.683
285.32        30.13736
285.77        29.59468
286.22        29.46914
286.68        29.81939
287.13        30.45004
287.59        31.14611
288.04         31.5335
288.50        31.54734
288.95        31.28901
289.41        30.92747
289.86        30.62744
290.32        30.49706
290.77        30.48367
291.22        30.58238
291.68        30.77088
292.13        31.04426
292.59        31.45655
293.04        32.06644
293.50        32.96837
293.95        34.15448
294.40        35.58468
294.86        37.14928
295.31        38.67107
295.77        40.11458
296.22        41.50466
296.68        42.94191
297.13        44.57198
297.58        46.43736
298.04        48.48808
298.49         50.6335
298.95        52.75303
299.40        54.79172
299.85        56.79049
300.31        58.79586
300.76        60.85242
301.21           62.98
301.67        65.16347
302.12        67.34253
302.58        69.53157
303.03        71.67191
303.48        73.80505
303.94        75.94379
304.39        78.02269
304.84        80.07661
305.30        82.13142
305.75        84.18526
306.20        86.34013
306.66         88.6116
307.11        90.91071
307.57        93.16515
308.02        95.14026
308.47        96.82404
308.93        98.28174
309.38        99.61273
309.83         101.108
310.29        102.8277
310.74        104.6846
311.19        106.4772
311.65        107.8427
312.10        108.6845
312.55        109.1231
313.00        109.4372
313.46        110.0586
313.91        111.0579
314.36        112.3334
314.82        113.6432
315.27        114.6133
315.72        115.1176
316.18        115.3065
316.63        115.3391
317.08        115.5163
317.53        115.9301
317.99        116.4832
318.44        117.0842
318.89        117.5537
319.35        117.8367
319.80         117.999
320.25        118.1335
320.70        118.3841
321.16        118.7774
321.61        119.3013
322.06        119.8277
322.51        120.1654
322.97        120.2531
323.42        120.1526
323.87         120.042
324.32        120.2348
324.78        120.7572
325.23        121.6114
325.68        122.4642
326.13        122.7743
326.59         122.425
327.04         121.619
327.49        120.7739
327.94        120.5856
328.39        121.2119
328.85         122.397
329.30        123.8674
329.75        124.8322
330.20        125.0359
330.66        124.6845
331.11        124.1336
331.56        123.8708
332.01        124.0662
332.46        124.5288
332.92        125.0941
333.37        125.6828
333.82        126.1482
334.27        126.5917
334.72        126.9416
335.17        127.0449
335.63         126.898
336.08        126.6109
336.53        126.3998
336.98        126.6866
337.43        127.5624
337.88         128.878
338.34        130.3774
338.79        131.7503
339.24        132.7732
339.69        133.5185
340.14         133.936
340.59        133.9777
341.05        133.7264
341.50        133.2062
341.95        132.6684
342.40        132.5028
342.85        132.8102
343.30        133.5094
343.75        134.4309
344.20        135.2621
344.66        135.8874
345.11        136.3662
345.56        136.7294
346.01        137.0421
346.46        137.3375
346.91        137.5885
347.36        137.7798
347.81        137.9168
348.26        137.9971
348.72        138.0116
349.17        138.0227
349.62        138.1643
350.07        138.4419
350.52        138.8385
350.97        139.1114
351.42        138.8745
351.87        138.0883
352.32        136.8912
352.77        135.6938
353.22        135.0929
353.67        135.1901
354.13        135.7991
354.58        136.5173
355.03        136.6232
355.48        135.9397
355.93        134.6972
356.38        133.3301
356.83        132.4874
357.28        132.2964
357.73        132.5164
358.18        132.7868
358.63        132.5414
359.08        131.6324
359.53          130.27
359.98         128.714
360.43        127.3247
360.88        126.2029
361.33         125.236
361.78        124.3133
362.23        123.2782
362.68        122.1035
363.13        120.8751
363.58        119.6815
364.03        118.6286
364.48        117.7292
364.93        116.9257
365.38        116.1477
365.83        115.3015
366.28        114.3652
366.73        113.3766
367.18        112.3734
367.63         111.404
368.08        110.4905
368.53        109.6281
368.98        108.8107
369.43        108.0272
369.88          107.27
370.33        106.5311
370.78        105.8301
371.23        105.2059
371.68        104.6528
372.13        104.1431
372.58        103.6004
373.03        102.9053
373.48          102.03
373.93        101.0103
374.38        99.92267
374.83        98.90078
375.28        97.99287
375.72         97.1524
376.17        96.40248
376.62        95.65054
377.07        94.89177
377.52        94.18289
377.97        93.53809
378.42        92.99211
378.87         92.5482
379.32        92.13687
379.77        91.82121
380.22        91.69884
380.67        91.74152
381.11        91.95178
381.56        91.99151
382.01          91.408
382.46        90.18324
382.91        88.54575
383.36        86.98114
383.81        86.15295
384.26        86.14993
384.71        86.73642
385.15        87.55595
385.60        87.97981
386.05        87.81273
386.50        87.24661
386.95        86.42874
387.40        85.59994
387.85        84.87463
388.29        84.12975
388.74        83.52799
389.19        83.08535
389.64        82.78797
390.09        82.63227
390.54        82.52134
390.98        82.25838
391.43          81.846
391.88        81.33267
392.33        80.82135
392.78        80.40136
393.23        80.08707
393.67        79.97067
394.12        80.03109
394.57        79.68974
395.02        79.10118
395.47        79.17946
395.91        79.78366
396.36        79.82175
396.81         79.2543
397.26        78.69598
397.71        78.23619
398.15         77.7878
398.60        77.48109
399.05        77.11488
399.50        76.77144
399.95        76.90586
400.39        77.36355
400.84         77.2831
401.29        76.64886
401.74        76.15983
402.18        75.86403
402.63        75.31074
403.08        74.65763
403.53        74.33684
403.97        74.38326
404.42        74.67211
404.87         75.0283
405.32        75.13362
405.76        74.90139
406.21        74.55338
406.66        74.18113
407.11        73.76266
407.55        73.48246
408.00        73.61449
408.45        74.05421
408.90        74.43901
409.34        74.51375
409.79        73.93362
410.24        72.99206
410.68        72.55495
411.13        72.71721
411.58        73.02235
412.03         73.2547
412.47        73.25192
412.92        72.91966
413.37        72.35735
413.81        71.78466
414.26        71.58427
414.71         71.7949
415.15        72.33102
415.60        72.96067
416.05        73.35455
416.49        73.40399
416.94        73.19822
417.39        72.89539
417.83        72.72467
418.28        72.75938
418.73        72.92401
419.17        73.13499
419.62        73.26794
420.07        73.26997
420.51        73.16231
420.96        73.04038
421.41        72.93632
421.85        72.84433
422.30        72.95367
422.74         73.0852
423.19        72.81762
423.64        72.22692
424.08         71.9888
424.53        72.19162
424.98        72.38961
425.42        72.56593
425.87        73.23077
426.31        74.09003
426.76        73.89203
427.21        72.84035
427.65        72.48006
428.10        72.83576
428.54        72.92609
428.99        72.69594
429.44        72.55173
429.88        72.59705
430.33         73.3015
430.77        74.26661
431.22        74.60084
431.66        74.22711
432.11         73.4891
432.56        72.73299
433.00         72.6934
433.45        73.55815
433.89        74.43178
434.34        74.47392
434.78        75.77599
435.23        74.84897
435.67        71.97095
436.12        72.90782
436.57        72.91778
437.01        73.62729
437.46        73.89312
437.90         73.7345
438.35        73.03627
438.79        73.27273
439.24         73.2702
439.68        73.40945
440.13        73.87693
440.57        74.53551
441.02        74.53031
441.46        73.99554
441.91        74.36897
442.35        75.30463
442.80        75.29062
443.24        74.47776
443.69         74.4161
444.13        75.07127
444.58        75.46051
445.02         75.4899
445.47        75.46474
445.91          75.472
446.36        75.67567
446.80        76.07129
447.24        76.50111
447.69         76.8668
448.13        77.07471
448.58        77.10895
449.02        76.97858
449.47        76.76689
449.91        76.57286
450.36        76.46124
450.80        76.38567
451.25         76.3756
451.69        76.40699
452.13        76.48589
452.58        76.61552
453.02        76.74818
453.47        76.81025
453.91        76.76665
454.36        76.63412
454.80        76.44303
455.24        76.17075
455.69        75.84132
456.13        75.66013
456.58        75.63401
457.02        75.09365
457.46        74.34666
457.91        74.67253
458.35        75.71542
458.79        75.88998
459.24        75.20353
459.68        74.33514
460.13        73.55663
460.57        73.34194
461.01        73.90635
461.46        73.36957
461.90        73.86169
462.34        75.11047
462.79        74.99261
463.23        74.59569
463.68        75.00415
464.12        74.65453
464.56        74.08779
465.01        73.17801
465.45        72.19044
465.89        71.89092
466.34        72.19091
466.78        72.51962
467.22         72.7211
467.67        72.62024
468.11        72.33041
468.55        72.35599
468.99        72.66724
469.44        72.67998
469.88        72.39664
470.32         72.2067
470.77        72.13482
471.21        72.02786
471.65        71.87268
472.10        71.71581
472.54        71.59603
472.98        71.50344
473.42        71.43613
473.87        71.61485
474.31        71.82162
474.75        71.35039
475.20        70.51998
475.64        70.07521
476.08        71.18959
476.52        71.26424
476.97        70.51509
477.41        70.66857
477.85        71.12186
478.29        70.03571
478.74        70.33223
479.18        71.00932
479.62        70.60155
480.06        70.69628
480.50        70.58705
480.95        70.48868
481.39        70.40742
481.83          70.273
482.27        69.94723
482.72        70.60264
483.16        70.35954
483.60        70.16327
484.04        70.39164
484.48        70.52035
484.93        70.53398
485.37        70.13214
485.81         69.8653
486.25        69.02892
486.69        68.59495
487.14        70.99911
487.58        70.94793
488.02        70.28199
488.46        69.15986
488.90        69.29892
489.34        70.52553
489.79        71.77122
490.23        70.76283
490.67        69.94073
491.11        69.11324
491.55        69.03305
491.99        69.58339
492.43        69.61386
492.88        69.10023
493.32        68.87234
493.76        68.99654
494.20         69.1055
494.64        69.18417
495.08        69.35786
495.52          69.535
495.96        69.54807
496.41        69.38144
496.85        69.11906
497.29        68.79024
497.73        68.81794
498.17         68.3373
498.61        68.59345
499.05        68.84312
499.49        68.96268
499.93        68.58847
500.37        68.70498
500.82        69.24508
501.26        68.95505
501.70        68.79282
502.14        69.09628
502.58         68.8775
503.02        69.00096
503.46         69.1002
503.90        69.02782
504.34        69.20648
504.78        69.15244
505.22        68.99804
505.66         68.7952
506.10        68.62994
506.54        68.48499
506.98        68.34724
507.42        68.76019
507.86        68.67207
508.30        68.79394
508.74        68.80122
509.18         68.7491
509.62        68.64951
510.06        68.54227
510.50        68.45495
510.94        68.36652
511.38        68.30089
511.82        68.29617
512.26         68.3557
512.70        68.47137
513.14        68.60443
513.58         68.6888
514.02        68.70564
514.46        68.66714
514.90         68.6048
515.34        68.57388
515.78        68.58675
516.22         68.6245
516.66        68.65749
517.10        68.63866
517.54          68.561
517.98        68.44942
518.42          68.332
518.86        68.25078
519.30        68.21845
519.74        68.21787
520.18        68.24576
520.62        68.29571
521.06        68.36152
521.50        68.45045
521.93        68.53657
522.37        68.55633
522.81        68.50913
523.25        68.40318
523.69        68.29813
524.13        68.29068
524.57        68.39223
525.01        68.56713
525.45        68.73447
525.89        68.76192
526.32        68.61654
526.76        68.36805
527.20        68.08481
527.64        67.87962
528.08        67.78709
528.52        67.76843
528.96        67.81001
529.40        67.89043
529.83        67.98746
530.27        68.11465
530.71        68.22217
531.15        68.23634
531.59        68.14725
532.03        67.97095
532.46        67.76141
532.90        67.65538
533.34        67.66928
533.78        67.72955
534.22        67.78358
534.66        67.83228
535.09         67.8063
535.53        67.57542
535.97        67.21292
536.41        67.00809
536.85        66.99715
537.28        67.03992
537.72        67.10851
538.16        67.20988
538.60        67.32133
539.04        67.43851
539.47        67.53028
539.91         67.5922
540.35        67.60596
540.79        67.57456
541.22         67.5105
541.66        67.45876
542.10        67.42526
542.54         67.4066
542.97        67.38297
543.41        67.35182
543.85        67.30066
544.29         67.2432
544.72        67.18446
545.16        67.15102
545.60        67.13053
546.04        67.17942
546.47        67.28222
546.91        67.26372
547.35        67.17999
547.79        67.35855
548.22        67.70916
548.66        67.80703
549.10        67.70005
549.53        67.56281
549.97        67.46307
550.41        67.28274
550.84        67.12045
551.28        67.15746
551.72        67.29481
552.15        67.40702
552.59        67.54874
553.03        66.81428
553.46        67.27122
553.90        67.06026
554.34         67.0827
554.77        67.08022
555.21        67.14751
555.65        67.27107
556.08        67.40546
556.52        67.52677
556.96        67.58359
557.39        67.64788
557.83        67.67984
558.27        67.39742
558.70        66.89503
559.14         66.6686
559.57        66.71136
560.01        66.67495
560.45        66.56406
560.88        66.64574
561.32        66.88821
561.75        67.00706
562.19         66.9959
562.63        66.89336
563.06        66.75002
563.50          66.745
563.93        66.80916
564.37        66.82251
564.80        66.81176
565.24        66.74645
565.68        66.48392
566.11        67.19945
566.55        66.48041
566.98        66.27267
567.42          66.035
567.85        66.15734
568.29        66.58185
568.72        66.85989
569.16        67.01134
569.60        67.05457
570.03        67.22049
570.47        67.26093
570.90         67.2751
571.34        66.93633
571.77        67.17492
572.21        67.38364
572.64        67.14752
573.08        67.54789
573.51        67.00358
573.95        66.86617
574.38        66.94417
574.82        67.14322
575.25        66.49837
575.69        67.05984
576.12         67.0948
576.56        66.68258
576.99        66.50005
577.42        66.65801
577.86         66.8739
578.29        66.98862
578.73        67.01221
579.16        67.33976
579.60        66.84592
580.03        67.08478
580.47        66.70348
580.90        67.63893
581.33        67.60263
581.77        67.48096
582.20        66.30466
582.64        66.95888
583.07        67.17467
583.51        67.06413
583.94        66.84188
584.37        66.91106
584.81        67.23683
585.24        67.12013
585.68        66.56303
586.11        66.93623
586.54        67.05824
586.98        66.48466
587.41        66.15263
587.85        66.25152
588.28        66.14955
588.71        66.34563
589.15        66.14108
589.58        66.25874
590.01        66.46683
590.45        66.40477
590.88        66.96335
591.31        66.85984
591.75        66.50348
592.18        66.13048
592.61        65.82337
593.05        66.53901
593.48         66.5335
593.91        66.44958
594.35        66.71421
594.78        66.14826
595.21        65.63204
595.65        65.81522
596.08        66.91763
596.51        66.89149
596.94        66.54063
597.38        66.24138
597.81         66.1841
598.24         66.9029
598.68        66.69872
599.11        65.92372
599.54         66.6758
599.97        66.25497
600.41        66.44552
600.84        65.89906
601.27        66.32798
601.70        66.03827
602.14        66.15566
602.57        65.98362
603.00        66.00608
603.43        65.11777
603.87        65.83722
604.30        66.17281
604.73        66.44227
605.16        65.30273
605.60        65.79252
606.03        65.39413
606.46        65.07256
606.89        65.28216
607.32        65.93526
607.76         65.5521
608.19        65.91846
608.62        65.74111
609.05         65.6871
609.48        65.60986
609.92        66.38962
610.35        66.12975
610.78        65.47755
611.21         65.6365
611.64        65.56319
612.07        65.81531
612.50        65.64949
612.94        65.87003
613.37        65.56741
613.80        65.79453
614.23        65.11747
614.66        65.12742
615.09        65.51534
615.52        65.64991
615.96        65.48424
616.39        65.51138
616.82        65.79389
617.25        65.25608
617.68        65.15427
618.11        65.39484
618.54        65.64935
618.97        65.75801
619.40        65.50105
619.84        65.45068
620.27         65.1678
620.70        65.17282
621.13        65.27301
621.56        65.05032
621.99        64.50633
622.42         64.3373
622.85        64.66297
623.28        64.24325
623.71        64.06989
624.14        64.84826
624.57        64.91135
625.00        64.64465
625.43        65.06533
625.86        64.92781
626.29        64.71457
626.72        64.68205
627.15         64.7373
627.58        64.60156
628.01         64.6228
628.44        64.65255
628.87        64.63608
629.30        64.01286
629.73        64.18401
630.16        64.50209
630.59        64.36044
631.02        64.58599
631.45         64.9491
631.88        65.13185
632.31        65.07932
632.74        65.36089
633.17         65.0998
633.60          65.001
634.03         64.8219
634.46        64.58509
634.89        64.33502
635.32        64.17921
635.75        64.15159
636.18        64.15141
636.61         64.1665
637.04         64.2107
637.47        64.26709
637.89        64.32223
638.32        64.33494
638.75        64.30396
639.18        64.22935
639.61        64.11226
640.04        63.99022
640.47        63.92605
640.90        63.93439
641.33        64.00268
641.76        64.09652
642.18        64.16232
642.61        64.16366
643.04         64.1246
643.47        64.07403
643.90        64.06011
644.33        64.09142
644.76        64.14766
645.18         64.2009
645.61        64.19113
646.04        64.11512
646.47        63.99873
646.90        63.87302
647.33        63.78034
647.75        63.71092
648.18        63.70047
648.61        63.77721
649.04        63.77753
649.47        63.63261
649.89        64.26563
650.32        63.93924
650.75        64.01005
651.18        63.98988
651.61        63.89446
652.03        63.82371
652.46        63.97837
652.89        64.28091
653.32        64.47882
653.74        64.49865
654.17        63.90665
654.60        64.04104
655.03        63.77299
655.46        62.62524
655.88        63.20987
656.31        64.53142
656.74        62.15802
657.16         66.1668
657.59        71.31918
658.02        65.97268
658.45        65.29567
658.87        64.29915
659.30        64.36293
659.73        64.29014
660.15        64.94942
660.58        63.81624
661.01        63.58201
661.44        63.66241
661.86        63.48357
662.29        63.04739
662.72        63.60486
663.14        63.81413
663.57        63.74721
664.00         63.1953
664.42         63.1206
664.85        63.56273
665.27        64.00841
665.70        64.26871
666.13        64.33176
666.55        64.16306
666.98        63.71052
667.41        63.11454
667.83        63.01423
668.26        62.81773
668.69        62.98639
669.11        63.25196
669.54        63.48996
669.96        63.65129
670.39        63.77043
670.82        63.85242
671.24         63.8734
671.67        63.83627
672.09        63.72792
672.52        63.60087
672.94        63.50228
673.37        63.45409
673.80        63.44263
674.22        63.46244
674.65        63.46275
675.07        63.44899
675.50        63.42438
675.92        63.39588
676.35        63.36144
676.77        63.32464
677.20        63.27788
677.62        63.23662
678.05        63.22782
678.47        63.25195
678.90        63.30746
679.32        63.36009
679.75        63.36739
680.17        63.31877
680.60        63.23116
681.02        63.14593
681.45        63.13245
681.87         63.2187
682.30        63.34663
682.72        63.48708
683.15        63.62289
683.57        63.71076
684.00        63.59612
684.42        63.37418
684.85        63.33641
685.27        63.50167
685.70         63.7658
686.12        64.00771
686.54        64.03973
686.97        63.86572
687.39        63.64086
687.82        63.54036
688.24        63.40849
688.66        63.30722
689.09        63.30133
689.51        63.37877
689.94        63.43694
690.36        63.46083
690.78        63.46707
691.21        63.47243
691.63        63.49229
692.06         63.5336
692.48        63.59709
692.90        63.63897
693.33        63.59916
693.75         63.4698
694.17        63.24444
694.60        63.03112
695.02        63.00889
695.44        63.18363
695.87        63.51403
696.29         63.8574
696.71        63.79263
697.14        63.38046
697.56        63.13187
697.98        63.13632
698.41        63.13374
698.83        63.12937
699.25        63.35286
699.68        63.66821
700.10        63.78122
700.52        63.62127
700.94        63.29383
701.37        62.93777
701.79        62.78091
702.21        62.87289
702.64        63.12406
703.06        63.43493
703.48        63.62833
703.90        63.64908
704.33        63.55632
704.75        63.39946
705.17        63.24786
705.59        63.13962
706.01        63.04964
706.44        62.99715
706.86        63.04972
707.28        63.20061
707.70         63.3934
708.12         63.5878
708.55        63.80198
708.97        63.96761
709.39        63.86483
709.81         63.5677
710.23        63.43938
710.66        63.52502
711.08         63.6586
711.50        63.75215
711.92        63.75533
712.34        63.64885
712.76         63.4648
713.19        63.25835
713.61        63.15524
714.03        63.17598
714.45        63.28976
714.87        63.46521
715.29        63.65609
715.71         63.8343
716.13         63.9948
716.56        64.10981
716.98        64.22075
717.40        64.29158
717.82        64.31828
718.24        64.26532
718.66        64.08002
719.08        63.78238
719.50        63.42429
719.92        63.10477
720.34        62.96691
720.76        63.04039
721.19         63.2577
721.61        63.58982
722.03        63.93572
722.45        64.23561
722.87        64.49561
723.29        64.65141
723.71        64.60769
724.13        64.36479
724.55         63.9622
724.97         63.5133
725.39        63.21419
725.81        63.12516
726.23        63.18155
726.65        63.32754
727.07        63.60397
727.49        63.74147
727.91        63.94247
728.33        64.12876
728.75         64.2897
729.17        64.41116
729.59        64.47492
730.01        64.47801
730.43        64.42637
730.85         64.3269
731.27        64.18681
731.69        64.02137
732.10        63.84793
732.52        63.67813
732.94        63.53238
733.36        63.44076
733.78        63.32403
734.20        63.17186
734.62        63.22865
735.04        63.56197
735.46        63.09369
735.88        63.68817
736.30        63.81853
736.72        64.01707
737.13        64.18792
737.55        64.27006
737.97        64.40415
738.39        64.51368
738.81        64.24348
739.23        63.73093
739.65        63.69114
740.06        64.06221
740.48        64.22968
740.90          64.147
741.32        64.14076
741.74        64.30561
742.16        64.37452
742.57        64.36707
742.99        64.31314
743.41        64.21272
743.83        64.10618
744.25        63.90798
744.67        63.69329
745.08        63.51727
745.50        63.49637
745.92        63.65328
746.34        63.94414
746.75         64.2554
747.17         64.3866
747.59        64.30227
748.01        64.06654
748.42        63.77672
748.84        63.61562
749.26        63.63288
749.68        63.69589
750.09        63.77492
750.51        63.98295
750.93         64.2132
751.35        64.15055
751.76        63.81754
752.18        63.55421
752.60         63.3863
753.01        63.13494
753.43        62.84011
753.85        62.69576
754.27        62.73448
754.68        62.91564
755.10        63.17042
755.52         63.3831
755.93        63.50029
756.35         63.5312
756.77        63.56311
757.18        63.60504
757.60        63.66523
758.02        64.00365
758.43        64.50106
758.85        63.85651
759.26        63.83898
759.68        63.26431
760.10        62.83705
760.51        63.11046
760.93        63.95697
761.34        63.89919
761.76        64.00882
762.18        63.84241
762.59        63.86139
763.01        63.98261
763.42        64.23011
763.84        64.34953
764.26        64.27797
764.67        64.08974
765.09        63.87498
765.50        63.58084
765.92        63.33882
766.33        63.37553
766.75        63.58271
767.16        63.67552
767.58        63.56568
768.00        63.41695
768.41         63.3338
768.83        63.43892
769.24        63.68569
769.66        63.88352
770.07        63.95795
770.49        63.81201
770.90        63.56432
771.32        63.72773
771.73        64.21741
772.15        64.33196
772.56        64.04952
772.97        63.74193
773.39        63.53506
773.80        63.47749
774.22        63.58519
774.63        63.88885
775.05        64.22681
775.46        64.40319
775.88        64.33504
776.29        64.10059
776.70        63.82417
777.12        63.73118
777.53        63.88433
777.95        64.17679
778.36        64.50107
778.77        64.64127
779.19        64.55591
779.60        64.33904
780.02          64.059
780.43        63.86031
780.84        63.80354
781.26        63.67741
781.67        63.56785
782.09        63.94539
782.50        64.63782
782.91        64.80845
783.33        64.45916
783.74        64.34126
784.15        64.47205
784.57        64.40539
784.98        64.20019
785.39         64.1384
785.81         64.2575
786.22        64.53487
786.63        64.87663
787.04         65.0741
787.46        65.09898
787.87        65.01523
788.28        64.89272
788.70        64.80597
789.11        64.75969
789.52        64.74991
789.93        64.75569
790.35        64.73801
790.76        64.70065
791.17        64.65532
791.58        64.61681
792.00        64.57005
792.41         64.5312
792.82        64.54578
793.23         64.6022
793.65        64.55057
794.06        64.46015
794.47        64.65097
794.88        65.02551
795.29        65.17362
795.71        65.03902
796.12        64.85638
796.53        64.72424
796.94        64.73663
797.35        64.92992
797.76        65.27399
798.18        65.62291
798.59        65.78419
799.00        65.68899
799.41         65.4071
799.82        65.06142
800.23        64.85787
800.64        64.85307
801.06        64.95098
801.47        65.13204
801.88        65.27328
802.29        65.32675
802.70        65.33304
803.11        65.27737
803.52        65.12891
803.93        64.90968
804.34        64.63616
804.75        64.39148
805.17         64.3391
805.58        64.54627
805.99        64.83201
806.40        65.13351
806.81        65.61198
807.22        66.07964
807.63         65.9384
808.04        65.31181
808.45        64.95522
808.86        64.95813
809.27         64.9408
809.68        64.84965
810.09        64.77876
810.50        64.72171
810.91        64.65818
811.32        64.66889
811.73        64.87444
812.14        65.28028
812.55        65.84278
812.96        66.38319
813.37        66.57159
813.78        66.32625
814.19        65.76949
814.60        65.11306
815.01        64.64728
815.42        64.44203
815.83        64.41765
816.24        64.51784
816.65        64.62743
817.05        64.70181
817.46        64.76591
817.87        64.82342
818.28        64.82455
818.69        64.76837
819.10        64.63883
819.51        64.52779
819.92        64.61396
820.33        64.92294
820.74        65.39173
821.14        65.85782
821.55        66.05502
821.96        65.92558
822.37        65.55138
822.78         65.0761
823.19        64.74911
823.60         64.6546
824.00         64.7444
824.41        64.90502
824.82        65.03604
825.23        65.08506
825.64        65.09972
826.04        65.08994
826.45        65.02698
826.86        64.93065
827.27        64.80077
827.68        64.67673
828.08        64.65885
828.49        64.72037
828.90        64.85516
829.31        65.03708
829.72        65.22064
830.12        65.40298
830.53         65.5335
830.94        65.59119
831.35        65.50306
831.75        65.28133
832.16        64.93903
832.57         64.5686
832.97        64.29403
833.38        64.15773
833.79        64.11631
834.20        64.17481
834.60        64.32979
835.01        64.56403
835.42        64.91428
835.82        65.28168
836.23        65.42058
836.64         65.3112
837.04         64.9858
837.45        64.68336
837.86        64.85889
838.26        65.61183
838.67        66.76003
839.08        67.91167
839.48        68.32439
839.89        67.80437
840.29        66.62839
840.70        65.34109
841.11        64.55162
841.51        64.43037
841.92        64.77261
842.33        65.40584
842.73        66.02576
843.14        66.39521
843.54        66.64983
843.95        66.80468
844.35        66.93288
844.76        67.03719
845.17        67.06956
845.57        67.00258
845.98        66.78778
846.38        66.45776
846.79        66.04868
847.19        65.66126
847.60        65.42352
848.00        65.37569
848.41         65.4536
848.81        65.61402
849.22        65.70023
849.62        65.69893
850.03        65.63767
850.43        65.53249
850.84        65.34585
851.24        65.13387
851.65        64.85201
852.05        64.66871
852.46        64.77622
852.86        65.19607
853.27        65.83316
853.67        66.44217
854.07        66.79665
854.48        66.82441
854.88        66.62184
855.29        66.22514
855.69        65.83704
856.10        65.47997
856.50        65.17599
856.90        64.92875
857.31        64.76346
857.71        64.72691
858.12        64.76538
858.52        64.86572
858.92        64.87804
859.33        64.74976
859.73        64.56554
860.13        64.31042
860.54         63.9933
860.94        63.67883
861.34        63.34272
861.75        63.08742
862.15        63.12164
862.55        63.44809
862.96        63.97418
863.36        64.53649
863.76         64.7738
864.17        64.57819
864.57        64.08327
864.97        63.42124
865.38        62.81139
865.78        62.37247
866.18        62.06185
866.58        61.90323
866.99        61.93138
867.39        62.15244
867.79        62.53481
868.19        63.03135
868.60        63.54333
869.00        64.05089
869.40        64.53658
869.80        64.89896
870.21        64.96822
870.61        64.77479
871.01        64.34594
871.41        63.81828
871.81        63.38144
872.22        63.07785
872.62        62.85555
873.02        62.73302
873.42        62.71602
873.82        62.78626
874.22         62.9562
874.63        63.09441
875.03        63.00795
875.43        62.65691
875.83        62.09275
876.23        61.52443
876.63        61.28471
877.03        61.44608
877.44        61.89391
877.84        62.42368
878.24        62.70282
878.64        62.59072
879.04        62.04576
879.44        61.37856
879.84        61.17926
880.24        61.52374
880.64        62.18818
881.04        62.81491
881.44        62.85307
881.84        62.18697
882.24        61.02551
882.65        59.79296
883.05        59.13396
883.45        59.21616
883.85        59.85526
884.25        60.73643
884.65        61.31722
885.05        61.42825
885.45        61.23868
885.85        60.95878
886.25        60.90903
886.65        61.16842
887.05        61.59859
887.45        62.06474
887.85         62.3662
888.25        62.42786
888.65        62.32298
889.04        62.10691
889.44        61.88085
889.84        61.67641
890.24        61.47507
890.64        61.27704
891.04        61.09196
891.44        60.93002
891.84        60.80527
892.24        60.73996
892.64         60.7505
893.04        60.83784
893.44        61.00359
893.83        61.21114
894.23        61.35117
894.63        61.41298
895.03        61.39193
895.43        61.37102
895.83        61.49704
896.23        61.78096
896.63        62.16271
897.02        62.46707
897.42          62.443
897.82        62.04913
898.22        61.40329
898.62        60.69612
899.01        60.20062
899.41        60.00679
899.81         60.0269
900.21        60.18188
900.61        60.33939
901.00        60.44198
901.40        60.52167
901.80        60.57618
902.20        60.59294
902.59        60.58762
902.99        60.55619
903.39        60.50702
903.79        60.46077
904.18        60.42029
904.58        60.37984
904.98        60.40947
905.38        60.62109
905.77         61.0198
906.17        61.58644
906.57        62.12161
906.96         62.2972
907.36        62.03316
907.76        61.43245
908.15        60.80813
908.55         60.6409
908.95        61.03842
909.34        61.85959
909.74         62.7316
910.14        63.11813
910.53        62.85274
910.93        62.14009
911.33        61.22595
911.72        60.47565
912.12        60.07016
912.52        59.90077
912.91        59.89167
913.31        59.94598
913.70        60.02421
914.10        60.13902
914.49        60.36699
914.89        60.73853
915.29        61.26017
915.68        61.90349
916.08         62.4516
916.47        62.62981
916.87        62.39644
917.26        61.79871
917.66        61.18128
918.05        60.94138
918.45        61.16215
918.84         61.7852
919.24         62.4441
919.64        62.62024
920.03        62.19938
920.42        61.31939
920.82        60.42805
921.21         60.1568
921.61        60.62653
922.00        61.68229
922.40        62.85849
922.79        63.45559
923.19        63.24208
923.58        62.48215
923.98        61.57767
924.37        61.06135
924.77        61.07812
925.16        61.39936
925.55        61.86222
925.95        62.17754
926.34        62.24464
926.74        62.16669
927.13        61.91286
927.52        61.35188
927.92        60.57209
928.31        59.62249
928.70        58.78577
929.10        58.47428
929.49        58.74965
929.89        59.44563
930.28        60.42091
930.67        61.29947
931.07        61.89178
931.46        62.34659
931.85        62.52275
932.24        62.26677
932.64        61.64743
933.03        60.67789
933.42        59.78255
933.82        59.58074
934.21        60.18084
934.60        61.47673
934.99        62.96825
935.39        63.72941
935.78        63.53057
936.17        62.52661
936.56        61.27475
936.96        60.66433
937.35         60.9014
937.74        61.72214
938.13        62.55812
938.53        62.53009
938.92        61.48924
939.31        59.81348
939.70        58.10658
940.09        57.21199
940.49         57.2951
940.88        58.11032
941.27        59.30191
941.66        60.21294
942.05        60.59824
942.44         60.6743
942.84        60.59278
943.23         60.5811
943.62        60.73301
944.01        60.89813
944.40        61.12805
944.79         61.5619
945.18        62.16467
945.57        62.88266
945.97        63.41462
946.36        63.33155
946.75        62.53165
947.14        61.25575
947.53        59.81984
947.92         58.6557
948.31        57.90883
948.70        57.47581
949.09        57.39825
949.48        57.73096
949.87        58.42186
950.26        59.43244
950.65        60.50165
951.04        61.19081
951.43         61.3576
951.82        61.06268
952.21        60.48991
952.60        59.98338
952.99        59.68607
953.38        59.56353
953.77        59.53985
954.16        59.48567
954.55        59.36465
954.94        59.19281
955.33        59.14445
955.72        59.49575
956.11        60.26247
956.50        61.34076
956.89        62.26448
957.28          62.273
957.66        61.23625
958.05        59.48415
958.44        57.64797
958.83        56.62671
959.22        56.60673
959.61        57.32708
960.00        58.40001
960.39        59.08833
960.78          59.114
961.16        58.69737
961.55        58.09282
961.94        57.59653
962.33        57.32393
962.72        57.19241
963.11        57.15295
963.49        57.18403
963.88        57.20698
964.27        57.23322
964.66        57.40712
965.04        57.96004
965.43        58.85859
965.82        60.08538
966.21        61.17124
966.60        61.23703
966.98        60.09009
967.37         58.1249
967.76        56.15743
968.15        55.21477
968.53        55.48936
968.92        56.75674
969.31        58.45342
969.69        59.42343
970.08        59.20006
970.47        58.13564
970.86        56.99643
971.24        56.88237
971.63        58.01591
972.02        60.09426
972.40        62.37757
972.79        63.16977
973.17        62.06559
973.56        59.71511
973.95        57.19164
974.33        55.86695
974.72        56.01486
975.11        57.18186
975.49        58.87346
975.88         60.0682
976.26         60.3811
976.65        60.09538
977.04        59.39843
977.42        58.53716
977.81         57.6279
978.19        56.55741
978.58        55.62976
978.96         55.3268
979.35        55.70798
979.74        56.69985
980.12        57.95506
980.51        58.57083
980.89        58.42665
981.28        57.77197
981.66        56.99873
982.05        56.65781
982.43        56.90335
982.82        57.49377
983.20        58.47632
983.59         59.8409
983.97        61.52213
984.35        63.49601
984.74        65.12289
985.12        65.57091
985.51        64.63438
985.89         62.6039
986.28        60.37862
986.66        59.24996
987.04        59.58627
987.43        61.04636
987.81        63.00451
988.20        64.10259
988.58        63.87428
988.96        62.64297
989.35        61.01559
989.73        59.85374
990.12        59.36229
990.50        59.34016
990.88        59.32774
991.27        58.59389
991.65        57.06923
992.03        55.13914
992.42        53.55915
992.80        53.31087
993.18        54.56221
993.56        57.00528
993.95        59.87136
994.33        61.79337
994.71        62.12329
995.10        61.32822
995.48        59.98162
995.86        59.06144
996.24         58.8294
996.63        58.79508
997.01        59.03607
997.39        59.41825
997.77        59.80024
998.15         60.4234
998.54        60.73255
998.92        59.71836
999.30        57.45654
999.68        54.31054
1000.06        51.52904
1000.45        50.90715
1000.83         52.8699
1001.21        57.05536
1001.59        62.25454
1001.97        65.47989
1002.35        65.52026
1002.73        63.29268
1003.12        60.37338
1003.50        58.79093
1003.88        59.14649
1004.26         60.6694
1004.64        63.03275
1005.02        65.48265
1005.40         67.4305
1005.78        69.24348
1006.16        70.14006
1006.54        68.86308
1006.92        65.52768
1007.30        60.62618
1007.69        55.91229
1008.07        53.75383
1008.45        54.77903
1008.83        58.51581
1009.21        63.61741
1009.59        66.66035
1009.97        66.05621
1010.35        62.84658
1010.73        58.50069
1011.11        55.12515
1011.49        53.38455
1011.86        52.63659
1012.24        52.63542
1012.62        53.14844
1013.00        54.03089
1013.38        55.43856
1013.76        57.28306
1014.14        59.01257
1014.52        60.19663
1014.90        60.75718
1015.28        60.56225
1015.66        59.61093
1016.04        58.03261
1016.41        55.86572
1016.79         53.6495
1017.17        52.46708
1017.55        52.58994
1017.93           53.68
1018.31         55.1037
1018.69        55.89107
1019.06        55.82305
1019.44        55.24355
1019.82        54.22282
1020.20          53.098
1020.58        52.16281
1020.95        51.15525
1021.33        50.70617
1021.71        51.55091
1022.09        53.76846
1022.46        57.59504
1022.84        61.73095
1023.22         62.8156
1023.60        59.74438
1023.97        53.54412
1024.35        47.57574
1024.73        45.66864
