SpectraSmart Spectrum 2.9.0.0
--------- Device Information -----------
Spectrum Name :  反射率_0
Saving Time :  2024/04/26 22:40:47
Spectro-Module Model Name : SE2030-DUVN
Spectro-Module Serial Number : OS361AC55029948
Wavelength Start : 200
Wavelength End : 1025
Wavelength Unit : Wavelength(nm)
Spectrum Unit : Reflectance(%)
-----------Spectrum Setting ------------
Integration Time : 20ms
Average : 10
Boxcar : 0
Background removal :  enabled
linearity correction :  enabled
SC :  disabled
Intensity correction :  disabled
DWT denoise :  enabled
savitzky-golay :  disabled
FFT :  disabled
Running average :  disabled
Kalman :  disabled
High pass :  disabled
---------------BEGIN--------------------
Wavelength(nm)             Reflectance(%)
200.29               0
200.75        44.81442
201.21        43.08543
201.67        42.46495
202.13        42.99751
202.58        44.55379
203.04        47.79531
203.50         52.8917
203.96        58.60197
204.42        63.45404
204.88        66.75586
205.34        67.76894
205.80        66.67069
206.26        63.94696
206.72        59.84764
207.18        55.43879
207.64        50.97569
208.10        45.92233
208.55        39.78239
209.01        31.86609
209.47        25.96443
209.93        25.70624
210.39        29.13137
210.85        33.23613
211.31        37.06273
211.77        41.83577
212.23        50.66851
212.69        72.58682
213.14        116.5045
213.60        127.1081
214.06        105.5093
214.52        87.13411
214.98         77.0964
215.44        70.89668
215.90        65.09155
216.36        60.45333
216.81        58.83116
217.27        61.14446
217.73        68.80509
218.19        80.23328
218.65        84.07172
219.11        76.51943
219.57        65.12405
220.02        57.42683
220.48        57.25791
220.94        63.76545
221.40         77.3924
221.86        96.81996
222.32        107.1213
222.77        97.26991
223.23        78.14194
223.69        61.07633
224.15        51.93381
224.61        48.83461
225.06        48.43111
225.52        48.90417
225.98         48.2637
226.44         46.2924
226.90        43.80467
227.36        41.19126
227.81          39.164
228.27        38.10392
228.73        37.46386
229.19        37.34948
229.65        37.94435
230.10        39.09721
230.56        40.82875
231.02        42.24274
231.48        41.91413
231.93        39.78778
232.39        36.71225
232.85         33.9853
233.31        33.33368
233.77        34.85557
234.22        37.96042
234.68         41.5082
235.14        43.78776
235.60        44.29512
236.05        43.50482
236.51        42.05774
236.97        41.33916
237.43        41.95069
237.88        43.50606
238.34         45.5838
238.80        47.77025
239.26         50.0386
239.71        53.14936
240.17        56.98582
240.63        61.13592
241.08        65.25325
241.54        68.39727
242.00        71.87922
242.46        79.28259
242.91        93.78564
243.37        118.0992
243.83         152.651
244.28        181.0103
244.74        179.6615
245.20        149.1277
245.66        112.7641
246.11        91.01487
246.57        84.31345
247.03        86.63507
247.48        91.83936
247.94         90.1732
248.40        82.09927
248.85        73.19305
249.31        66.76978
249.77        63.91399
250.22          63.971
250.68        65.98291
251.14        69.36898
251.59        72.06969
252.05        72.74277
252.51        72.37634
252.96        71.01595
253.42        69.25636
253.88        67.25969
254.33        64.63551
254.79        63.07063
255.25        63.52504
255.70        65.66367
256.16        69.18188
256.62        71.87798
257.07        70.65765
257.53        66.82048
257.99        62.24597
258.44        58.64981
258.90        57.82635
259.35        58.72348
259.81        60.66335
260.27        62.21726
260.72           61.71
261.18        59.48823
261.63        56.24236
262.09        53.28728
262.55        51.48272
263.00        50.69847
263.46        50.59034
263.91        50.44675
264.37        49.66654
264.83        48.19198
265.28        46.33939
265.74        44.64287
266.19        43.46055
266.65        42.89249
267.11        42.65963
267.56        42.56705
268.02        42.33043
268.47        41.84934
268.93        41.24964
269.38        40.49887
269.84        39.59684
270.30        38.55794
270.75         37.3633
271.21        36.20442
271.66         35.3229
272.12         34.7635
272.57        34.45737
273.03        34.17873
273.48        33.54999
273.94        32.56396
274.39         31.3352
274.85        30.19477
275.31        29.47604
275.76        29.19352
276.22        29.22225
276.67        29.30499
277.13        29.15718
277.58        28.67472
278.04         27.9921
278.49        27.20116
278.95         26.5363
279.40        26.01691
279.86        25.63905
280.31        25.29024
280.77         24.9055
281.22        24.44085
281.68        23.97357
282.13        23.56947
282.59         23.3813
283.04        23.39062
283.50        23.55949
283.95        23.73944
284.41        23.70612
284.86        23.42411
285.32         23.0022
285.77        22.59518
286.22        22.47322
286.68        22.67642
287.13        23.07564
287.59        23.54507
288.04        23.85291
288.50        23.95419
288.95        23.89816
289.41        23.76678
289.86        23.61868
290.32         23.5234
290.77        23.46393
291.22         23.4699
291.68        23.57441
292.13        23.78807
292.59        24.13801
293.04        24.65311
293.50         25.3816
293.95        26.31103
294.40        27.42227
294.86        28.64251
295.31        29.85219
295.77        31.02686
296.22        32.17777
296.68        33.37463
297.13        34.71814
297.58        36.24145
298.04        37.91901
298.49        39.68285
298.95        41.44223
299.40        43.15852
299.85        44.85866
300.31        46.59996
300.76        48.45209
301.21        50.42761
301.67        52.50299
302.12        54.57716
302.58        56.58219
303.03        58.46131
303.48        60.27876
303.94        62.10321
304.39        63.97517
304.84        65.93382
305.30        67.95455
305.75        69.99297
306.20        72.06959
306.66        74.17558
307.11        76.26757
307.57        78.26819
308.02        79.95477
308.47        81.33201
308.93        82.46817
309.38        83.53209
309.83         84.9008
310.29        86.64209
310.74        88.63941
311.19        90.61435
311.65        92.07816
312.10        92.89935
312.55        93.23141
313.00        93.39375
313.46        93.88517
313.91        94.79974
314.36          96.006
314.82        97.25668
315.27        98.16532
315.72        98.60751
316.18        98.75137
316.63        98.74646
317.08        98.86494
317.53         99.1955
317.99        99.63914
318.44         100.151
318.89        100.6357
319.35        101.0447
319.80         101.413
320.25        101.7357
320.70        101.9992
321.16        102.2039
321.61        102.3884
322.06         102.541
322.51        102.6618
322.97        102.7496
323.42        102.8139
323.87        102.9505
324.32        103.3331
324.78        103.9467
325.23        104.8149
325.68         105.659
326.13        106.0251
326.59        105.8114
327.04        105.1732
327.49        104.4612
327.94        104.2698
328.39        104.7419
328.85        105.6765
329.30         106.853
329.75        107.6149
330.20        107.7543
330.66        107.4357
331.11        106.9902
331.56        106.8734
332.01        107.2293
332.46        107.8906
332.92        108.6211
333.37        109.1909
333.82        109.4432
334.27        109.5118
334.72        109.4922
335.17        109.5154
335.63        109.6432
336.08        109.8954
336.53        110.3004
336.98        110.9576
337.43        111.8606
337.88        112.9426
338.34        114.0894
338.79        115.2224
339.24        116.2057
339.69        117.0423
340.14        117.5959
340.59        117.6799
341.05        117.3434
341.50        116.6803
341.95        116.0104
342.40         115.817
342.85        116.2176
343.30        117.0767
343.75        118.1845
344.20        119.1676
344.66        119.8819
345.11        120.4126
345.56        120.7663
346.01        120.9681
346.46        121.0677
346.91        121.0633
347.36        121.0383
347.81        121.1505
348.26        121.4257
348.72        121.8076
349.17        122.2623
349.62        122.7604
350.07        123.2574
350.52        123.7746
350.97        124.1207
351.42        123.9973
351.87        123.3888
352.32        122.4001
352.77        121.4094
353.22        120.9742
353.67        121.1934
354.13        121.9067
354.58        122.7381
355.03        123.0082
355.48        122.5414
355.93        121.5381
356.38        120.4041
356.83        119.7529
357.28        119.7015
357.73        120.0269
358.18        120.3603
358.63        120.1192
359.08        119.1722
359.53        117.7517
359.98        116.1747
360.43        114.8867
360.88        114.0033
361.33        113.3802
361.78         112.867
362.23        112.2349
362.68        111.4245
363.13        110.5386
363.58        109.6436
364.03        108.8205
364.48         108.084
364.93          107.37
365.38        106.6736
365.83        106.0106
366.28        105.3769
366.73        104.7867
367.18        104.1678
367.63        103.3957
368.08        102.4623
368.53        101.4129
368.98        100.3858
369.43        99.60019
369.88        99.09881
370.33        98.80865
370.78         98.5872
371.23        98.20078
371.68        97.57603
372.13        96.77295
372.58         95.8873
373.03        95.07211
373.48        94.37228
373.93        93.74198
374.38        93.11804
374.83        92.40989
375.28        91.60568
375.72        90.73267
376.17        89.92075
376.62        89.24463
377.07        88.73045
377.52        88.36381
377.97        88.06416
378.42        87.71768
378.87        87.29266
379.32        86.78703
379.77        86.32907
380.22        86.10621
380.67        86.12455
381.11        86.35735
381.56        86.48196
382.01        86.06212
382.46        85.06017
382.91        83.68637
383.36        82.36713
383.81        81.68402
384.26        81.71577
384.71        82.25184
385.15        82.97037
385.60        83.31081
386.05        83.10101
386.50        82.50889
386.95         81.6899
387.40        80.89411
387.85        80.22796
388.29        79.57526
388.74        79.04327
389.19        78.57513
389.64        78.15754
390.09        77.81846
390.54        77.53761
390.98        77.24673
391.43         76.9659
391.88        76.68832
392.33        76.45049
392.78        76.22598
393.23        75.99769
393.67        75.95066
394.12        76.06763
394.57        75.60432
395.02        74.91429
395.47        75.00833
395.91        75.76522
396.36        75.87009
396.81        75.26945
397.26         74.6992
397.71        74.27245
398.15        73.89991
398.60        73.72274
399.05        73.50573
399.50        73.28074
399.95        73.59166
400.39        74.24067
400.84        73.96131
401.29        72.90815
401.74        72.68158
402.18         73.2046
402.63        72.90314
403.08        71.90768
403.53        71.49214
403.97        71.70378
404.42        71.92908
404.87        72.03693
405.32        72.00198
405.76         71.7606
406.21          71.501
406.66        71.27833
407.11        70.86952
407.55        70.48769
408.00        70.78484
408.45        71.59408
408.90        71.98626
409.34         71.7574
409.79        71.16542
410.24        70.47657
410.68        70.10965
411.13        70.15461
411.58          70.391
412.03        70.63928
412.47        70.68456
412.92        70.43653
413.37        70.00539
413.81        69.56041
414.26        69.41162
414.71        69.58872
415.15        70.01871
415.60        70.52958
416.05        70.90069
416.49        71.04922
416.94        71.02839
417.39        70.92236
417.83        70.84825
418.28         70.8523
418.73        70.89286
419.17        70.94796
419.62        70.99296
420.07        71.00517
420.51        70.97617
420.96        70.95269
421.41        70.90627
421.85        70.81765
422.30        70.86559
422.74        70.92004
423.19        70.70002
423.64          70.262
424.08        70.09151
424.53        70.26862
424.98        70.50631
425.42         70.7908
425.87         71.4931
426.31        72.34356
426.76        72.26427
427.21        71.42474
427.65        71.15527
428.10        71.47917
428.54        71.53172
428.99        71.37832
429.44        71.24211
429.88        71.29253
430.33        72.10259
430.77        73.28979
431.22        73.88287
431.66        73.75095
432.11        73.31352
432.56        72.81625
433.00        72.48592
433.45        72.54836
433.89        73.17808
434.34        73.77801
434.78        74.57503
435.23        73.92485
435.67        72.19225
436.12        72.35659
436.57        72.60052
437.01        73.58582
437.46        73.91676
437.90        73.53336
438.35         73.1254
438.79        73.09415
439.24        73.12556
439.68        73.27402
440.13        73.79739
440.57         74.5275
441.02        74.45009
441.46        73.74374
441.91         74.1566
442.35        75.27688
442.80        75.13013
443.24        73.95225
443.69         73.9033
444.13        74.90668
444.58        75.37413
445.02        75.25309
445.47        75.35913
445.91        75.69863
446.36        76.11565
446.80        76.26821
447.24        76.50795
447.69        76.73156
448.13        76.72549
448.58         76.8074
449.02        76.73243
449.47        76.63651
449.91        76.54607
450.36        76.50691
450.80         76.4835
451.25        76.52032
451.69        76.62717
452.13        76.81223
452.58        77.05873
453.02        77.29676
453.47         77.4229
453.91        77.40055
454.36        77.26584
454.80        77.07539
455.24        76.82909
455.69        76.53612
456.13        76.42242
456.58        76.54112
457.02         75.9549
457.46        75.38464
457.91        76.00569
458.35        76.35189
458.79        76.38228
459.24        75.70815
459.68         74.8663
460.13        74.15134
460.57        73.89069
461.01        74.24274
461.46        74.67059
461.90        74.85899
462.34        76.44539
462.79        75.58557
463.23        75.88908
463.68        76.11024
464.12        75.95688
464.56        75.42568
465.01        74.47662
465.45        73.91299
465.89        73.72474
466.34        73.91759
466.78        74.30343
467.22        74.84809
467.67        73.59896
468.11        73.69296
468.55        73.77695
468.99        74.56379
469.44        74.75896
469.88        74.32334
470.32        73.94981
470.77        73.74663
471.21        73.62685
471.65        73.61361
472.10        73.74093
472.54        73.90545
472.98        73.93665
473.42        73.80401
473.87        73.61243
474.31        73.35165
474.75        73.03011
475.20        72.79693
475.64        72.50491
476.08        72.94848
476.52        72.94707
476.97        72.67081
477.41         72.6418
477.85        72.99446
478.29        72.31091
478.74        72.67205
479.18        73.07996
479.62        73.14626
480.06        73.21754
480.50        72.96679
480.95         72.8149
481.39        72.86075
481.83        72.32302
482.27        72.19358
482.72        73.08694
483.16        72.67547
483.60        72.72924
484.04        73.05956
484.48        73.23035
484.93        72.98709
485.37        73.15568
485.81         72.2431
486.25        71.27215
486.69        71.08339
487.14        73.50365
487.58        73.56319
488.02        72.90347
488.46        71.59262
488.90        71.69918
489.34        73.28201
489.79        74.25416
490.23         73.6544
490.67        72.91377
491.11        72.16593
491.55        71.89725
491.99        72.09801
492.43        71.99802
492.88        71.61095
493.32        71.59145
493.76        71.91454
494.20        72.14839
494.64        72.24615
495.08        72.33296
495.52        72.39745
495.96        72.44073
496.41        72.45805
496.85        72.39294
497.29        72.19031
497.73        72.27883
498.17        71.76235
498.61        71.78245
499.05        71.99446
499.49        72.00068
499.93        71.59303
500.37        71.64966
500.82         72.0315
501.26         72.0768
501.70        71.81022
502.14        71.77665
502.58         71.9957
503.02        72.15001
503.46        72.23152
503.90        72.33179
504.34        72.52486
504.78        72.50223
505.22        72.28725
505.66        71.94781
506.10        71.61421
506.54         71.3972
506.98        71.32085
507.42        71.51082
507.86        71.93508
508.30        71.62361
508.74        71.98512
509.18        71.88982
509.62        71.79833
510.06           71.72
510.50        71.68326
510.94        71.65657
511.38        71.62585
511.82        71.61314
512.26        71.61865
512.70        71.64773
513.14          71.701
513.58        71.77354
514.02        71.85857
514.46        71.94535
514.90        72.02776
515.34        72.10023
515.78         72.1542
516.22        72.18607
516.66         72.1779
517.10        72.10305
517.54        71.96629
517.98        71.78919
518.42        71.60777
518.86        71.47747
519.30        71.41586
519.74        71.40697
520.18        71.44561
520.62        71.51852
521.06        71.61478
521.50        71.74012
521.93        71.86266
522.37        71.90849
522.81        71.87495
523.25        71.77295
523.69         71.6636
524.13        71.64874
524.57        71.74112
525.01        71.89996
525.45        72.05456
525.89        72.08829
526.32         71.9691
526.76        71.76704
527.20        71.52222
527.64        71.30261
528.08        71.14017
528.52        71.01313
528.96        70.95618
529.40        71.02303
529.83        71.20405
530.27        71.48589
530.71        71.76678
531.15        71.88982
531.59        71.82076
532.03         71.5984
532.46        71.30794
532.90        71.14049
533.34          71.127
533.78        71.17306
534.22        71.21279
534.66         71.2312
535.09        71.15428
535.53        70.86226
535.97        70.43467
536.41         70.1748
536.85        70.12381
537.28        70.13021
537.72        70.18748
538.16        70.33935
538.60        70.56233
539.04        70.83887
539.47         71.0829
539.91        71.20907
540.35        71.18494
540.79        71.03667
541.22        70.84078
541.66        70.74819
542.10        70.78612
542.54        70.91435
542.97        71.05061
543.41          71.099
543.85        71.02464
544.29        70.87132
544.72        70.68938
545.16        70.59557
545.60        70.60616
546.04        70.69749
546.47         70.8247
546.91        70.93847
547.35        71.01791
547.79        70.99553
548.22        70.91705
548.66        71.03429
549.10         71.3353
549.53        71.31323
549.97          71.013
550.41        70.76196
550.84         70.6665
551.28        70.65265
551.72        70.66226
552.15        70.77938
552.59        71.07915
553.03        70.50378
553.46        71.14748
553.90        71.10154
554.34        70.97408
554.77         70.8028
555.21        70.70158
555.65        70.60214
556.08        70.87827
556.52        70.96501
556.96        70.93794
557.39        71.00033
557.83        71.11197
558.27        70.90384
558.70        70.45547
559.14        70.28072
559.57        70.35963
560.01          70.368
560.45        70.32038
560.88         70.3915
561.32        70.59723
561.75        70.92148
562.19        71.26808
562.63         71.2029
563.06        70.81846
563.50        70.77447
563.93        70.99312
564.37        71.01549
564.80        70.87365
565.24        70.72384
565.68        70.41756
566.11        71.13541
566.55        70.33041
566.98         70.0453
567.42        69.71706
567.85        69.91764
568.29        70.56534
568.72        70.87347
569.16        70.84222
569.60        71.25064
570.03        71.13368
570.47         71.2631
570.90         71.4426
571.34        70.70964
571.77         71.2607
572.21        71.62276
572.64        71.26437
573.08        72.00037
573.51        70.96146
573.95         70.8708
574.38        71.18919
574.82        71.14141
575.25         70.8006
575.69         71.0554
576.12        71.18875
576.56        70.65939
576.99        70.90042
577.42        70.57175
577.86        70.73106
578.29        71.50352
578.73        71.14059
579.16        71.48268
579.60        71.02875
580.03        71.15138
580.47        70.62733
580.90        71.76786
581.33        71.37041
581.77        71.33984
582.20        70.60561
582.64        71.61134
583.07        71.44341
583.51        71.42255
583.94        70.89478
584.37        71.11401
584.81        71.33853
585.24        71.26476
585.68        70.72212
586.11         71.1143
586.54        70.90647
586.98        70.68224
587.41        70.07099
587.85        70.33371
588.28        70.25768
588.71        70.61105
589.15         70.0474
589.58        70.74693
590.01        70.65871
590.45        70.54263
590.88        71.49703
591.31        71.35257
591.75        70.72644
592.18        70.20643
592.61        70.02598
593.05        70.36724
593.48        70.73804
593.91        70.87143
594.35        70.90601
594.78        70.40003
595.21        70.05936
595.65          70.285
596.08        71.25516
596.51        71.42641
596.94        70.67397
597.38        70.40424
597.81        70.59497
598.24        71.13888
598.68        70.96729
599.11        70.57642
599.54        71.62778
599.97        70.89452
600.41        70.84968
600.84        70.28619
601.27        70.84351
601.70         70.5147
602.14        70.88516
602.57        70.75013
603.00        70.72128
603.43        70.01728
603.87        70.87617
604.30        71.03854
604.73        71.24731
605.16        70.21351
605.60         70.6129
606.03        70.11537
606.46        69.54005
606.89        69.78451
607.32        70.92731
607.76        69.92747
608.19        70.60225
608.62        70.72957
609.05         70.4932
609.48        70.45252
609.92        71.30929
610.35        70.79965
610.78          70.215
611.21        70.63455
611.64        70.34411
612.07        70.67497
612.50        70.61421
612.94        70.62014
613.37        70.51147
613.80        70.32681
614.23        69.84895
614.66        69.49025
615.09        70.15302
615.52        70.31206
615.96        70.21572
616.39        70.23248
616.82        70.36827
617.25        70.30148
617.68        70.09052
618.11        70.15779
618.54        70.47363
618.97        70.62052
619.40         70.5323
619.84        70.63554
620.27        70.31052
620.70        70.30383
621.13        70.34533
621.56        69.93304
621.99        69.21517
622.42        68.96909
622.85        69.21434
623.28        69.41008
623.71        69.52284
624.14        69.36619
624.57        69.97573
625.00        69.72807
625.43        69.90537
625.86        69.86669
626.29        70.02023
626.72        69.34245
627.15        69.83616
627.58        69.81961
628.01        69.75427
628.44        69.87659
628.87         69.6032
629.30        69.27164
629.73        69.23154
630.16        69.55373
630.59        69.44194
631.02         69.5775
631.45        69.71505
631.88        69.75723
632.31        69.63098
632.74        70.21346
633.17         69.8289
633.60        69.84544
634.03        69.78311
634.46        69.54487
634.89        69.38982
635.32        69.25821
635.75        69.25745
636.18        69.26553
636.61        69.27274
637.04        69.29623
637.47        69.31857
637.89        69.33035
638.32        69.30038
638.75        69.23702
639.18        69.14188
639.61        69.04478
640.04        68.96591
640.47        68.86302
640.90        68.78109
641.33        68.88856
641.76        69.12286
642.18        69.22955
642.61        69.15633
643.04         69.0347
643.47        68.93116
643.90        68.90712
644.33        68.98129
644.76        69.12914
645.18        69.28015
645.61        69.30293
646.04        69.17992
646.47        68.95889
646.90        68.71736
647.33         68.5729
647.75        68.53288
648.18        68.61282
648.61        68.80411
649.04        68.86583
649.47        68.70273
649.89        69.33975
650.32         68.9333
650.75        68.95715
651.18        68.91658
651.61        68.91706
652.03        69.00767
652.46        69.20389
652.89        69.43401
653.32        69.55687
653.74        69.49969
654.17        68.99783
654.60        69.65117
655.03        69.18931
655.46        68.56425
655.88        68.25121
656.31        68.97445
656.74         67.2654
657.16        71.17719
657.59        75.78781
658.02        71.21033
658.45        70.44487
658.87        69.48031
659.30        69.41477
659.73        69.33461
660.15        70.38395
660.58        69.22053
661.01        69.02899
661.44        68.99569
661.86        68.79251
662.29        68.40723
662.72        68.88853
663.14        68.85759
663.57         68.8208
664.00        68.50069
664.42        68.51213
664.85        68.87602
665.27        69.26003
665.70        69.51053
666.13        69.59898
666.55        69.49914
666.98        69.14789
667.41        68.64917
667.83        68.62441
668.26        68.40715
668.69        68.52319
669.11        68.71914
669.54        68.87312
669.96        68.94298
670.39        69.07368
670.82        69.27745
671.24        69.07376
671.67        69.08006
672.09        69.06331
672.52        69.19814
672.94        69.24606
673.37        69.20528
673.80        69.17896
674.22        69.16956
674.65        69.11254
675.07         69.0257
675.50         68.9108
675.92        68.79657
676.35        68.72042
676.77        68.69259
677.20        68.69655
677.62        68.72525
678.05        68.76144
678.47        68.79205
678.90        68.85096
679.32        68.87314
679.75        68.87132
680.17        68.83033
680.60        68.76253
681.02        68.70536
681.45        68.72654
681.87        68.85134
682.30        69.01086
682.72        69.18279
683.15        69.36728
683.57        69.51697
684.00         69.4516
684.42        69.24177
684.85        69.17733
685.27        69.28458
685.70        69.41368
686.12        69.49151
686.54        69.54422
686.97        69.56416
687.39        69.29481
687.82        69.22839
688.24        69.13374
688.66        69.14431
689.09        69.12554
689.51        69.08645
689.94        69.09069
690.36        69.13655
690.78         69.1618
691.21        69.18566
691.63        69.25753
692.06         69.3803
692.48        69.54536
692.90        69.68188
693.33        69.68553
693.75        69.53866
694.17        69.24248
694.60        68.93393
695.02        68.84916
695.44        69.00315
695.87        69.32428
696.29        69.65844
696.71        69.57076
697.14        69.12342
697.56        68.84934
697.98         68.8482
698.41        68.85397
698.83        68.87187
699.25        69.14422
699.68        69.51089
700.10        69.63644
700.52         69.4425
700.94          69.049
701.37        68.63346
701.79        68.48537
702.21        68.66576
702.64        69.06223
703.06        69.53253
703.48        69.82883
703.90        69.87334
704.33        69.74145
704.75         69.5116
705.17        69.30022
705.59        69.16066
706.01        69.05761
706.44        68.98971
706.86        68.98959
707.28        69.04655
707.70        69.13423
708.12        69.24644
708.55        69.41863
708.97        69.60356
709.39        69.62893
709.81        69.51618
710.23        69.48224
710.66        69.54237
711.08        69.58856
711.50         69.5804
711.92        69.52717
712.34        69.43117
712.76        69.31261
713.19        69.18552
713.61        69.11118
714.03        69.09467
714.45        69.12537
714.87        69.22968
715.29        69.44912
715.71        69.76961
716.13        70.15672
716.56        70.50295
716.98        70.72174
717.40        70.73898
717.82        70.59201
718.24        70.32726
718.66        70.02516
719.08        69.74316
719.50        69.49258
719.92         69.3182
720.34        69.27899
720.76         69.3779
721.19        69.57064
721.61        69.85662
722.03        70.17477
722.45        70.47739
722.87        70.75436
723.29        70.91712
723.71        70.83522
724.13        70.50477
724.55        69.98396
724.97        69.42063
725.39        69.06175
725.81        68.97915
726.23        69.08938
726.65        69.30712
727.07         69.6395
727.49        69.78062
727.91        69.96239
728.33        70.11714
728.75        70.26289
729.17        70.39647
729.59        70.49408
730.01        70.53992
730.43        70.52067
730.85        70.43766
731.27        70.29974
731.69        70.14465
732.10        70.02445
732.52        69.95222
732.94        69.93795
733.36        69.96675
733.78        69.86714
734.20        69.61436
734.62        69.52319
735.04        69.72952
735.46        69.11752
735.88        69.76923
736.30        70.05104
736.72        70.49351
737.13        70.83363
737.55        70.96617
737.97        71.10905
738.39        71.19586
738.81        70.85594
739.23        70.25494
739.65        70.14653
740.06        70.47833
740.48        70.64996
740.90         70.6223
741.32        70.58488
741.74        70.90336
742.16        71.04012
742.57        71.08478
742.99        71.09087
743.41        71.04711
743.83        70.89153
744.25        70.64151
744.67        70.34348
745.08        70.11866
745.50         70.0979
745.92        70.31423
746.34        70.73808
746.75        71.18108
747.17        71.30794
747.59         71.0584
748.01        70.53793
748.42        69.95279
748.84        69.63571
749.26        69.67265
749.68        69.95674
750.09         70.3393
750.51        70.57726
750.93        70.59927
751.35        70.51132
751.76        70.35591
752.18        70.18695
752.60        70.03002
753.01        69.88924
753.43        69.76596
753.85         69.6696
754.27        69.61066
754.68        69.65953
755.10        69.82012
755.52        69.81775
755.93        70.05125
756.35        70.15701
756.77        70.28896
757.18        70.41893
757.60        70.53844
758.02        70.80653
758.43        71.09682
758.85        70.75153
759.26        70.30633
759.68        70.03793
760.10         70.1358
760.51        70.34818
760.93        70.56873
761.34        70.63496
761.76        70.57654
762.18        70.68311
762.59        70.98605
763.01        71.14241
763.42        71.16914
763.84        71.19426
764.26        71.19621
764.67        70.95807
765.09        70.59105
765.50        70.25033
765.92        70.04596
766.33        70.00774
766.75        70.05699
767.16        70.13444
767.58        70.15361
768.00         70.1485
768.41        70.19566
768.83        70.34956
769.24        70.53271
769.66        70.77357
770.07        70.95058
770.49        70.43607
770.90        69.57293
771.32        69.95672
771.73        71.36448
772.15        71.88667
772.56        71.40468
772.97        70.94772
773.39         70.7309
773.80        70.64478
774.22        70.72997
774.63        71.06267
775.05        71.43071
775.46        71.56718
775.88        71.37624
776.29        70.95989
776.70        70.50873
777.12        70.36079
777.53        70.59869
777.95        71.06544
778.36        71.58636
778.77        71.83215
779.19        71.73723
779.60        71.43804
780.02        71.02808
780.43         70.7491
780.84        70.69749
781.26        70.46836
781.67        70.19843
782.09        70.89823
782.50        72.05345
782.91        72.19353
783.33        71.33361
783.74        71.03249
784.15        71.35614
784.57        71.38145
784.98        71.15039
785.39        71.15503
785.81        71.41312
786.22         71.7906
786.63        72.17543
787.04        72.38641
787.46        72.39275
787.87        72.23508
788.28        72.02152
788.70        71.89199
789.11        71.86819
789.52        71.94529
789.93        72.05805
790.35        72.10532
790.76        72.06921
791.17        71.91891
791.58        71.75568
792.00        71.76437
792.41        71.91802
792.82        72.13251
793.23        72.29218
793.65        71.93054
794.06        71.29324
794.47        71.46822
794.88        72.28777
795.29        72.57178
795.71        72.23177
796.12          72.005
796.53        72.00038
796.94        71.90617
797.35        71.98834
797.76        72.17595
798.18        72.43073
798.59          72.558
799.00         72.5014
799.41        72.33362
799.82        72.14159
800.23        72.06693
800.64        72.14272
801.06        72.28526
801.47        72.47129
801.88         72.5704
802.29         72.5385
802.70        72.40951
803.11        72.21576
803.52        72.00945
803.93         71.8429
804.34        71.72264
804.75        71.65961
805.17        71.76318
805.58        72.09285
805.99        72.26248
806.40        72.31618
806.81        73.14408
807.22        74.33711
807.63        74.00411
808.04        72.43459
808.45        71.75842
808.86        72.15644
809.27        72.49429
809.68        72.56714
810.09        72.56417
810.50        72.42918
810.91        72.12592
811.32          71.839
811.73        71.85517
812.14        72.22624
812.55        72.86679
812.96        73.55507
813.37        73.86781
813.78         73.6807
814.19         73.1516
814.60        72.48386
815.01        71.94704
815.42         71.6182
815.83        71.41971
816.24        71.34178
816.65        71.36823
817.05        71.48739
817.46        71.69453
817.87        71.94966
818.28        72.12754
818.69        72.20124
819.10        72.17124
819.51        72.12721
819.92        72.24676
820.33        72.55803
820.74        72.99152
821.14        73.40544
821.55        73.56989
821.96        73.43874
822.37        73.09349
822.78        72.66204
823.19        72.35918
823.60        72.26386
824.00        72.34609
824.41        72.50625
824.82        72.68303
825.23        72.82571
825.64        72.95193
826.04        73.05994
826.45        73.09993
826.86        73.08299
827.27        73.02696
827.68        72.92262
828.08        72.79381
828.49        72.60709
828.90        72.37679
829.31        72.21564
829.72        72.30453
830.12        72.68889
830.53        73.25977
830.94        73.80047
831.35        73.88699
831.75        73.44299
832.16        72.58398
832.57        71.62561
832.97        71.04948
833.38         70.9871
833.79        71.27654
834.20        71.75688
834.60        72.16616
835.01        72.41408
835.42        72.62775
835.82        72.79468
836.23        72.80371
836.64        72.68633
837.04        72.41229
837.45        72.19509
837.86        72.46644
838.26        73.30858
838.67         74.5541
839.08        75.76719
839.48        76.11591
839.89        75.40263
840.29        73.94516
840.70        72.39159
841.11         71.4826
841.51        71.41456
841.92         71.9412
842.33        72.83614
842.73        73.68825
843.14        74.20222
843.54        74.54597
843.95        74.73951
844.35        74.87523
844.76        74.96889
845.17        74.96155
845.57        74.85227
845.98        74.64201
846.38        74.37004
846.79        74.05132
847.19        73.76017
847.60        73.57098
848.00        73.51329
848.41        73.55118
848.81        73.63079
849.22        73.57063
849.62        73.37302
850.03        73.06512
850.43        72.76168
850.84        72.57861
851.24        72.59661
851.65        72.71738
852.05        72.95602
852.46        73.21004
852.86        73.43568
853.27        73.65405
853.67        73.77155
854.07        73.78447
854.48        73.66827
854.88        73.44748
855.29        73.12908
855.69        72.87674
856.10        72.67603
856.50         72.5895
856.90        72.54705
857.31        72.44551
857.71        72.31644
858.12        72.11242
858.52        71.96774
858.92        71.98518
859.33        72.16161
859.73         72.5091
860.13        72.82011
860.54        72.77719
860.94        72.36594
861.34        71.66484
861.75        70.94224
862.15        70.68628
862.55        70.98773
862.96         71.6693
863.36        72.50079
863.76         72.9883
864.17        72.97144
864.57        72.63731
864.97        72.10453
865.38        71.57228
865.78        71.15325
866.18        70.76201
866.58        70.48678
866.99        70.48933
867.39        70.80351
867.79        71.39008
868.19        72.02649
868.60         72.3276
869.00        72.23859
869.40        71.81259
869.80        71.27158
870.21        71.06207
870.61        71.36955
871.01        71.98772
871.41         72.5996
871.81        72.76178
872.22        72.38267
872.62        71.59781
873.02        70.68489
873.42        70.11551
873.82        70.02733
874.22        70.27015
874.63        70.58714
875.03        70.58594
875.43        70.16646
875.83        69.50228
876.23        68.79279
876.63        68.32737
877.03        68.19341
877.44        68.25255
877.84        68.47645
878.24        68.82896
878.64        69.20242
879.04        69.46965
879.44        69.60568
879.84        69.67377
880.24         69.6612
880.64        69.50593
881.04        69.18947
881.44        68.73618
881.84        68.18736
882.24         67.5811
882.65        67.03006
883.05        66.68003
883.45         66.5794
883.85        66.71879
884.25        67.02425
884.65        67.34963
885.05        67.63255
885.45        67.87582
885.85        68.13117
886.25        68.49718
886.65        68.97881
887.05          69.524
887.45        69.99498
887.85        70.17919
888.25        70.02573
888.65        69.59518
889.04        69.06188
889.44        68.72715
889.84         68.6496
890.24        68.76396
890.64         68.9072
891.04        68.80062
891.44        68.40797
891.84        67.86887
892.24        67.36713
892.64         67.1637
893.04        67.31751
893.44         67.7217
893.83        68.30782
894.23        68.91158
894.63        69.46281
895.03        69.97169
895.43        70.35928
895.83         70.5098
896.23        70.40253
896.63        70.05289
897.02        69.56551
897.42        69.15133
897.82         68.8821
898.22        68.75171
898.62        68.69621
899.01        68.58655
899.41        68.42066
899.81        68.22979
900.21        68.11481
900.61        68.23589
901.00        68.59823
901.40        69.10384
901.80        69.58999
902.20        69.80411
902.59        69.69767
902.99        69.36166
903.39        68.89221
903.79        68.44682
904.18        68.09499
904.58        67.79969
904.98        67.66058
905.38        67.83248
905.77        68.31586
906.17        69.09396
906.57        69.88705
906.96        70.21765
907.36        69.97039
907.76        69.28809
908.15         68.5787
908.55        68.48326
908.95        69.14799
909.34        70.37119
909.74        71.69198
910.14        72.44239
910.53         72.3858
910.93        71.73591
911.33        70.75999
911.72        69.85588
912.12        69.24183
912.52         68.8401
912.91        68.54227
913.31        68.20262
913.70         67.7989
914.10        67.36501
914.49        67.16737
914.89         67.5418
915.29        68.54062
915.68        70.02592
916.08        71.45959
916.47          72.031
916.87        71.57484
917.26         70.3305
917.66        68.92061
918.05        68.13064
918.45        68.15746
918.84        68.81902
919.24        69.71603
919.64        70.27702
920.03        70.32172
920.42        69.99863
920.82        69.62495
921.21        69.62319
921.61        70.07114
922.00        70.84956
922.40        71.61691
922.79        71.95042
923.19        71.70127
923.58        71.05639
923.98        70.32471
924.37        69.87952
924.77        69.83103
925.16        70.01781
925.55        70.30609
925.95        70.44678
926.34        70.37115
926.74        70.15766
927.13        69.81754
927.52        69.28761
927.92        68.66119
928.31        67.96909
928.70        67.40032
929.10        67.22129
929.49        67.45609
929.89        67.94686
930.28         68.6712
930.67        69.45374
931.07        70.15524
931.46        70.89464
931.85        71.33911
932.24        71.02179
932.64        69.97694
933.03         68.3401
933.42        66.82973
933.82        66.50054
934.21        67.54002
934.60        69.69998
934.99        72.20599
935.39        73.62317
935.78        73.55701
936.17        72.30886
936.56        70.61183
936.96        69.65141
937.35        69.74007
937.74        70.49786
938.13        71.37051
938.53        71.51251
938.92        70.73844
939.31        69.43461
939.70        68.04137
940.09        67.13613
940.49        66.84486
940.88        66.99239
941.27        67.43883
941.66        67.93713
942.05          68.366
942.44        68.82355
942.84        69.25228
943.23        69.53902
943.62        69.67386
944.01        69.60774
944.40        69.50322
944.79        69.67362
945.18         70.1577
945.57         70.8624
945.97        71.43613
946.36        71.38858
946.75        70.58682
947.14        69.27258
947.53        67.85618
947.92        66.90238
948.31        66.55952
948.70         66.6899
949.09        67.10391
949.48        67.46402
949.87        67.64836
950.26        67.74453
950.65        67.86238
951.04        68.18591
951.43        68.72752
951.82        69.35444
952.21        69.89516
952.60         70.1073
952.99        69.95661
953.38         69.5827
953.77        69.09997
954.16        68.67985
954.55        68.38746
954.94        68.13453
955.33        68.04679
955.72        68.33286
956.11        68.98663
956.50        69.96893
956.89         70.8276
957.28        70.79446
957.66        69.73985
958.05        67.97926
958.44        66.16199
958.83        65.22807
959.22        65.35964
959.61        66.27794
960.00        67.53302
960.39        68.27198
960.78        68.19414
961.16        67.57008
961.55        66.73683
961.94        66.09202
962.33        65.78252
962.72        65.69615
963.11        65.78712
963.49        66.03322
963.88        66.31068
964.27        66.61458
964.66        67.02314
965.04        67.68336
965.43        68.53945
965.82        69.58716
966.21        70.38392
966.60        70.13419
966.98        68.70526
967.37         66.5034
967.76        64.35745
968.15        63.29199
968.53        63.48395
968.92        64.69978
969.31        66.36649
969.69         67.3051
970.08         67.0364
970.47        65.93771
970.86        64.74021
971.24        64.49258
971.63        65.41161
972.02        67.17949
972.40        69.18534
972.79        69.96822
973.17        69.16822
973.56        67.34145
973.95         65.3101
974.33        64.10357
974.72        63.96161
975.11        64.55315
975.49        65.59668
975.88        66.47488
976.26        66.95914
976.65        67.17004
977.04        67.19122
977.42         67.1127
977.81        66.94648
978.19        66.61086
978.58          66.235
978.96        66.02278
979.35        66.00399
979.74        66.20135
980.12        66.54619
980.51        66.65705
980.89        66.57612
981.28         66.3678
981.66        66.26304
982.05        66.57944
982.43           67.38
982.82        68.52556
983.20        69.89222
983.59        71.11314
983.97        72.08585
984.35        72.82432
984.74        73.16267
985.12        73.11978
985.51        72.67077
985.89        71.85917
986.28        70.99626
986.66         70.4577
987.04        70.39586
987.43         70.7122
987.81        71.19827
988.20        71.29558
988.58        70.87498
988.96        70.01214
989.35        69.04559
989.73         68.4384
990.12        68.27906
990.50        68.51511
990.88        68.73227
991.27        68.24714
991.65        66.97902
992.03        65.19038
992.42        63.66806
992.80        63.45492
993.18        64.75173
993.56        67.32043
993.95        70.20729
994.33        71.74203
994.71        71.24933
995.10        69.30385
995.48        67.01852
995.86        66.14463
996.24         67.0849
996.63        69.22829
997.01        71.91161
997.39        73.38219
997.77         72.9556
998.15         71.3435
998.54        69.14227
998.92        67.04623
999.30        65.45432
999.68        64.15194
1000.06        63.49372
1000.45        63.97806
1000.83        65.71861
1001.21        68.72155
1001.59        72.33151
1001.97        74.76995
1002.35        75.29894
1002.73        74.35447
1003.12        72.90712
1003.50         72.2087
1003.88        72.68087
1004.26        73.80809
1004.64        75.41278
1005.02        77.04905
1005.40        78.32946
1005.78        79.52234
1006.16        79.94093
1006.54        78.46786
1006.92        75.23763
1007.30         70.7995
1007.69        66.68805
1008.07        64.91081
1008.45        66.03381
1008.83        69.58133
1009.21        74.55183
1009.59        78.26732
1009.97        79.22569
1010.35        78.05709
1010.73        75.35905
1011.11        72.11213
1011.49        68.95812
1011.86        65.82301
1012.24        63.23725
1012.62        61.83443
1013.00        61.67296
1013.38         62.6881
1013.76         64.6871
1014.14        66.87608
1014.52        68.63526
1014.90        69.88523
1015.28         70.5108
1015.66        70.56539
1016.04        70.16626
1016.41        69.32468
1016.79        68.10103
1017.17        66.82086
1017.55         65.6902
1017.93        64.68331
1018.31        64.12019
1018.69        64.37177
1019.06        65.48756
1019.44        67.54082
1019.82        69.72433
1020.20         70.1721
1020.58        68.29567
1020.95        64.62677
1021.33        61.01276
1021.71        59.45028
1022.09        60.21631
1022.46        63.15113
1022.84          66.792
1023.22        67.61089
1023.60        64.43715
1023.97        58.43926
1024.35        52.95011
1024.73        51.74369
