SpectraSmart Spectrum 2.9.0.0
--------- Device Information -----------
Spectrum Name :  反射率_0
Saving Time :  2024/04/26 22:34:39
Spectro-Module Model Name : SE2030-DUVN
Spectro-Module Serial Number : OS361AC55029948
Wavelength Start : 200
Wavelength End : 1025
Wavelength Unit : Wavelength(nm)
Spectrum Unit : Reflectance(%)
-----------Spectrum Setting ------------
Integration Time : 20ms
Average : 10
Boxcar : 0
Background removal :  enabled
linearity correction :  enabled
SC :  disabled
Intensity correction :  disabled
DWT denoise :  enabled
savitzky-golay :  disabled
FFT :  disabled
Running average :  disabled
Kalman :  disabled
High pass :  disabled
---------------BEGIN--------------------
Wavelength(nm)             Reflectance(%)
200.29               0
200.75        69.40636
201.21        68.91216
201.67        68.17253
202.13        67.27172
202.58        66.13523
203.04         64.7308
203.50        63.74278
203.96         64.8935
204.42        69.04818
204.88        76.03961
205.34        82.61099
205.80        83.24255
206.26        77.34864
206.72        67.59918
207.18        58.51803
207.64        53.42707
208.10        52.16035
208.55        54.34637
209.01        58.50208
209.47        59.53708
209.93        55.88714
210.39        51.37402
210.85        49.03036
211.31         50.7394
211.77        57.69762
212.23        74.50258
212.69         117.899
213.14        195.8222
213.60        201.3049
214.06        153.5226
214.52        118.2093
214.98        100.2011
215.44        89.99728
215.90        81.22092
216.36        74.53936
216.81        72.37434
217.27        75.71341
217.73        86.54031
218.19        102.4823
218.65        107.1922
219.11        95.64584
219.57        79.11579
220.02        67.77973
220.48        66.36729
220.94        73.45522
221.40         89.0267
221.86        112.1927
222.32        126.9189
222.77        119.6396
223.23        101.5689
223.69        83.66505
224.15        71.72768
224.61        64.80543
225.06        60.02468
225.52        57.25663
225.98        56.19145
226.44        56.34603
226.90        57.77571
227.36        59.13403
227.81        58.14999
228.27        54.88921
228.73        50.23683
229.19        46.25899
229.65        45.32255
230.10        47.35996
230.56        51.42617
231.02        55.59235
231.48        56.78454
231.93        54.53214
232.39        50.51478
232.85        46.40063
233.31        44.30976
233.77        44.51795
234.22        46.21204
234.68        48.68018
235.14        50.97769
235.60        52.74094
236.05        54.42359
236.51        55.81711
236.97        56.44472
237.43        56.20308
237.88        55.03345
238.34        53.73245
238.80        54.08014
239.26        56.79166
239.71        62.44557
240.17        70.17401
240.63        76.87817
241.08        80.41836
241.54        80.16034
242.00        78.72385
242.46        82.33398
242.91        95.57407
243.37        121.1455
243.83        160.9901
244.28        199.9324
244.74        211.8458
245.20        193.1751
245.66        163.9913
246.11        145.3268
246.57        139.1416
247.03        139.4942
247.48         139.632
247.94        130.4377
248.40         115.026
248.85        100.2605
249.31         89.8985
249.77        84.45486
250.22        82.54051
250.68        82.71421
251.14        84.35591
251.59        85.71286
252.05        85.98553
252.51         86.5266
252.96        86.18735
253.42        84.45831
253.88        81.67492
254.33        77.70359
254.79        75.68746
255.25        78.09534
255.70        84.16042
256.16        92.63373
256.62        99.05354
257.07        97.09769
257.53        89.20123
257.99         79.7937
258.44        72.13441
258.90        68.95251
259.35         68.7823
259.81        70.35629
260.27        72.01505
260.72        71.87729
261.18        70.13516
261.63        67.39804
262.09        64.81867
262.55        62.98831
263.00         61.8038
263.46        61.09031
263.91         60.2725
264.37        59.01622
264.83        57.29469
265.28        55.32327
265.74        53.61058
266.19        52.43483
266.65        51.88169
267.11        51.68953
267.56        51.62257
268.02        51.33281
268.47        50.70536
268.93         49.8762
269.38        48.87743
269.84        47.82374
270.30        46.74829
270.75        45.60551
271.21        44.49966
271.66        43.52904
272.12        42.71328
272.57        42.01054
273.03        41.32043
273.48        40.46144
273.94        39.46032
274.39        38.35269
274.85        37.31008
275.31        36.42124
275.76        35.68405
276.22        35.10054
276.67        34.57934
277.13        34.08521
277.58        33.55455
278.04        33.03127
278.49        32.49504
278.95        32.03629
279.40        31.60893
279.86         31.2438
280.31        30.84645
280.77        30.39177
281.22        29.84494
281.68        29.29736
282.13        28.77131
282.59        28.38076
283.04        28.10763
283.50        27.92995
283.95        27.81642
284.41        27.73395
284.86        27.65841
285.32        27.62274
285.77        27.57606
286.22         27.5061
286.68        27.41682
287.13        27.27824
287.59        27.15547
288.04        27.10674
288.50        27.15869
288.95        27.25911
289.41        27.35921
289.86        27.31868
290.32        27.16301
290.77        26.94222
291.22        26.76389
291.68        26.76748
292.13        26.98818
292.59        27.41338
293.04        28.01747
293.50        28.77508
293.95        29.65248
294.40        30.65226
294.86        31.75606
295.31         32.9229
295.77        34.14384
296.22        35.40559
296.68        36.70174
297.13        38.01625
297.58        39.36225
298.04        40.74736
298.49        42.20665
298.95        43.81295
299.40        45.55766
299.85        47.41734
300.31        49.32607
300.76        51.16125
301.21        52.90552
301.67        54.61079
302.12        56.30762
302.58        58.12789
303.03        60.05733
303.48        62.09286
303.94        64.20586
304.39        66.28893
304.84        68.35129
305.30        70.42781
305.75        72.53273
306.20        74.77397
306.66        77.16428
307.11         79.6171
307.57        82.03132
308.02        84.14902
308.47        85.95708
308.93        87.53142
309.38        89.02119
309.83        90.78306
310.29        92.88123
310.74        95.19363
311.19        97.46273
311.65        99.23382
312.10        100.3755
312.55        101.0325
313.00        101.4929
313.46        102.2084
313.91        103.2779
314.36        104.6065
314.82         105.994
315.27        107.1294
315.72        107.8967
316.18        108.4179
316.63        108.8225
317.08        109.3622
317.53        110.1019
317.99        110.9463
318.44        111.7692
318.89         112.341
319.35        112.6045
319.80        112.6464
320.25        112.6167
320.70         112.752
321.16        113.1126
321.61        113.6719
322.06        114.2879
322.51         114.735
322.97        114.9379
323.42        114.9693
323.87        114.9988
324.32        115.3238
324.78        115.9681
325.23        116.9251
325.68        117.8701
326.13         118.282
326.59        118.0416
327.04        117.3348
327.49        116.5688
327.94        116.4228
328.39        117.0549
328.85        118.2302
329.30        119.6595
329.75        120.5359
330.20        120.6074
330.66        120.0761
331.11        119.3704
331.56        119.0947
332.01        119.4363
332.46        120.1878
332.92        121.0406
333.37         121.654
333.82        121.8315
334.27        121.7525
334.72        121.5659
335.17         121.488
335.63        121.6016
336.08        121.8922
336.53        122.3638
336.98        123.0836
337.43         124.028
337.88        125.1499
338.34         126.302
338.79        127.3603
339.24        128.1882
339.69        128.8078
340.14        129.1691
340.59         129.228
341.05        129.0566
341.50        128.6899
341.95        128.3537
342.40        128.3853
342.85        128.8623
343.30        129.6976
343.75        130.7072
344.20         131.566
344.66        132.1579
345.11        132.5479
345.56        132.7889
346.01        132.9818
346.46        133.1803
346.91        133.3645
347.36        133.5223
347.81        133.6584
348.26        133.7655
348.72        133.8241
349.17        133.9052
349.62        134.1521
350.07        134.5639
350.52        135.1226
350.97        135.5267
351.42        135.2989
351.87         134.395
352.32        132.9881
352.77        131.5996
353.22        130.9918
353.67        131.2963
354.13        132.2775
354.58        133.4149
355.03        133.7888
355.48        133.1584
355.93        131.7992
356.38        130.2444
356.83        129.2971
357.28        129.1211
357.73        129.4337
358.18        129.7815
358.63        129.4496
359.08        128.2751
359.53         126.545
359.98         124.653
360.43        123.1483
360.88        122.1698
361.33        121.5394
361.78        121.0421
362.23        120.3525
362.68        119.3872
363.13        118.2758
363.58        117.1529
364.03        116.2018
364.48        115.4558
364.93        114.8183
365.38        114.1973
365.83        113.4719
366.28        112.6097
366.73        111.6683
367.18        110.6798
367.63        109.6823
368.08        108.6994
368.53         107.722
368.98        106.7838
369.43        105.9351
369.88        105.1825
370.33        104.5187
370.78        103.8914
371.23        103.2155
371.68        102.4689
372.13        101.6638
372.58         100.862
373.03        100.1619
373.48         99.5743
373.93        99.06161
374.38        98.52478
374.83        97.81812
375.28        96.91563
375.72        95.84515
376.17        94.78306
376.62        93.87457
377.07        93.16864
377.52        92.65051
377.97        92.20428
378.42         91.6554
378.87        90.97536
379.32        90.19463
379.77        89.51888
380.22         89.2438
380.67        89.38414
381.11        89.86848
381.56        90.27564
382.01        90.00107
382.46        88.95709
382.91        87.41006
383.36        85.85776
383.81          84.984
384.26        84.89766
384.71        85.35641
385.15        86.03853
385.60        86.38297
386.05        86.21272
386.50        85.70646
386.95        84.98869
387.40        84.25431
387.85        83.60249
388.29        82.92488
388.74        82.37123
389.19        81.94969
389.64        81.64375
390.09        81.43414
390.54        81.26736
390.98        81.02244
391.43         80.7201
391.88        80.39434
392.33        80.04438
392.78        79.67152
393.23        79.28922
393.67        78.85082
394.12         78.5097
394.57        78.34226
395.02        78.34518
395.47        78.46233
395.91        78.56781
396.36        78.41982
396.81        78.00905
397.26        77.43387
397.71        76.82123
398.15        76.38289
398.60        76.25703
399.05        76.12189
399.50        75.98026
399.95         76.2952
400.39        76.86263
400.84        76.55869
401.29        75.52046
401.74        75.10842
402.18        75.32211
402.63        74.99036
403.08        74.23282
403.53        73.95275
403.97         74.1799
404.42        74.51759
404.87        74.77198
405.32        74.76283
405.76        74.42546
406.21        73.86199
406.66        73.24933
407.11        72.89456
407.55        72.89274
408.00        73.05426
408.45        73.28076
408.90        73.52731
409.34        73.62952
409.79        73.29858
410.24          72.693
410.68        72.33038
411.13        72.28036
411.58        72.27875
412.03        72.25249
412.47         72.1987
412.92        72.07456
413.37        71.92191
413.81        71.79237
414.26        71.82767
414.71        72.01829
415.15         72.3441
415.60        72.69401
416.05        72.95643
416.49        73.08993
416.94        73.11504
417.39        73.07667
417.83        73.03349
418.28        73.01709
418.73        73.00945
419.17        73.02568
419.62        73.09334
420.07        73.20006
420.51        73.31538
420.96        73.43717
421.41        73.47025
421.85        73.37795
422.30        73.34376
422.74        73.29303
423.19        73.05533
423.64        72.69144
424.08        72.61246
424.53        72.83607
424.98        73.04117
425.42         73.2041
425.87        73.65076
426.31        74.21806
426.76        74.11752
427.21        73.50008
427.65           73.38
428.10         73.7345
428.54        73.85912
428.99        73.80065
429.44        73.66508
429.88        73.61969
430.33        74.31878
430.77        75.37609
431.22        75.76833
431.66        75.43966
432.11        74.88898
432.56        74.37753
433.00        74.41225
433.45        75.14996
433.89         75.7208
434.34        75.45729
434.78        76.85763
435.23          76.305
435.67        73.71393
436.12        74.39117
436.57        74.51521
437.01        75.56103
437.46        75.95261
437.90        75.66681
438.35        75.09157
438.79         75.1823
439.24         75.2689
439.68        75.56285
440.13        76.30497
440.57        77.26248
441.02        77.24474
441.46        76.43423
441.91        76.75851
442.35        77.83627
442.80        77.64758
443.24        76.43026
443.69         76.3636
444.13        77.37016
444.58        77.83713
445.02        77.70326
445.47        77.82288
445.91        78.20336
446.36        78.51097
446.80        78.71463
447.24         78.9171
447.69        79.11527
448.13        79.20516
448.58        79.24619
449.02        79.40933
449.47        79.64986
449.91        79.68816
450.36        79.53979
450.80         79.3342
451.25        79.17362
451.69        79.09909
452.13        79.14716
452.58        79.27926
453.02        79.45254
453.47        79.60661
453.91        79.70649
454.36        79.78773
454.80        79.80711
455.24        79.61086
455.69          79.204
456.13        78.74856
456.58        78.48185
457.02        77.78407
457.46        78.06461
457.91        78.27973
458.35        78.55084
458.79        78.42227
459.24        77.95714
459.68        77.12595
460.13        76.19259
460.57        76.02139
461.01        76.86551
461.46        76.31183
461.90        77.19348
462.34        78.56402
462.79        78.29953
463.23        78.00352
463.68         78.2308
464.12        77.81467
464.56        77.19283
465.01        76.30606
465.45        75.67188
465.89        75.35306
466.34         75.3643
466.78        75.77239
467.22        76.50793
467.67        75.66122
468.11        75.86417
468.55        75.82486
468.99        76.24261
469.44        76.30062
469.88        76.00376
470.32        75.77777
470.77        75.66046
471.21        75.57024
471.65        75.50658
472.10        75.50164
472.54        75.52059
472.98        75.48474
473.42        75.36828
473.87         75.3125
474.31        75.23703
474.75        74.85365
475.20         74.3094
475.64        74.13466
476.08        74.32114
476.52        74.30718
476.97        74.05849
477.41        74.00685
477.85        74.22495
478.29        73.92628
478.74        74.31585
479.18        74.38852
479.62        74.46184
480.06        74.45649
480.50        74.36388
480.95        74.23988
481.39        74.11073
481.83        74.02489
482.27        73.92779
482.72        74.33346
483.16        74.23026
483.60        74.25474
484.04        74.15267
484.48        74.27156
484.93        74.29677
485.37        73.99467
485.81        73.82185
486.25        72.91491
486.69        71.98998
487.14        74.93716
487.58        75.14905
488.02         74.2141
488.46        73.40289
488.90        73.30687
489.34        74.72578
489.79        75.35665
490.23        74.93553
490.67        74.37794
491.11        73.86328
491.55         73.5744
491.99        73.53946
492.43        73.38538
492.88        73.13441
493.32         73.1721
493.76        73.45944
494.20        73.65594
494.64        73.70248
495.08        73.77647
495.52        73.84377
495.96        73.65292
496.41        73.30688
496.85        73.28824
497.29        73.43404
497.73        73.59262
498.17        72.84248
498.61        72.60762
499.05        72.65679
499.49        72.84209
499.93        72.86658
500.37        73.02584
500.82        73.19247
501.26        73.32082
501.70        73.36805
502.14        73.27491
502.58        73.14022
503.02        73.10561
503.46        73.33666
503.90        73.63628
504.34        73.91642
504.78        73.97673
505.22        73.77507
505.66         73.3848
506.10        72.94296
506.54         72.6649
506.98        72.60645
507.42        72.70085
507.86        72.86516
508.30        72.96053
508.74        72.94356
509.18        72.86814
509.62        72.75936
510.06        72.65263
510.50        72.56899
510.94        72.48917
511.38        72.44322
511.82        72.48592
512.26        72.61919
512.70        72.82628
513.14        73.04506
513.58        73.17102
514.02        73.17764
514.46        73.09134
514.90        72.96323
515.34        72.88115
515.78        72.86964
516.22        72.90043
516.66        72.94476
517.10        72.95603
517.54        72.92199
517.98         72.8668
518.42         72.8012
518.86        72.73778
519.30        72.68544
519.74        72.63818
520.18        72.61186
520.62        72.63126
521.06        72.70042
521.50        72.81792
521.93        72.95544
522.37        73.04232
522.81        73.07095
523.25        73.04809
523.69        73.01866
524.13        73.05888
524.57        73.17357
525.01        73.32635
525.45        73.45029
525.89        73.43767
526.32        73.26414
526.76        73.00265
527.20        72.70227
527.64        72.44429
528.08        72.26313
528.52        72.13187
528.96        72.08193
529.40        72.16095
529.83        72.35251
530.27        72.64162
530.71         72.9134
531.15        72.99091
531.59        72.84064
532.03        72.51431
532.46        72.11726
532.90        71.87164
533.34        71.82069
533.78        71.86406
534.22        71.93603
534.66        72.02099
535.09        72.03669
535.53        71.85426
535.97          71.536
536.41        71.36359
536.85         71.3691
537.28        71.40077
537.72         71.4538
538.16        71.57947
538.60        71.76124
539.04        71.98544
539.47        72.17445
539.91        72.25555
540.35        72.20061
540.79        72.03436
541.22        71.83645
541.66        71.76031
542.10        71.82931
542.54        72.00063
542.97         72.1751
543.41           72.23
543.85        72.12749
544.29        71.92284
544.72        71.68411
545.16         71.5545
545.60        71.55363
546.04        71.65263
546.47        71.80444
546.91        71.92248
547.35        71.98501
547.79        72.01723
548.22        72.02885
548.66        72.06989
549.10        72.18105
549.53        72.14835
549.97        72.00945
550.41        71.82381
550.84        71.66669
551.28        71.68841
551.72        71.84467
552.15        71.90968
552.59        71.90508
553.03        71.72956
553.46        72.09505
553.90        71.86451
554.34        71.94833
554.77        71.83018
555.21        71.79588
555.65        71.81316
556.08        71.85698
556.52        72.23258
556.96        72.26436
557.39         72.3397
557.83        72.27202
558.27        71.99225
558.70        71.58508
559.14        71.38199
559.57        71.37321
560.01        71.33146
560.45        71.27605
560.88        71.35304
561.32        71.57592
561.75        71.90739
562.19        72.25136
562.63        72.22429
563.06         71.8935
563.50        71.81178
563.93         71.9164
564.37        71.87037
564.80        71.71671
565.24        71.54373
565.68        71.21184
566.11        71.95913
566.55        71.20608
566.98        71.00737
567.42        70.77071
567.85        70.99982
568.29        71.59583
568.72        71.85048
569.16        71.80269
569.60        71.96543
570.03        72.02135
570.47        72.11573
570.90        72.18148
571.34        71.67695
571.77        72.18459
572.21        72.21017
572.64        72.03308
573.08           72.61
573.51         71.9214
573.95        71.76814
574.38        71.83443
574.82        71.94195
575.25        71.63922
575.69        71.81789
576.12        72.27029
576.56        71.88051
576.99        71.30249
577.42        71.29786
577.86         71.6646
578.29        72.14049
578.73        72.11639
579.16        72.22591
579.60        71.92285
580.03        71.85129
580.47        71.62217
580.90        72.59718
581.33        72.13928
581.77        72.42009
582.20        71.27204
582.64        72.28439
583.07         72.5056
583.51        72.66862
583.94         72.1969
584.37        71.92202
584.81        72.08082
585.24        71.91021
585.68          71.476
586.11        71.87142
586.54        72.24566
586.98        71.45024
587.41        71.15717
587.85        71.67947
588.28        71.07095
588.71        71.59708
589.15        70.96335
589.58        71.49808
590.01        71.36086
590.45        71.36858
590.88        72.12418
591.31        72.16608
591.75        71.59931
592.18        71.07695
592.61        70.72905
593.05        71.14919
593.48        71.66228
593.91        71.58176
594.35        72.12624
594.78        71.55521
595.21        70.87617
595.65        70.86505
596.08        71.77814
596.51        71.99516
596.94        71.41584
597.38        71.17798
597.81        71.22402
598.24        71.95613
598.68        71.83112
599.11         71.2542
599.54        72.13679
599.97        71.50385
600.41          71.485
600.84        70.93253
601.27        71.34068
601.70        71.37875
602.14         71.6489
602.57        71.44757
603.00         71.2042
603.43        70.21925
603.87        71.22047
604.30        71.65265
604.73        71.56242
605.16        70.78536
605.60        70.99619
606.03         70.5482
606.46        69.97412
606.89        70.66013
607.32        71.44924
607.76        70.69474
608.19        71.40705
608.62        71.24837
609.05         71.0201
609.48        71.00793
609.92        72.09488
610.35        71.44473
610.78        70.80527
611.21        70.92056
611.64        70.92711
612.07        71.29053
612.50        71.17259
612.94        71.18972
613.37        71.17802
613.80        70.86908
614.23        70.23291
614.66        70.18858
615.09        70.67435
615.52        70.93112
615.96        70.82917
616.39        70.98312
616.82        71.45063
617.25        70.55636
617.68        70.79488
618.11        70.70768
618.54        70.98603
618.97         71.1514
619.40        71.12263
619.84        71.15057
620.27        70.62288
620.70         70.6251
621.13        70.91518
621.56        70.44946
621.99        69.78488
622.42        69.60441
622.85        70.11787
623.28        69.71794
623.71        70.00014
624.14        70.01005
624.57        70.45776
625.00         70.3816
625.43        70.53869
625.86        70.44397
626.29         70.3172
626.72        70.14121
627.15        70.22001
627.58        70.13587
628.01        69.86118
628.44        70.17136
628.87        69.93832
629.30        69.42741
629.73        69.44765
630.16        69.55018
630.59        69.57167
631.02        69.85172
631.45        70.17665
631.88        70.39915
632.31        70.45887
632.74        70.40283
633.17        70.27493
633.60        70.14278
634.03        70.03966
634.46        69.94549
634.89        69.84813
635.32        69.74689
635.75         69.6473
636.18        69.48369
636.61         69.3211
637.04        69.29999
637.47         69.4315
637.89        69.66405
638.32         69.8796
638.75        69.94665
639.18        69.83131
639.61        69.59016
640.04         69.3303
640.47        69.16386
640.90        69.22698
641.33        69.39417
641.76        69.61933
642.18        69.78369
642.61        69.82545
643.04        69.78979
643.47        69.71439
643.90        69.66101
644.33        69.64824
644.76        69.65271
645.18        69.65485
645.61        69.60995
646.04        69.51742
646.47        69.39861
646.90        69.28636
647.33        69.21327
647.75        69.16353
648.18        69.20318
648.61         69.3329
649.04        69.28337
649.47        68.98741
649.89        69.55544
650.32        69.15888
650.75        69.20087
651.18        69.18209
651.61        69.35394
652.03        69.64543
652.46        69.80216
652.89        69.76323
653.32         69.7321
653.74        69.76457
654.17        69.17123
654.60        69.79787
655.03        69.59901
655.46        67.83524
655.88        68.37394
656.31        70.15755
656.74        67.26845
657.16        71.90886
657.59        77.64926
658.02        71.94356
658.45        70.69619
658.87        69.87489
659.30        69.60628
659.73        70.25317
660.15        70.92614
660.58        69.88689
661.01        69.55909
661.44         69.5345
661.86        69.17728
662.29        68.53795
662.72        69.05334
663.14        69.26924
663.57        69.23408
664.00        68.69709
664.42        68.68758
664.85        69.23309
665.27        69.76328
665.70        70.07413
666.13        70.17027
666.55        70.01618
666.98        69.54305
667.41        68.90475
667.83        68.80544
668.26        68.59808
668.69        68.78667
669.11        69.07895
669.54         69.3238
669.96         69.4651
670.39        69.58699
670.82        69.69069
671.24        69.64285
671.67        69.49599
672.09        69.45746
672.52        69.53393
672.94        69.51509
673.37        69.40221
673.80        69.30389
674.22        69.25231
674.65        69.20824
675.07        69.19228
675.50        69.20078
675.92         69.2062
676.35        69.15274
676.77        69.03658
677.20        68.87104
677.62        68.71797
678.05        68.67788
678.47        68.76508
678.90        68.94934
679.32        69.15385
679.75        69.26997
680.17        69.26393
680.60        69.17377
681.02        69.05566
681.45        68.98914
681.87        69.01191
682.30        69.10093
682.72        69.23843
683.15        69.31906
683.57        69.35397
684.00        69.42132
684.42        69.53149
684.85        69.64322
685.27        69.74199
685.70        69.85832
686.12        69.94695
686.54        69.94297
686.97        69.83522
687.39        69.65691
687.82        69.44212
688.24        69.26583
688.66        69.15221
689.09        69.08794
689.51        69.07838
689.94        69.09577
690.36        69.13625
690.78        69.18679
691.21        69.25794
691.63        69.35693
692.06         69.4813
692.48        69.63393
692.90        69.74908
693.33        69.73257
693.75        69.57136
694.17        69.26249
694.60        68.95001
695.02        68.87839
695.44        69.06239
695.87        69.43903
696.29        69.83688
696.71        69.76608
697.14        69.29445
697.56        69.01912
697.98        69.04389
698.41          69.062
698.83        69.08032
699.25        69.36801
699.68         69.7598
700.10        69.89651
700.52        69.69599
700.94        69.28571
701.37        68.84755
701.79        68.67764
702.21        68.83957
702.64        69.21852
703.06        69.67194
703.48        69.95161
703.90        69.98068
704.33        69.83807
704.75        69.60296
705.17        69.39159
705.59        69.25985
706.01        69.17303
706.44        69.13428
706.86        69.18877
707.28        69.32369
707.70        69.48602
708.12        69.66151
708.55        69.91396
708.97        70.17323
709.39         70.1824
709.81        69.97438
710.23        69.86662
710.66         69.8904
711.08        69.89207
711.50        69.82999
711.92        69.73392
712.34        69.60586
712.76        69.45619
713.19        69.31696
713.61        69.27637
714.03        69.33731
714.45          69.481
714.87        69.67848
715.29        69.88627
715.71        70.07812
716.13        70.24334
716.56        70.35464
716.98        70.46725
717.40        70.54479
717.82        70.58264
718.24        70.54173
718.66        70.36156
719.08        70.06129
719.50        69.69704
719.92        69.37117
720.34        69.23173
720.76        69.30886
721.19        69.52892
721.61        69.86599
722.03        70.22018
722.45         70.5295
722.87        70.79982
723.29        70.95522
723.71        70.88097
724.13        70.57791
724.55         70.0965
724.97        69.57171
725.39        69.23424
725.81        69.15229
726.23        69.24632
726.65        69.44846
727.07        69.79308
727.49        69.97926
727.91        70.23279
728.33        70.45849
728.75        70.62982
729.17        70.73164
729.59        70.74873
730.01        70.70305
730.43        70.64201
730.85        70.58138
731.27        70.51691
731.69        70.43564
732.10        70.31219
732.52        70.14928
732.94        69.97002
733.36        69.82713
733.78        69.69798
734.20        69.58757
734.62        69.63333
735.04        70.09009
735.46        69.57458
735.88        70.20138
736.30        70.27847
736.72        70.42252
737.13         70.6327
737.55        70.83165
737.97        71.01307
738.39         71.1042
738.81        70.90605
739.23        70.53596
739.65        70.55111
740.06        70.88292
740.48        71.01604
740.90        70.90289
741.32        70.87116
741.74        70.93879
742.16        70.95978
742.57        70.93812
742.99        70.90615
743.41        70.86176
743.83         70.7794
744.25        70.66032
744.67        70.49743
745.08        70.36698
745.50        70.36469
745.92        70.51305
746.34        70.78107
746.75        71.04388
747.17        71.08646
747.59        70.87527
748.01        70.47524
748.42        70.04881
748.84        69.85696
749.26        69.95677
749.68        70.26191
750.09        70.62125
750.51        70.78722
750.93        70.69872
751.35        70.46738
751.76        70.16449
752.18         69.8915
752.60        69.68768
753.01        69.54425
753.43        69.44445
753.85        69.39246
754.27        69.38776
754.68        69.44527
755.10        69.54874
755.52        69.65845
755.93        69.75114
756.35        69.82358
756.77        69.92339
757.18        69.98634
757.60        70.01344
758.02        70.23862
758.43        70.62414
758.85        69.91638
759.26        70.54666
759.68        69.73847
760.10        69.71964
760.51        70.06419
760.93        70.15711
761.34        70.33575
761.76        70.30191
762.18         70.5648
762.59        71.03959
763.01        71.05014
763.42        70.70123
763.84        70.53673
764.26        70.62923
764.67        70.68595
765.09        70.68855
765.50        70.50957
765.92        70.24702
766.33        70.16814
766.75        70.21418
767.16        70.21215
767.58        70.10018
768.00        69.96768
768.41        69.91062
768.83        70.07985
769.24        70.38272
769.66        70.59627
770.07        70.64799
770.49        70.34657
770.90        69.92181
771.32         70.3043
771.73        71.31745
772.15        71.69003
772.56        71.34753
772.97        70.96821
773.39        70.73765
773.80        70.66611
774.22        70.78645
774.63        71.13674
775.05        71.52151
775.46        71.69862
775.88        71.57068
776.29        71.24142
776.70         70.8503
777.12        70.64393
777.53        70.70399
777.95        70.92197
778.36        71.21086
778.77        71.38325
779.19        71.39485
779.60        71.31731
780.02         71.1982
780.43        71.13898
780.84        71.18149
781.26        71.15041
781.67        71.09789
782.09        71.36526
782.50        71.81651
782.91         71.7963
783.33        71.34954
783.74        71.14297
784.15        71.20232
784.57        71.22087
784.98        71.21047
785.39        71.15984
785.81        71.15836
786.22        71.59339
786.63         72.2935
787.04        72.59261
787.46         72.4383
787.87        72.12937
788.28         71.8304
788.70         71.6624
789.11        71.65813
789.52        71.81184
789.93        72.01466
790.35        72.07697
790.76         71.9603
791.17        71.71044
791.58        71.45728
792.00        71.31792
792.41        71.33661
792.82        71.67879
793.23        72.11722
793.65        71.94252
794.06        71.31382
794.47        71.36655
794.88         72.0062
795.29        72.19979
795.71         71.8825
796.12        71.73634
796.53        71.82479
796.94         71.7908
797.35        71.71393
797.76        72.05634
798.18        72.65048
798.59        72.88741
799.00         72.6745
799.41        72.31034
799.82        71.94774
800.23        71.73285
800.64        71.72797
801.06        71.85491
801.47        72.06642
801.88        72.18257
802.29        72.15009
802.70        72.02934
803.11        71.85984
803.52        71.70378
803.93        71.60588
804.34        71.54362
804.75        71.55191
805.17        71.74294
805.58        72.15846
805.99          72.543
806.40        72.82927
806.81         73.3797
807.22        73.92286
807.63        73.41068
808.04        72.11414
808.45        71.43705
808.86        71.54275
809.27        71.74003
809.68        71.87502
810.09        71.98971
810.50        72.01753
810.91         71.9468
811.32        71.89586
811.73        72.05029
812.14         72.4346
812.55         72.9782
812.96        73.48555
813.37        73.60529
813.78        73.25734
814.19        72.59319
814.60         71.8406
815.01        71.29725
815.42        71.03825
815.83        70.98296
816.24        71.08594
816.65         71.2522
817.05        71.43301
817.46        71.62943
817.87        71.82372
818.28        71.93377
818.69        71.94891
819.10        71.86511
819.51        71.76056
819.92        71.79365
820.33        72.00026
820.74        72.33089
821.14        72.68848
821.55        72.90855
821.96        72.94839
822.37         72.8532
822.78        72.69311
823.19        72.58681
823.60        72.57597
824.00        72.65599
824.41        72.72626
824.82        72.73296
825.23         72.6512
825.64        72.50741
826.04        72.37554
826.45        72.32562
826.86        72.39168
827.27          72.561
827.68        72.74335
828.08        72.81448
828.49        72.68983
828.90        72.41849
829.31        72.14934
829.72        72.12994
830.12        72.43476
830.53         72.9344
830.94        73.41891
831.35        73.48157
831.75        73.04533
832.16        72.22322
832.57        71.31911
832.97        70.78634
833.38        70.74728
833.79        71.05215
834.20        71.52203
834.60         71.8688
835.01        72.00631
835.42        72.06706
835.82         72.1006
836.23        72.10629
836.64        72.13238
837.04        72.10763
837.45        72.15479
837.86        72.55712
838.26        73.35971
838.67        74.44606
839.08        75.43076
839.48        75.58119
839.89        74.75069
840.29        73.22705
840.70          71.683
841.11        70.89784
841.51        71.05819
841.92        71.91075
842.33        73.13738
842.73        74.14866
843.14        74.59543
843.54        74.68937
843.95        74.55673
844.35        74.47073
844.76        74.49863
845.17        74.53091
845.57        74.51082
845.98        74.34186
846.38        74.03401
846.79        73.64833
847.19        73.27703
847.60        73.01396
848.00        72.90583
848.41        72.90804
848.81        72.99458
849.22        73.03648
849.62        73.03805
850.03        73.00295
850.43        72.99821
850.84        73.06276
851.24          73.252
851.65         73.4839
852.05        73.77177
852.46        74.01899
852.86        74.19186
853.27        74.30541
853.67        74.31458
854.07        74.28328
854.48        74.19676
854.88         74.0782
855.29        73.86126
855.69        73.57497
856.10        73.17403
856.50         72.7537
856.90        72.37129
857.31        72.13895
857.71        72.13522
858.12        72.24994
858.52        72.45433
858.92        72.57495
859.33        72.53651
859.73         72.4377
860.13        72.22422
860.54        71.83665
860.94         71.3437
861.34        70.75094
861.75        70.23421
862.15        70.12854
862.55        70.47013
862.96         71.1273
863.36        71.90741
863.76        72.37728
864.17        72.39075
864.57        72.09797
864.97        71.58729
865.38        71.01884
865.78        70.50422
866.18        69.99579
866.58         69.6049
866.99        69.52718
867.39        69.81831
867.79        70.42281
868.19        71.15372
868.60        71.68904
869.00        71.96522
869.40        72.00275
869.80        71.90245
870.21        71.87757
870.61        72.04778
871.01        72.29559
871.41        72.42825
871.81         72.1723
872.22        71.49651
872.62         70.5046
873.02        69.50771
873.42        69.02411
873.82        69.18999
874.22        69.84643
874.63        70.63815
875.03        71.01474
875.43        70.81155
875.83        70.18752
876.23        69.42148
876.63        68.94475
877.03        68.87798
877.44        69.07527
877.84        69.35126
878.24        69.40816
878.64        69.13697
879.04        68.53428
879.44         67.9131
879.84        67.82928
880.24        68.34075
880.64        69.22415
881.04        70.08276
881.44        70.29482
881.84         69.7215
882.24        68.58582
882.65         67.3264
883.05        66.61826
883.45        66.64732
883.85        67.22211
884.25        68.05294
884.65        68.64115
885.05         68.8154
885.45        68.72162
885.85        68.52721
886.25         68.4831
886.65        68.65334
887.05        68.93143
887.45         69.1883
887.85        69.23786
888.25        69.03289
888.65        68.65324
889.04        68.22842
889.44        67.97082
889.84        67.92461
890.24        68.04113
890.64        68.21346
891.04        68.26693
891.44        68.16313
891.84        67.96592
892.24        67.79253
892.64         67.8101
893.04        68.05733
893.44         68.4879
893.83        69.00187
894.23        69.38265
894.63        69.58467
895.03        69.63013
895.43        69.64333
895.83        69.83977
896.23        70.23976
896.63        70.74509
897.02        71.13041
897.42        71.07001
897.82        70.51788
898.22        69.64715
898.62        68.68884
899.01        67.96531
899.41        67.59842
899.81        67.48646
900.21         67.5966
900.61        67.86849
901.00        68.23866
901.40        68.70074
901.80        69.13777
902.20        69.35814
902.59        69.32409
902.99        69.06063
903.39        68.66647
903.79        68.31922
904.18        68.08309
904.58        67.94247
904.98        67.89714
905.38        67.94606
905.77        68.07832
906.17        68.30667
906.57        68.57858
906.96        68.79822
907.36        68.92044
907.76        68.97781
908.15         69.0304
908.55        69.15916
908.95        69.38584
909.34        69.67058
909.74        69.93281
910.14        70.15195
910.53        70.27878
910.93        70.33967
911.33        70.25818
911.72        69.89609
912.12         69.3318
912.52        68.64869
912.91        68.00029
913.31        67.63336
913.70        67.60703
914.10        67.81239
914.49        68.25495
914.89        68.84597
915.29        69.52214
915.68        70.28358
916.08        70.86906
916.47        70.92647
916.87        70.42623
917.26        69.47442
917.66        68.46301
918.05        67.84213
918.45        67.73302
918.84        68.06268
919.24        68.59986
919.64        69.05399
920.03        69.32354
920.42        69.45258
920.82         69.5832
921.21        69.89046
921.61        70.37975
922.00        70.98479
922.40        71.49979
922.79        71.73901
923.19         71.6182
923.58        71.25764
923.98        70.78336
924.37        70.30225
924.77        69.88831
925.16        69.46884
925.55        69.14806
925.95        69.08121
926.34         69.2908
926.74        69.71162
927.13        70.07306
927.52        69.86909
927.92        69.08198
928.31        67.88818
928.70        66.67931
929.10        66.02554
929.49        66.04823
929.89         66.5124
930.28        67.31133
930.67        68.13001
931.07        68.78587
931.46        69.44994
931.85         69.8729
932.24        69.70667
932.64        68.98724
933.03        67.77227
933.42        66.64606
933.82        66.48027
934.21        67.42633
934.60        69.29725
934.99        71.41356
935.39        72.52145
935.78        72.29634
936.17        70.98814
936.56        69.31221
936.96        68.41357
937.35        68.58134
937.74        69.47265
938.13        70.46288
938.53        70.58221
938.92        69.64063
939.31        68.05745
939.70        66.42179
940.09        65.54631
940.49        65.59015
940.88        66.29838
941.27        67.36146
941.66        68.21667
942.05        68.64299
942.44        68.84298
942.84        68.88172
943.23        68.84624
943.62        68.80334
944.01        68.63982
944.40        68.53629
944.79        68.83889
945.18        69.56595
945.57        70.62093
945.97        71.53761
946.36        71.60975
946.75         70.6654
947.14        69.03066
947.53        67.23824
947.92        66.03815
948.31        65.63304
948.70         65.8236
949.09        66.42655
949.48        67.11079
949.87        67.71606
950.26        68.31329
950.65        68.87775
951.04        69.36931
951.43        69.75034
951.82        69.94777
952.21         69.9286
952.60        69.69282
952.99        69.29035
953.38        68.80822
953.77        68.32207
954.16        67.92651
954.55        67.66073
954.94        67.48283
955.33        67.49951
955.72        67.87334
956.11        68.58694
956.50        69.58247
956.89        70.46996
957.28        70.60104
957.66        69.84953
958.05         68.4745
958.44        66.99277
958.83        66.16197
959.22        66.13045
959.61        66.66575
960.00        67.44134
960.39         67.8414
960.78        67.65483
961.16        67.10609
961.55         66.4007
961.94        65.73457
962.33        65.20984
962.72        64.76548
963.11        64.50056
963.49        64.66288
963.88        65.20241
964.27        66.01532
964.66         66.9595
965.04        67.87411
965.43        68.63589
965.82         69.3157
966.21        69.65444
966.60        69.21878
966.98        67.99134
967.37        66.24971
967.76        64.60802
968.15        63.82666
968.53        64.02935
968.92        65.04118
969.31        66.42027
969.69        67.24244
970.08        67.09693
970.47        66.26894
970.86        65.28123
971.24        64.88402
971.63        65.24209
972.02        66.13143
972.40        67.16852
972.79        67.38004
973.17        66.59376
973.56        65.20441
973.95        63.79616
974.33        63.08637
974.72        63.22606
975.11        63.96236
975.49        65.04933
975.88        65.92707
976.26        66.40193
976.65        66.58102
977.04        66.53001
977.42        66.33002
977.81        66.00842
978.19        65.49248
978.58        65.03299
978.96        65.01947
979.35        65.49261
979.74        66.40485
980.12        67.44005
980.51        67.76931
980.89        67.33536
981.28        66.38107
981.66        65.40369
982.05         65.0928
982.43        65.61945
982.82        66.74844
983.20        68.32956
983.59        69.93835
983.97        71.40428
984.35        72.75218
984.74        73.70151
985.12        74.06323
985.51        73.75599
985.89        72.85947
986.28        71.76594
986.66        71.00871
987.04        70.79086
987.43        70.95502
987.81        71.35014
988.20        71.51332
988.58        71.31296
988.96        70.81465
989.35        70.15335
989.73        69.47565
990.12        68.83876
990.50        68.29075
990.88        67.69157
991.27        66.86974
991.65        65.88139
992.03        64.79375
992.42        64.12468
992.80        64.56323
993.18        66.19575
993.56        68.85058
993.95        71.60274
994.33        72.85172
994.71        71.98943
995.10         69.6296
995.48        66.86545
995.86         65.3856
996.24         65.6139
996.63        66.99146
997.01        69.14782
997.39        70.88425
997.77        71.59731
998.15        71.69074
998.54        71.24093
998.92         70.2203
999.30        68.85521
999.68         67.1595
1000.06        65.66274
1000.45         65.1045
1000.83        65.71035
1001.21        67.39517
1001.59        69.72802
1001.97        71.49263
1002.35        72.16927
1002.73        72.08167
1003.12        71.77597
1003.50        71.88947
1003.88        72.68997
1004.26        73.77585
1004.64        75.08856
1005.02        76.45887
1005.40        77.65324
1005.78        78.89661
1006.16        79.43458
1006.54        78.06515
1006.92        74.90615
1007.30        70.51077
1007.69         66.6289
1008.07        65.59734
1008.45        68.05349
1008.83        73.52807
1009.21        80.50599
1009.59        85.07379
1009.97        85.27828
1010.35        82.14712
1010.73        77.28378
1011.11        73.09625
1011.49        70.44004
1011.86        68.69762
1012.24        67.77698
1012.62         67.5212
1013.00        67.78609
1013.38        68.72359
1013.76        70.25703
1014.14        71.86261
1014.52        73.10618
1014.90        73.86044
1015.28        73.91667
1015.66        73.17058
1016.04        71.72967
1016.41        69.69738
1016.79        67.49982
1017.17        66.07867
1017.55        65.73031
1017.93        66.15245
1018.31        67.06818
1018.69        68.03991
1019.06         68.9361
1019.44        69.97952
1019.82        70.72215
1020.20        70.22532
1020.58        68.35432
1020.95        65.39043
1021.33        62.77254
1021.71        62.02658
1022.09        63.38629
1022.46        66.90005
1022.84        71.29861
1023.22         73.3221
1023.60        71.66029
1023.97        67.04813
1024.35        62.65235
1024.73        62.24801
