SpectraSmart Spectrum 2.9.0.0
--------- Device Information -----------
Spectrum Name :  反射率_0
Saving Time :  2024/04/26 22:43:56
Spectro-Module Model Name : SE2030-DUVN
Spectro-Module Serial Number : OS361AC55029948
Wavelength Start : 200
Wavelength End : 1025
Wavelength Unit : Wavelength(nm)
Spectrum Unit : Reflectance(%)
-----------Spectrum Setting ------------
Integration Time : 20ms
Average : 10
Boxcar : 0
Background removal :  enabled
linearity correction :  enabled
SC :  disabled
Intensity correction :  disabled
DWT denoise :  enabled
savitzky-golay :  disabled
FFT :  disabled
Running average :  disabled
Kalman :  disabled
High pass :  disabled
---------------BEGIN--------------------
Wavelength(nm)             Reflectance(%)
200.29               0
200.75        34.20156
201.21        33.11178
201.67        32.29522
202.13         32.6287
202.58        34.23062
203.04        37.11433
203.50        41.41758
203.96        46.45965
204.42        51.10363
204.88        54.98506
205.34        56.97662
205.80        56.08342
206.26        52.71022
206.72        47.67512
207.18        42.79554
207.64        39.14022
208.10        36.37359
208.55        34.14571
209.01        31.79097
209.47        29.74209
209.93         28.9831
210.39        29.48474
210.85          30.554
211.31        32.03609
211.77        34.46908
212.23        39.43541
212.69        51.94326
213.14        76.76864
213.60        80.95683
214.06        67.56643
214.52         56.9988
214.98        51.64033
215.44        48.71351
215.90        46.32432
216.36        44.49026
216.81        43.44201
217.27        43.70051
217.73        46.17671
218.19        50.84824
218.65        54.44235
219.11        54.70022
219.57        52.57104
220.02        51.60548
220.48         55.0839
220.94        63.39323
221.40        78.01134
221.86        97.26633
222.32        105.2363
222.77        91.84742
223.23        69.51375
223.69        51.12216
224.15        43.16201
224.61        42.88638
225.06        46.07465
225.52        49.96677
225.98        51.75448
226.44        51.22393
226.90        49.54787
227.36        47.35387
227.81        45.61374
228.27        44.80203
228.73        44.33245
229.19        44.18761
229.65        44.41197
230.10         44.9318
230.56        45.90543
231.02        46.84636
231.48        46.94751
231.93         46.1063
232.39        44.77412
232.85        43.70022
233.31        43.98258
233.77        45.61832
234.22        48.19895
234.68        50.80151
235.14        52.04988
235.60         51.5654
236.05        49.76226
236.51        47.17183
236.97        45.06432
237.43        44.11485
237.88        44.12653
238.34        44.99652
238.80        46.69437
239.26        49.28973
239.71         53.5429
240.17        59.11111
240.63        64.66817
241.08        69.13842
241.54        71.43356
242.00        72.98087
242.46        77.84414
242.91        89.18629
243.37         108.982
243.83        137.3173
244.28        159.5167
244.74        155.6316
245.20         127.395
245.66         95.5825
246.11        77.54829
246.57        73.27469
247.03         77.2424
247.48        83.38284
247.94        81.90694
248.40        73.51292
248.85         64.0769
249.31        56.95235
249.77         53.2498
250.22        52.20066
250.68        52.62804
251.14        54.42379
251.59        57.08111
252.05        59.83709
252.51        62.89392
252.96        64.52377
253.42        63.65106
253.88        61.00956
254.33          57.276
254.79        55.26959
255.25        57.21391
255.70        62.70275
256.16        70.65471
256.62        77.92902
257.07        79.62273
257.53        76.70355
257.99         71.9872
258.44        67.76678
258.90        66.29815
259.35         66.6161
259.81        68.04649
260.27        69.29715
260.72        68.90688
261.18        67.18429
261.63        64.59879
262.09        62.35446
262.55        61.15025
263.00        60.80296
263.46        61.04063
263.91        61.06304
264.37        60.21705
264.83        58.46968
265.28        56.19549
265.74        54.07729
266.19        52.61169
266.65        51.92757
267.11        51.67841
267.56        51.61202
268.02         51.3541
268.47        50.77162
268.93        50.03865
269.38        49.10775
269.84          47.961
270.30        46.62791
270.75        45.09917
271.21        43.65065
271.66        42.64614
272.12        42.14332
272.57        42.01695
273.03        41.95115
273.48         41.4131
273.94        40.36475
274.39        38.97466
274.85        37.62165
275.31        36.68432
275.76        36.20178
276.22        36.04355
276.67        35.99006
277.13        35.83676
277.58        35.46272
278.04        34.97041
278.49        34.35569
278.95        33.73043
279.40         33.0798
279.86        32.45359
280.31        31.79334
280.77        31.13253
281.22        30.45289
281.68        29.83382
282.13        29.30611
282.59        28.99182
283.04        28.85858
283.50        28.87636
283.95        28.94933
284.41        28.94156
284.86        28.81015
285.32        28.62027
285.77        28.40101
286.22        28.25946
286.68        28.22071
287.13        28.21742
287.59        28.25022
288.04         28.2751
288.50        28.29882
288.95        28.30589
289.41        28.30246
289.86         28.2255
290.32        28.11316
290.77        27.97817
291.22         27.8869
291.68        27.92117
292.13        28.10088
292.59        28.43784
293.04        28.92631
293.50        29.56923
293.95        30.35224
294.40        31.28174
294.86        32.34673
295.31         33.5166
295.77        34.78475
296.22        36.13199
296.68        37.56341
297.13        39.07616
297.58        40.67773
298.04        42.37023
298.49         44.1346
298.95        45.96141
299.40        47.82907
299.85        49.73602
300.31         51.6974
300.76        53.71597
301.21        55.79477
301.67        57.94116
302.12        60.08755
302.58        62.22344
303.03        64.29649
303.48        66.34275
303.94         68.4173
304.39        70.53268
304.84        72.72368
305.30        74.98752
305.75        77.24921
306.20        79.48986
306.66        81.70488
307.11        83.85292
307.57        85.94095
308.02        87.86538
308.47        89.64072
308.93         91.2903
309.38        92.85612
309.83        94.53285
310.29        96.35899
310.74        98.28266
311.19        100.1404
311.65        101.6297
312.10        102.6632
312.55        103.3249
313.00        103.8664
313.46        104.6876
313.91        105.8505
314.36        107.2694
314.82        108.6904
315.27        109.7137
315.72        110.2203
316.18        110.3724
316.63        110.3805
317.08        110.6266
317.53         111.212
317.99        112.0041
318.44        112.8598
318.89        113.5136
319.35        113.8802
319.80         114.055
320.25         114.133
320.70        114.2619
321.16        114.4921
321.61        114.8229
322.06        115.1934
322.51        115.5204
322.97         115.768
323.42        115.9689
323.87        116.2347
324.32        116.7667
324.78        117.5478
325.23        118.5879
325.68        119.5688
326.13        119.9815
326.59        119.7156
327.04        118.9574
327.49        118.1026
327.94        117.8172
328.39        118.2649
328.85         119.217
329.30        120.4561
329.75        121.2947
330.20        121.5066
330.66        121.2634
331.11        120.8718
331.56        120.7368
332.01        120.9995
332.46        121.5042
332.92         122.066
333.37        122.5675
333.82        122.8784
334.27        123.1109
334.72         123.309
335.17        123.5142
335.63        123.7523
336.08        124.0621
336.53        124.5041
336.98         125.239
337.43        126.2736
337.88        127.5222
338.34        128.8072
338.79        129.9639
339.24        130.8378
339.69         131.471
340.14         131.822
340.59        131.8545
341.05        131.6494
341.50        131.2399
341.95        130.8604
342.40        130.8637
342.85        131.3292
343.30        132.1654
343.75         133.183
344.20         134.046
344.66        134.6354
345.11        135.0233
345.56        135.2586
346.01         135.433
346.46        135.6082
346.91        135.7773
347.36        135.9512
347.81        136.1701
348.26        136.4308
348.72         136.692
349.17          137.01
349.62        137.5088
350.07         138.166
350.52        138.9552
350.97        139.5347
351.42        139.3661
351.87        138.4012
352.32        136.8427
352.77        135.2662
353.22         134.515
353.67        134.7467
354.13        135.7086
354.58        136.8796
355.03        137.3284
355.48        136.8041
355.93        135.5907
356.38        134.1876
356.83         133.347
357.28        133.2238
357.73        133.5365
358.18        133.8826
358.63        133.6351
359.08        132.6422
359.53        131.1599
359.98        129.4979
360.43        128.0805
360.88        127.0269
361.33         126.201
361.78        125.4811
362.23        124.6911
362.68        123.7827
363.13        122.8373
363.58         121.904
364.03        121.0329
364.48         120.224
364.93        119.4238
365.38        118.6053
365.83        117.7511
366.28        116.8611
366.73        115.9619
367.18        115.0399
367.63        114.0636
368.08        113.0397
368.53         111.985
368.98        110.9757
369.43        110.1257
369.88        109.4563
370.33        108.9388
370.78        108.4734
371.23        107.8984
371.68        107.1699
372.13        106.3177
372.58        105.4523
373.03        104.7532
373.48        104.2451
373.93        103.8588
374.38        103.4406
374.83        102.7578
375.28        101.7715
375.72        100.5565
376.17        99.33592
376.62         98.3158
377.07        97.56906
377.52        97.05833
377.97        96.68241
378.42        96.29095
378.87        95.83453
379.32        95.31464
379.77        94.86881
380.22        94.69513
380.67        94.78992
381.11        95.11476
381.56        95.28008
382.01        94.75639
382.46          93.502
382.91        91.77647
383.36        90.10715
383.81        89.21085
384.26        89.19032
384.71        89.79568
385.15        90.64559
385.60        91.07132
386.05        90.86756
386.50        90.23675
386.95        89.35718
387.40        88.51652
387.85          87.831
388.29        87.15173
388.74        86.59978
389.19        86.12845
389.64        85.71516
390.09        85.37871
390.54        85.06876
390.98        84.66779
391.43        84.21189
391.88        83.72855
392.33        83.28277
392.78        82.94666
393.23        82.72364
393.67        82.59827
394.12        82.59341
394.57        82.43468
395.02        82.16282
395.47        82.12067
395.91        82.24094
396.36        82.07011
396.81        81.61796
397.26        81.14409
397.71        80.71806
398.15        80.34637
398.60        80.14301
399.05          79.929
399.50        79.74368
399.95        79.87655
400.39        80.21978
400.84        80.16496
401.29        79.69366
401.74        79.29639
402.18        78.99644
402.63        78.41997
403.08        77.72854
403.53        77.34352
403.97        77.30782
404.42        77.49424
404.87        77.74176
405.32        77.77093
405.76        77.50078
406.21        77.13001
406.66        76.76416
407.11        76.39504
407.55        76.18553
408.00        76.44678
408.45        77.02302
408.90        77.27741
409.34        77.04377
409.79        76.47805
410.24        75.79524
410.68        75.34777
411.13        75.21545
411.58         75.2198
412.03        75.24249
412.47        75.15934
412.92        74.90681
413.37         74.5694
413.81        74.24325
414.26         74.1329
414.71        74.24421
415.15        74.53918
415.60        74.89117
416.05        75.16944
416.49        75.31964
416.94        75.35779
417.39        75.33867
417.83        75.33607
418.28        75.37772
418.73        75.43795
419.17        75.48493
419.62         75.4754
420.07        75.39553
420.51        75.24659
420.96        75.10959
421.41        75.01975
421.85        74.95817
422.30        75.04907
422.74        75.14803
423.19         74.9976
423.64        74.63129
424.08        74.47192
424.53        74.54678
424.98        74.61887
425.42        74.69819
425.87        74.96028
426.31        75.31367
426.76        75.37948
427.21        75.18544
427.65        75.04371
428.10        74.98643
428.54        74.97604
428.99        75.06514
429.44         74.9912
429.88        74.88402
430.33        75.44196
430.77        76.31646
431.22        76.63886
431.66        76.31496
432.11        75.63423
432.56        74.88419
433.00        74.75176
433.45        75.49804
433.89        76.38395
434.34        76.46338
434.78        78.40644
435.23        76.75004
435.67        74.23878
436.12        75.76818
436.57        75.86272
437.01         76.1275
437.46        76.23048
437.90        76.27226
438.35        75.46004
438.79        75.71388
439.24         75.6284
439.68        75.72326
440.13        76.06815
440.57        76.61427
441.02        76.76803
441.46        76.57258
441.91        77.15872
442.35        78.09962
442.80        77.93025
443.24        76.90087
443.69        76.75689
444.13        77.40945
444.58        78.18129
445.02        77.69891
445.47        77.86089
445.91        78.26062
446.36        78.56281
446.80        78.72335
447.24        78.85087
447.69        78.96458
448.13        79.03963
448.58        79.09896
449.02        79.10897
449.47        79.09433
449.91        79.06353
450.36        79.04828
450.80        79.03017
451.25         79.0291
451.69        79.00868
452.13        78.98238
452.58        78.94479
453.02        78.91643
453.47        78.93866
453.91         79.0003
454.36         79.1041
454.80        79.19982
455.24        79.04314
455.69        78.60765
456.13        78.24811
456.58        78.18027
457.02        77.10043
457.46        77.28407
457.91        77.42648
458.35        77.86731
458.79        77.80236
459.24        77.27847
459.68         76.4818
460.13        75.66379
460.57        75.46576
461.01        76.08958
461.46        75.64877
461.90        76.44569
462.34        77.48548
462.79        77.14878
463.23        77.29962
463.68         77.2141
464.12        76.90411
464.56        76.35853
465.01         75.6345
465.45         74.9133
465.89        74.70995
466.34        74.91125
466.78        75.17059
467.22        75.42171
467.67        74.75837
468.11        74.65359
468.55        74.64802
468.99         75.0489
469.44        75.06133
469.88        74.67479
470.32        74.35001
470.77        74.16592
471.21        74.05964
471.65        74.03758
472.10        74.11598
472.54        74.23963
472.98        74.28707
473.42        74.21595
473.87        74.21202
474.31        74.18562
474.75        73.74383
475.20        73.06177
475.64        72.90463
476.08        73.26916
476.52        73.23981
476.97        72.72626
477.41        72.99115
477.85        73.18497
478.29        72.59244
478.74        73.10352
479.18        73.38336
479.62        73.44259
480.06        73.40644
480.50         73.2545
480.95        73.12116
481.39        73.11256
481.83        72.55843
482.27        72.85067
482.72        72.94951
483.16        72.99314
483.60         73.0452
484.04        73.00843
484.48        73.28745
484.93        73.55865
485.37        72.81502
485.81        72.55166
486.25        71.91871
486.69        72.11752
487.14        74.94255
487.58        74.31311
488.02        73.18133
488.46         72.4247
488.90        72.17258
489.34        74.04243
489.79         74.3717
490.23        73.37159
490.67        72.54366
491.11        72.14186
491.55        72.04807
491.99        72.18208
492.43        72.10113
492.88        71.79497
493.32        71.72533
493.76        71.90787
494.20        72.06047
494.64        72.14916
495.08        72.29141
495.52         72.4321
495.96         72.3899
496.41        72.18771
496.85        72.07843
497.29        71.97884
497.73         71.9707
498.17        71.21785
498.61        71.21761
499.05        71.62718
499.49        71.84491
499.93        71.59349
500.37        71.65479
500.82         71.9297
501.26        72.00657
501.70        71.89709
502.14        71.90532
502.58        72.04453
503.02        72.13422
503.46        72.16904
503.90        72.24969
504.34        72.32469
504.78        72.26311
505.22        72.05347
505.66         71.7449
506.10        71.44279
506.54        71.25514
506.98        71.20465
507.42        71.35731
507.86        71.65825
508.30        71.46291
508.74        71.60966
509.18        71.43967
509.62        71.27391
510.06        71.18885
510.50        71.21582
510.94        71.30615
511.38        71.41677
511.82        71.50614
512.26        71.55455
512.70        71.58332
513.14        71.59265
513.58        71.58006
514.02        71.55224
514.46        71.50188
514.90        71.45712
515.34        71.47531
515.78        71.56232
516.22        71.66619
516.66        71.79741
517.10        71.83007
517.54        71.76469
517.98        71.62754
518.42        71.45882
518.86        71.32317
519.30         71.2422
519.74        71.19819
520.18        71.18412
520.62        71.18549
521.06         71.1979
521.50        71.23664
521.93        71.29089
522.37        71.31751
522.81        71.31853
523.25        71.29112
523.69        71.27464
524.13        71.33714
524.57        71.47852
525.01        71.66419
525.45        71.81951
525.89        71.82567
526.32        71.65257
526.76        71.36726
527.20        71.02958
527.64        70.73906
528.08        70.53472
528.52        70.39307
528.96        70.32172
529.40        70.32839
529.83        70.39938
530.27        70.54004
530.71        70.69343
531.15        70.77319
531.59        70.75958
532.03        70.66673
532.46        70.53455
532.90         70.4821
533.34        70.52035
533.78        70.57536
534.22        70.60724
534.66        70.64211
535.09        70.61632
535.53        70.39196
535.97        70.03413
536.41        69.82636
536.85        69.80231
537.28        69.81878
537.72        69.86793
538.16        69.98914
538.60          70.163
539.04        70.37727
539.47        70.55815
539.91        70.63811
540.35        70.59075
540.79        70.43921
541.22        70.25648
541.66        70.18679
542.10        70.25054
542.54        70.40398
542.97        70.56175
543.41        70.62022
543.85        70.54603
544.29        70.39484
544.72        70.20543
545.16        70.07372
545.60        70.01241
546.04        70.00517
546.47        70.06079
546.91        70.16682
547.35        70.31333
547.79        70.54018
548.22        70.76746
548.66        70.81717
549.10        70.74525
549.53        70.57451
549.97        70.37535
550.41        70.10625
550.84        69.87985
551.28        69.86939
551.72        70.00616
552.15        70.15665
552.59        70.48907
553.03        69.92726
553.46        70.60013
553.90        70.52586
554.34        70.29013
554.77        70.30135
555.21        70.16047
555.65        69.92873
556.08        70.21851
556.52        70.38629
556.96        70.55983
557.39        70.65664
557.83         70.6405
558.27        70.40511
558.70        69.91324
559.14         69.7008
559.57        69.72796
560.01        69.68906
560.45        69.58421
560.88        69.69028
561.32        69.97544
561.75        70.07394
562.19        70.02248
562.63        70.05592
563.06        70.17311
563.50        70.27828
563.93         70.2829
564.37         70.2564
564.80        70.22961
565.24        70.05661
565.68        69.63696
566.11        70.29804
566.55        69.52653
566.98        69.39572
567.42        69.34011
567.85        69.37947
568.29        70.07243
568.72         70.3968
569.16        70.61766
569.60         70.6489
570.03        70.70324
570.47        70.88838
570.90        71.38418
571.34        70.08351
571.77        70.94601
572.21        71.16502
572.64          71.103
573.08         71.4874
573.51        70.76166
573.95        70.71754
574.38        71.13854
574.82        71.04972
575.25        70.79936
575.69        70.94214
576.12        71.08511
576.56        70.44343
576.99        70.24768
577.42        70.44675
577.86        70.63934
578.29        71.52694
578.73        71.28718
579.16        71.12821
579.60        70.64933
580.03          70.599
580.47        70.56717
580.90        71.28309
581.33         71.8512
581.77        71.44582
582.20        70.84404
582.64        71.81006
583.07        71.54731
583.51        71.40726
583.94        70.66771
584.37         70.8553
584.81        70.94558
585.24        70.93362
585.68        70.54974
586.11        70.65761
586.54        70.96821
586.98        70.45211
587.41        69.93493
587.85        70.43739
588.28        70.28769
588.71        70.28681
589.15        69.88338
589.58        70.21271
590.01        69.96783
590.45        69.74324
590.88        70.64775
591.31        70.60159
591.75        70.17477
592.18        69.72591
592.61        69.42981
593.05        70.29589
593.48        70.74036
593.91        70.63438
594.35        70.82825
594.78        70.13945
595.21        69.51083
595.65        69.72308
596.08        70.95647
596.51         70.7629
596.94        70.28683
597.38        69.87687
597.81        69.83559
598.24        70.69107
598.68        70.11401
599.11        69.94845
599.54        70.74775
599.97        70.78827
600.41        70.47512
600.84        69.90864
601.27        70.46674
601.70        70.06097
602.14         70.3194
602.57         70.0843
603.00        70.04297
603.43        69.12882
603.87        70.00473
604.30        70.61004
604.73        70.51805
605.16        69.84437
605.60         69.8753
606.03        69.55608
606.46        69.23112
606.89        69.89111
607.32        70.07813
607.76        69.36745
608.19        70.01673
608.62        69.94315
609.05        70.00051
609.48         69.7373
609.92        70.15585
610.35        70.15571
610.78        69.30099
611.21        69.95537
611.64        69.63973
612.07         69.9943
612.50        69.90792
612.94        69.93663
613.37         69.9496
613.80        69.55262
614.23        68.93436
614.66        68.91206
615.09        69.49302
615.52        69.64787
615.96        69.22551
616.39        69.75845
616.82        69.99901
617.25        69.09116
617.68        69.45398
618.11        69.34088
618.54        69.52934
618.97        69.59837
619.40        69.52148
619.84        69.48125
620.27         68.9119
620.70        69.08916
621.13        69.65006
621.56        69.11962
621.99        68.18293
622.42        67.79218
622.85        68.16486
623.28        68.27502
623.71        68.26558
624.14        68.78876
624.57        69.06979
625.00        68.63755
625.43        69.09277
625.86        68.95994
626.29        68.89639
626.72        68.29526
627.15        68.70413
627.58        68.64396
628.01        68.65419
628.44        68.69028
628.87        68.69962
629.30         68.1142
629.73        67.78738
630.16        68.25873
630.59        67.97569
631.02        68.32971
631.45        68.69314
631.88        68.95795
632.31         69.0488
632.74        69.02982
633.17        68.93468
633.60        68.77348
634.03         68.5779
634.46        68.34035
634.89        68.10001
635.32        67.94048
635.75        67.88409
636.18        67.84313
636.61        67.82139
637.04          67.859
637.47        67.94451
637.89        68.05669
638.32        68.13065
638.75        68.12983
639.18        68.04491
639.61        67.88586
640.04        67.71671
640.47        67.64245
640.90        67.68687
641.33        67.82546
641.76        67.99318
642.18         68.0871
642.61        68.05663
643.04        67.94006
643.47        67.80196
643.90        67.74627
644.33        67.79573
644.76        67.91747
645.18        68.04388
645.61        68.04771
646.04        67.91342
646.47        67.69124
646.90        67.46309
647.33        67.34524
647.75        67.33822
648.18        67.46716
648.61        67.71066
649.04        67.75456
649.47        67.51457
649.89        68.15179
650.32        67.83033
650.75        67.74884
651.18        67.49453
651.61         67.5218
652.03        67.82957
652.46        68.15421
652.89        68.35521
653.32        68.23109
653.74        67.96384
654.17          67.538
654.60        68.12105
655.03        68.37271
655.46        67.33276
655.88        67.51681
656.31        68.32159
656.74        69.26145
657.16          72.971
657.59        76.86031
658.02        70.48378
658.45        69.21415
658.87         68.2466
659.30        67.99017
659.73        67.68156
660.15        69.10049
660.58        68.06389
661.01        68.05038
661.44        67.93755
661.86         67.6173
662.29        67.12901
662.72        67.62085
663.14        67.73825
663.57        67.78495
664.00        67.47181
664.42        67.53881
664.85        67.99448
665.27        68.40097
665.70        68.61703
666.13        68.69621
666.55        68.61761
666.98        68.29058
667.41        67.78757
667.83        67.68126
668.26        67.31489
668.69        67.22896
669.11        67.22191
669.54         67.2841
669.96        67.40251
670.39        67.62248
670.82        67.89361
671.24        67.99876
671.67        67.96022
672.09        67.99273
672.52         68.1121
672.94         68.1718
673.37        68.14897
673.80        68.01367
674.22        67.82351
674.65        67.70961
675.07        67.71023
675.50        67.73589
675.92        67.75264
676.35        67.72105
676.77        67.63217
677.20        67.51128
677.62        67.40797
678.05        67.34512
678.47        67.42297
678.90        67.53859
679.32        67.68005
679.75        67.78739
680.17        67.83482
680.60        67.87643
681.02        67.90046
681.45        67.81387
681.87        67.67713
682.30        67.63595
682.72        67.70829
683.15        67.80131
683.57         67.8821
684.00        67.84361
684.42        67.74319
684.85        67.80139
685.27        68.01492
685.70        68.25854
686.12        68.43946
686.54        68.48666
686.97         68.3755
687.39        68.14331
687.82        67.85718
688.24        67.64947
688.66        67.56085
689.09        67.55797
689.51        67.63678
689.94        67.75397
690.36        67.89172
690.78        68.03935
691.21        68.18226
691.63        68.28619
692.06        68.34431
692.48        68.37449
692.90        68.34476
693.33         68.2141
693.75          67.986
694.17         67.6552
694.60        67.35373
695.02        67.27043
695.44        67.41618
695.87          67.822
696.29        68.30277
696.71        68.20393
697.14        67.63587
697.56        67.45187
697.98        67.70238
698.41        67.79827
698.83        67.73402
699.25        67.92539
699.68        68.25178
700.10        68.36617
700.52        68.20264
700.94        67.87829
701.37        67.54434
701.79        67.44799
702.21        67.63651
702.64        68.01015
703.06        68.42899
703.48         68.6505
703.90        68.60815
704.33        68.38232
704.75        68.07568
705.17        67.84402
705.59        67.74931
706.01        67.74315
706.44        67.80701
706.86        67.94581
707.28        68.13151
707.70        68.32309
708.12        68.50205
708.55        68.72626
708.97        68.93127
709.39        68.86376
709.81        68.58579
710.23        68.46211
710.66        68.53326
711.08        68.63245
711.50         68.6772
711.92        68.62935
712.34        68.47577
712.76        68.24938
713.19        68.01029
713.61         67.8945
714.03        67.92373
714.45        68.06399
714.87         68.2818
715.29        68.52787
715.71        68.76876
716.13        68.99495
716.56        69.16525
716.98        69.30633
717.40        69.37521
717.82        69.37473
718.24        69.27702
718.66        69.04294
719.08        68.70174
719.50        68.30549
719.92        67.96488
720.34        67.83951
720.76        67.95875
721.19        68.24669
721.61        68.65716
722.03        69.05501
722.45         69.3691
722.87        69.61374
723.29        69.73218
723.71         69.6441
724.13        69.35977
724.55        68.91779
724.97        68.44122
725.39        68.14188
725.81        68.08175
726.23        68.18914
726.65         68.3972
727.07         68.7389
727.49        68.91866
727.91        69.15704
728.33        69.36803
728.75         69.5383
729.17        69.65752
729.59        69.71237
730.01        69.70963
730.43         69.6722
730.85        69.60903
731.27        69.51503
731.69        69.40746
732.10        69.30734
732.52        69.21993
732.94        69.16616
733.36        69.14125
733.78        68.99632
734.20          68.718
734.62        68.60065
735.04        68.77981
735.46        68.19461
735.88        68.88268
736.30        69.13742
736.72        69.49709
737.13        69.83304
737.55        70.01798
737.97        70.13837
738.39        70.13358
738.81        69.66607
739.23        68.95662
739.65        68.95269
740.06        69.54179
740.48        69.79439
740.90        69.63942
741.32        69.63616
741.74         69.8082
742.16        69.89613
742.57        69.89355
742.99         69.8592
743.41        69.78767
743.83        69.65291
744.25        69.46535
744.67        69.22195
745.08        69.02249
745.50        69.00491
745.92        69.19794
746.34        69.55049
746.75        69.92105
747.17        70.06757
747.59        69.94229
748.01        69.61555
748.42        69.22334
748.84        69.00053
749.26        69.00833
749.68        69.13398
750.09        69.28942
750.51        69.42234
750.93         69.4493
751.35         69.2483
751.76        68.88593
752.18        68.63349
752.60        68.52518
753.01        68.43992
753.43        68.36159
753.85        68.35201
754.27        68.41194
754.68        68.53548
755.10        68.69199
755.52        68.82755
755.93        68.91324
756.35        68.94503
756.77        69.00108
757.18        69.06009
757.60        69.12256
758.02        69.46139
758.43        70.00657
758.85        69.30461
759.26        69.68565
759.68        69.04577
760.10        68.47393
760.51        68.66415
760.93        69.54289
761.34         69.7989
761.76        69.67867
762.18        69.69578
762.59        69.98224
763.01        69.91324
763.42        69.79611
763.84        69.61182
764.26        69.48323
764.67        69.44991
765.09        69.48658
765.50        69.22011
765.92        68.78381
766.33        68.67458
766.75        68.84784
767.16        68.95962
767.58        68.93222
768.00        68.99733
768.41          69.179
768.83        69.36854
769.24        69.50327
769.66        69.59167
770.07        69.61122
770.49        69.35312
770.90        69.01414
771.32        69.39252
771.73        70.31565
772.15        70.66505
772.56        70.36456
772.97        69.98079
773.39        69.68349
773.80        69.51867
774.22        69.52465
774.63        69.73701
775.05        69.98276
775.46        70.05843
775.88        69.88194
776.29        69.54532
776.70        69.19788
777.12        69.09956
777.53        69.31854
777.95        69.73161
778.36         70.1958
778.77        70.43391
779.19        70.38919
779.60        70.16735
780.02         69.8653
780.43        69.69491
780.84        69.73007
781.26        69.67722
781.67        69.60553
782.09         70.0857
782.50        70.87521
782.91        70.86528
783.33        70.12236
783.74        69.77566
784.15        69.88924
784.57        69.81211
784.98        69.59032
785.39         69.5927
785.81        69.83053
786.22         70.2011
786.63        70.60107
787.04        70.86031
787.46        70.94527
787.87        70.88501
788.28         70.7566
788.70        70.65933
789.11        70.60818
789.52        70.60995
789.93        70.64123
790.35        70.65443
790.76        70.64185
791.17         70.6029
791.58        70.59035
792.00        70.58298
792.41        70.58284
792.82        70.82821
793.23        71.17654
793.65        70.79018
794.06        69.95996
794.47        70.12742
794.88         71.0662
795.29        71.45756
795.71        70.90516
796.12        70.50159
796.53        70.33002
796.94        70.31291
797.35        70.50139
797.76        70.92211
798.18        71.38533
798.59        71.61891
799.00        71.53114
799.41        71.19764
799.82        70.77856
800.23         70.5532
800.64        70.59282
801.06        70.77247
801.47        71.03387
801.88        71.18465
802.29        71.16293
802.70        71.04053
803.11        70.84772
803.52         70.6254
803.93        70.41991
804.34        70.22182
804.75         70.0987
805.17         70.2017
805.58        70.58429
805.99        71.02186
806.40         71.4222
806.81        72.00544
807.22        72.52731
807.63        72.16227
808.04        71.13753
808.45        70.59833
808.86        70.68363
809.27        70.82829
809.68        70.91163
810.09        70.97598
810.50        70.97079
810.91        70.89197
811.32        70.82762
811.73        70.90852
812.14        71.15415
812.55        71.51871
812.96        71.86287
813.37        71.93669
813.78        71.68484
814.19        71.21139
814.60        70.68857
815.01        70.34596
815.42        70.23412
815.83          70.286
816.24        70.44041
816.65        70.57293
817.05        70.64022
817.46        70.66576
817.87        70.67142
818.28        70.63645
818.69        70.56848
819.10        70.44341
819.51        70.36105
819.92         70.5077
820.33        70.90371
820.74        71.48563
821.14        72.05013
821.55        72.26502
821.96         72.0635
822.37        71.54346
822.78        70.91316
823.19        70.53362
823.60        70.51907
824.00        70.79688
824.41        71.17801
824.82        71.43965
825.23        71.48994
825.64        71.40735
826.04        71.26778
826.45        71.14728
826.86        71.09587
827.27        71.08228
827.68        71.08347
828.08        71.09965
828.49        71.07343
828.90        71.03146
829.31        71.01947
829.72        71.10562
830.12        71.31915
830.53        71.57648
830.94        71.77974
831.35        71.72002
831.75        71.37769
832.16         70.8092
832.57        70.20503
832.97        69.83916
833.38        69.78931
833.79        69.96209
834.20        70.27453
834.60        70.58899
835.01        70.84959
835.42        71.12784
835.82         71.3885
836.23        71.48901
836.64        71.43822
837.04         71.2282
837.45        71.03138
837.86        71.20367
838.26        71.82529
838.67         72.7531
839.08          73.653
839.48         73.8826
839.89        73.28573
840.29        72.10352
840.70        70.87407
841.11        70.18723
841.51        70.20062
841.92        70.72102
842.33        71.52385
842.73        72.20722
843.14        72.50449
843.54        72.57424
843.95        72.52858
844.35        72.60923
844.76        72.84878
845.17        73.14534
845.57        73.36321
845.98        73.26814
846.38        72.84891
846.79        72.21021
847.19        71.53268
847.60        71.06883
848.00        70.90688
848.41         70.9416
848.81        71.13439
849.22        71.32786
849.62        71.49896
850.03        71.68279
850.43        71.83293
850.84        71.80231
851.24         71.6224
851.65        71.24526
852.05        70.93195
852.46        71.03577
852.86        71.61159
853.27        72.51604
853.67        73.36047
854.07        73.72976
854.48        73.52632
854.88        72.91258
855.29        72.07585
855.69        71.50371
856.10        71.29679
856.50        71.40229
856.90        71.65538
857.31        71.79733
857.71        71.79176
858.12        71.65471
858.52        71.49075
858.92        71.34624
859.33        71.22348
859.73        71.13162
860.13        70.98853
860.54        70.69608
860.94        70.29736
861.34        69.84261
861.75        69.43533
862.15        69.27837
862.55        69.39174
862.96        69.65838
863.36        70.05849
863.76        70.46516
864.17         70.7907
864.57        71.09326
864.97        71.20088
865.38        70.86311
865.78        70.10202
866.18        68.98778
866.58         67.8799
866.99        67.42253
867.39        67.79916
867.79        68.80247
868.19        70.03236
868.60        70.84656
869.00        71.09566
869.40        70.91673
869.80        70.48921
870.21         70.1781
870.61        70.17989
871.01        70.30894
871.41        70.41267
871.81        70.28584
872.22        69.88493
872.62        69.31331
873.02        68.72478
873.42        68.34926
873.82        68.26567
874.22        68.40071
874.63        68.63269
875.03        68.79388
875.43        68.80542
875.83        68.70161
876.23        68.55523
876.63        68.47787
877.03        68.50387
877.44        68.58762
877.84        68.64855
878.24        68.57193
878.64        68.30515
879.04        67.75978
879.44        67.21246
879.84        67.17731
880.24        67.69436
880.64        68.57907
881.04        69.40029
881.44        69.46819
881.84        68.64934
882.24        67.18758
882.65        65.63309
883.05        64.84052
883.45         65.0219
883.85        65.92521
884.25        67.12511
884.65        67.88819
885.05        67.98288
885.45        67.64149
885.85        67.13058
886.25        66.85043
886.65        66.92106
887.05         67.1943
887.45        67.54932
887.85        67.81218
888.25        67.91447
888.65         67.9216
889.04        67.89292
889.44         67.9332
889.84        68.05002
890.24        68.19907
890.64        68.30095
891.04         68.2426
891.44        68.01263
891.84        67.67345
892.24        67.32788
892.64        67.11576
893.04        67.08045
893.44        67.19793
893.83        67.43279
894.23        67.66382
894.63        67.87095
895.03        68.06139
895.43        68.26971
895.83        68.56247
896.23        68.91992
896.63        69.26713
897.02        69.49278
897.42        69.46164
897.82        69.15108
898.22        68.65821
898.62        68.04692
899.01        67.39074
899.41        66.77442
899.81        66.19497
900.21          65.785
900.61        65.75221
901.00          66.109
901.40        66.76381
901.80        67.50775
902.20        67.99323
902.59        68.13227
902.99        68.01621
903.39         67.7313
903.79        67.43769
904.18        67.19799
904.58        66.95239
904.98        66.81242
905.38        66.96008
905.77        67.40566
906.17         68.1431
906.57        68.86861
906.96        69.05934
907.36        68.60456
907.76         67.6695
908.15         66.7373
908.55        66.56535
908.95        67.31705
909.34        68.75182
909.74        70.31827
910.14        71.18516
910.53        71.08064
910.93        70.29006
911.33        69.14402
911.72        68.14204
912.12        67.53616
912.52        67.19296
912.91        67.03748
913.31        66.98805
913.70        66.99395
914.10        67.04655
914.49        67.25126
914.89        67.66424
915.29        68.28017
915.68        69.07197
916.08        69.66157
916.47        69.52246
916.87        68.61985
917.26        67.13617
917.66        65.71988
918.05        65.18486
918.45        65.68567
918.84        67.02468
919.24        68.62328
919.64        69.57327
920.03        69.59643
920.42        68.91532
920.82        68.03022
921.21        67.67481
921.61        68.01392
922.00        68.83822
922.40        69.72951
922.79        70.11666
923.19        69.80181
923.58        69.05072
923.98        68.18353
924.37        67.56946
924.77        67.33627
925.16        67.31886
925.55        67.44905
925.95        67.60454
926.34        67.73026
926.74        67.84626
927.13        67.87578
927.52        67.61512
927.92        67.10822
928.31         66.4287
928.70        65.76891
929.10         65.4005
929.49         65.3804
929.89        65.56808
930.28        66.02576
930.67        66.73492
931.07        67.58731
931.46        68.63176
931.85        69.47102
932.24          69.515
932.64        68.73561
933.03        67.30986
933.42        65.85719
933.82        65.28952
934.21        65.79669
934.60         67.1503
934.99        68.84027
935.39        69.92302
935.78        70.12021
936.17        69.60416
936.56         68.7315
936.96        68.06306
937.35        67.77407
937.74        67.70181
938.13        67.61331
938.53        67.19102
938.92        66.40324
939.31        65.43732
939.70        64.58604
940.09        64.22675
940.49        64.39825
940.88         64.9941
941.27        65.79693
941.66         66.4012
942.05        66.66357
942.44        66.71378
942.84        66.65186
943.23        66.63959
943.62        66.73965
944.01        66.83421
944.40        66.99818
944.79        67.38335
945.18        67.96668
945.57        68.70876
945.97        69.25282
946.36         69.0922
946.75        68.12193
947.14        66.60107
947.53        65.00671
947.92         64.0098
948.31        63.77582
948.70        64.12579
949.09        64.84636
949.48         65.5499
949.87        66.06709
950.26        66.48086
950.65        66.81473
951.04        67.11755
951.43        67.39182
951.82        67.56294
952.21        67.59356
952.60        67.46223
952.99        67.20838
953.38        66.92033
953.77        66.66888
954.16        66.54741
954.55        66.57552
954.94        66.67629
955.33        66.92583
955.72        67.44001
956.11        68.18568
956.50         69.1374
956.89        69.86859
957.28        69.68419
957.66        68.48745
958.05        66.56615
958.44        64.62881
958.83        63.69313
959.22        63.94186
959.61        65.10061
960.00        66.57014
960.39        67.21733
960.78        66.70682
961.16         65.4246
961.55        63.96757
961.94        63.10692
962.33        63.04956
962.72        63.55926
963.11         64.3984
963.49        65.15039
963.88        65.53078
964.27        65.66193
964.66        65.70001
965.04        65.90378
965.43        66.27603
965.82        66.75172
966.21        67.03897
966.60        66.65887
966.98        65.53294
967.37        63.95273
967.76        62.44889
968.15        61.64082
968.53        61.64522
968.92        62.34915
969.31        63.34846
969.69        63.83413
970.08        63.49157
970.47        62.57307
970.86        61.73657
971.24        61.94007
971.63        63.35926
972.02        65.73217
972.40        68.33046
972.79        69.42416
973.17         68.5653
973.56        66.36297
973.95         63.8573
974.33        62.39669
974.72        62.26984
975.11        63.05472
975.49        64.31346
975.88        65.12923
976.26          65.193
976.65        64.77345
977.04        64.09438
977.42        63.43556
977.81        62.89341
978.19        62.34507
978.58        61.95573
978.96        61.98452
979.35        62.44075
979.74        63.30405
980.12        64.37916
980.51        65.04393
980.89        65.23272
981.28        65.04807
981.66        64.75224
982.05         64.7322
982.43        65.08811
982.82        65.65333
983.20        66.41084
983.59        67.21005
983.97        68.02809
984.35        68.89589
984.74        69.48444
985.12         69.4895
985.51        68.81691
985.89         67.5939
986.28        66.37518
986.66        65.91956
987.04        66.44251
987.43        67.72491
987.81        69.26175
988.20        69.92516
988.58        69.40176
988.96        67.97459
989.35        66.27364
989.73        65.19055
990.12        64.92714
990.50        65.27174
990.88        65.78799
991.27        65.73566
991.65         64.9492
992.03         63.7258
992.42        62.62622
992.80        62.36736
993.18        63.10303
993.56        64.60854
993.95        66.29076
994.33        67.22961
994.71        66.98531
995.10        65.94077
995.48        64.63395
995.86        63.94048
996.24         64.0778
996.63        64.66053
997.01        65.56895
997.39        66.21244
997.77        66.31882
998.15         66.1743
998.54        65.74295
998.92        64.82314
999.30        63.55159
999.68        61.97764
1000.06        60.68277
1000.45        60.47141
1000.83          61.555
1001.21        63.82139
1001.59         66.5739
1001.97        68.07635
1002.35        67.72862
1002.73        66.12771
1003.12          64.346
1003.50        63.68964
1003.88        64.54374
1004.26        66.33214
1004.64        68.80197
1005.02        71.30568
1005.40        73.29381
1005.78        75.04906
1006.16        75.71104
1006.54        73.95295
1006.92        69.96811
1007.30        64.40495
1007.69        59.25039
1008.07        57.18201
1008.45         58.9194
1008.83        63.92009
1009.21        70.76865
1009.59        75.69012
1009.97        76.68761
1010.35         74.6846
1010.73        70.84635
1011.11         67.0072
1011.49        63.97284
1011.86        61.32123
1012.24        59.31448
1012.62         58.2937
1013.00        58.21113
1013.38        59.10705
1013.76        60.75776
1014.14        62.29679
1014.52        63.21398
1014.90        63.60109
1015.28        63.46085
1015.66         62.9566
1016.04         62.2237
1016.41        61.16906
1016.79        60.17303
1017.17        60.03673
1017.55        60.88972
1017.93        62.46129
1018.31        64.15829
1018.69        65.11678
1019.06        65.15724
1019.44        64.47752
1019.82        63.25202
1020.20        62.05439
1020.58        61.21605
1020.95        60.47409
1021.33        60.01447
1021.71        59.88182
1022.09          60.047
1022.46         60.7883
1022.84        61.50517
1023.22         60.8675
1023.60        58.65788
1023.97        55.26151
1024.35         52.5946
1024.73        52.79241
