SpectraSmart Spectrum 2.9.0.0
--------- Device Information -----------
Spectrum Name :  反射率_0
Saving Time :  2024/04/26 22:35:03
Spectro-Module Model Name : SE2030-DUVN
Spectro-Module Serial Number : OS361AC55029948
Wavelength Start : 200
Wavelength End : 1025
Wavelength Unit : Wavelength(nm)
Spectrum Unit : Reflectance(%)
-----------Spectrum Setting ------------
Integration Time : 20ms
Average : 10
Boxcar : 0
Background removal :  enabled
linearity correction :  enabled
SC :  disabled
Intensity correction :  disabled
DWT denoise :  enabled
savitzky-golay :  disabled
FFT :  disabled
Running average :  disabled
Kalman :  disabled
High pass :  disabled
---------------BEGIN--------------------
Wavelength(nm)             Reflectance(%)
200.29               0
200.75           60.24
201.21        53.21843
201.67        47.91687
202.13        45.76555
202.58        46.52439
203.04        50.20719
203.50         56.5778
203.96        63.24209
204.42        67.91685
204.88        70.30115
205.34        70.03747
205.80        68.03321
206.26        65.12245
206.72        61.22022
207.18        57.37888
207.64        54.03816
208.10        50.88617
208.55        48.05566
209.01        44.97071
209.47         42.8275
209.93        43.00665
210.39         44.6471
210.85        47.33508
211.31        52.06886
211.77        60.84829
212.23        79.54398
212.69        124.8098
213.14        198.8985
213.60        192.6727
214.06        137.9685
214.52        101.6219
214.98        85.40174
215.44        78.34932
215.90        73.87058
216.36        71.47193
216.81        71.37173
217.27        73.84429
217.73        81.35478
218.19        91.03347
218.65        89.26545
219.11        75.11115
219.57        58.91315
220.02        49.84951
220.48        52.44077
220.94          66.024
221.40         92.3354
221.86        130.7524
222.32        156.6496
222.77        147.9052
223.23        120.5244
223.69         92.4998
224.15        73.93803
224.61        63.57183
225.06        57.10247
225.52        53.49781
225.98        51.65411
226.44        50.92266
226.90        51.49165
227.36        52.62904
227.81        52.95337
228.27        52.29002
228.73        50.81264
229.19        49.34153
229.65        48.92286
230.10         49.5525
230.56        50.88916
231.02        52.07385
231.48        51.80148
231.93        49.97249
232.39        47.50934
232.85        45.31953
233.31         44.6027
233.77        45.43535
234.22        47.32729
234.68        49.70039
235.14        51.77958
235.60        53.28245
236.05        54.55221
236.51        55.42948
236.97        55.61435
237.43        55.13559
237.88        54.06185
238.34        53.16621
238.80        54.11687
239.26        57.64427
239.71        64.36618
240.17        73.79153
240.63        83.46729
241.08        91.40844
241.54        96.74131
242.00        100.8483
242.46        108.1849
242.91        122.6315
243.37        145.4529
243.83        178.4101
244.28        210.8137
244.74        221.5711
245.20        207.6277
245.66        182.8903
246.11        161.3801
246.57        145.3684
247.03         131.459
247.48        118.5999
247.94         107.947
248.40        101.4663
248.85        98.73632
249.31        98.53668
249.77        98.89011
250.22        99.20583
250.68        99.15716
251.14         99.2041
251.59        100.5577
252.05         103.187
252.51        106.4352
252.96        106.9345
253.42        102.5133
253.88        94.32648
254.33        84.23747
254.79        76.67349
255.25         74.7494
255.70        77.75733
256.16        84.03803
256.62        89.90224
257.07          89.992
257.53        85.60645
257.99        79.85915
258.44        75.02927
258.90        73.38251
259.35        73.74358
259.81        75.26384
260.27         76.6079
260.72        76.28426
261.18        74.58403
261.63        71.98186
262.09        69.54881
262.55        67.75945
263.00        66.51701
263.46        65.72703
263.91        64.88621
264.37        63.77718
264.83        62.33795
265.28        60.68589
265.74        59.24541
266.19        58.16626
266.65        57.52552
267.11        57.11125
267.56        56.71069
268.02         56.0198
268.47        54.96975
268.93        53.71253
269.38        52.35135
269.84        51.10677
270.30        50.02254
270.75         49.0173
271.21        48.12243
271.66        47.31388
272.12        46.57145
272.57        45.87503
273.03        45.13564
273.48        44.19344
273.94        43.09861
274.39        41.88311
274.85        40.74059
275.31        39.78579
275.76        39.01472
276.22        38.41538
276.67        37.89341
277.13         37.4183
277.58         36.9071
278.04        36.40025
278.49        35.82378
278.95        35.19809
279.40        34.48348
279.86        33.76531
280.31        33.02257
280.77        32.34208
281.22        31.70557
281.68        31.16252
282.13        30.70177
282.59        30.39787
283.04        30.20968
283.50        30.13046
283.95        30.09613
284.41        30.01918
284.86        29.87903
285.32        29.73967
285.77        29.60933
286.22        29.56879
286.68        29.63427
287.13        29.72948
287.59         29.8873
288.04        30.11117
288.50        30.39515
288.95        30.68999
289.41        30.91072
289.86        30.85813
290.32        30.56959
290.77        30.12421
291.22        29.70254
291.68        29.55337
292.13        29.73703
292.59         30.2128
293.04        30.92663
293.50        31.80097
293.95         32.7845
294.40        33.90684
294.86        35.13468
295.31        36.40028
295.77        37.69768
296.22         39.0096
296.68         40.3904
297.13        41.92179
297.58        43.62611
298.04        45.47709
298.49        47.40828
298.95        49.33253
299.40        51.20732
299.85        53.06153
300.31        54.92945
300.76        56.84145
301.21        58.81427
301.67         60.8415
302.12        62.87622
302.58        64.94463
303.03        66.99304
303.48        69.05291
303.94        71.12587
304.39         73.1376
304.84        75.11497
305.30         77.0831
305.75        79.04141
306.20        81.09008
306.66          83.243
307.11        85.41358
307.57        87.53266
308.02        89.37691
308.47        90.94044
308.93        92.29768
309.38        93.54225
309.83        94.94739
310.29        96.57154
310.74        98.32484
311.19        100.0462
311.65        101.4392
312.10        102.4086
312.55        103.0482
313.00        103.5449
313.46        104.1929
313.91        105.0464
314.36        106.0518
314.82        107.0735
315.27        107.9115
315.72        108.4868
316.18        108.8904
316.63        109.2017
317.08        109.5967
317.53        110.1231
317.99        110.7126
318.44        111.2962
318.89        111.7335
319.35         111.984
319.80        112.0998
320.25        112.1591
320.70         112.286
321.16        112.5149
321.61        112.8571
322.06        113.2324
322.51        113.5177
322.97        113.6714
323.42        113.7357
323.87         113.845
324.32        114.2417
324.78        114.9236
325.23        115.8879
325.68        116.8216
326.13        117.2205
326.59        116.9716
327.04        116.2646
327.49        115.4671
327.94        115.1969
328.39         115.612
328.85        116.4979
329.30        117.6772
329.75         118.544
330.20        118.8892
330.66        118.8484
331.11        118.6821
331.56        118.7264
332.01        119.0958
332.46        119.6534
332.92        120.2051
333.37        120.6193
333.82        120.7764
334.27        120.7944
334.72        120.7771
335.17        120.8648
335.63         121.109
336.08        121.5318
336.53        122.1283
336.98        122.9418
337.43        123.9445
337.88        125.0748
338.34        126.2176
338.79        127.3156
339.24        128.2428
339.69        129.0061
340.14        129.4927
340.59        129.5528
341.05        129.2477
341.50         128.662
341.95         128.106
342.40        128.0434
342.85        128.5815
343.30        129.5869
343.75        130.8299
344.20        131.9071
344.66         132.666
345.11        133.1916
345.56        133.5184
346.01        133.7208
346.46        133.8589
346.91        133.9209
347.36        133.9524
347.81        134.0515
348.26         134.235
348.72        134.4688
349.17        134.7713
349.62        135.1972
350.07        135.7214
350.52        136.3437
350.97        136.8141
351.42        136.7384
351.87        136.0806
352.32        134.9773
352.77        133.8726
353.22        133.4206
353.67        133.7391
354.13        134.6337
354.58        135.6662
355.03        136.0505
355.48         135.578
355.93        134.4756
356.38        133.2117
356.83        132.4929
357.28        132.4583
357.73        132.8609
358.18         133.264
358.63        132.9785
359.08        131.8529
359.53         130.155
359.98        128.3006
360.43        126.8783
360.88        126.0282
361.33         125.566
361.78        125.2212
362.23        124.5748
362.68        123.5303
363.13        122.2508
363.58        120.9493
364.03        119.9315
364.48        119.2589
364.93        118.7985
365.38        118.3927
365.83        117.8107
366.28        116.9881
366.73        116.0157
367.18        114.9729
367.63        113.9701
368.08        113.0527
368.53        112.1914
368.98        111.3867
369.43        110.6407
369.88        109.9469
370.33        109.3094
370.78         108.714
371.23         108.137
371.68        107.5624
372.13        106.9752
372.58        106.3683
373.03        105.7354
373.48        105.0685
373.93        104.3696
374.38        103.6165
374.83        102.7847
375.28         101.888
375.72        100.9277
376.17        100.0355
376.62        99.28114
377.07        98.69369
377.52        98.27728
377.97        97.95002
378.42        97.58921
378.87        97.16053
379.32        96.65115
379.77        96.20824
380.22        96.05397
380.67        96.18671
381.11        96.56066
381.56        96.78082
382.01        96.30236
382.46        95.07533
382.91        93.37047
383.36        91.69322
383.81        90.72613
384.26         90.5789
384.71        91.01947
385.15        91.73052
385.60         92.1506
386.05        92.09212
386.50         91.7113
386.95        91.11627
387.40         90.4846
387.85        89.90063
388.29        89.25064
388.74        88.67552
389.19        88.15437
389.64        87.68082
390.09        87.26016
390.54        86.88258
390.98        86.50109
391.43        86.15929
391.88        85.85867
392.33        85.58949
392.78        85.33542
393.23        85.09357
393.67        84.82365
394.12        84.62342
394.57        84.47892
395.02        84.37885
395.47        84.27725
395.91        84.16798
396.36        84.01746
396.81         83.8492
397.26        83.68192
397.71        83.45982
398.15        83.14254
398.60        82.84982
399.05        82.30988
399.50        81.69427
399.95        81.83559
400.39        82.52231
400.84        82.22216
401.29        81.07847
401.74         80.8039
402.18         81.3536
402.63        81.22315
403.08        80.46432
403.53        80.11472
403.97        80.19526
404.42        80.21025
404.87         80.1121
405.32        79.96057
405.76        79.72633
406.21        79.59155
406.66        79.53134
407.11        79.19424
407.55         78.7822
408.00        78.96558
408.45        79.65279
408.90        80.13706
409.34        80.16949
409.79         79.6731
410.24        78.89772
410.68        78.49606
411.13        78.55645
411.58        78.70293
412.03        78.78845
412.47        78.74644
412.92        78.50446
413.37        78.12848
413.81        77.73701
414.26        77.57391
414.71        77.65276
415.15        77.93414
415.60        78.27789
416.05        78.52934
416.49        78.63335
416.94        78.62013
417.39        78.56299
417.83         78.5634
418.28        78.64921
418.73        78.77087
419.17        78.88644
419.62        78.93914
420.07        78.90821
420.51        78.80438
420.96        78.67487
421.41        78.52376
421.85        78.34692
422.30        78.22536
422.74        78.10262
423.19          78.026
423.64        77.95727
424.08        77.87475
424.53        77.82692
424.98        77.94652
425.42        78.24223
425.87        78.74935
426.31        79.26814
426.76        79.14366
427.21        78.48683
427.65        78.14354
428.10        78.18924
428.54        78.16657
428.99        78.13497
429.44        78.16958
429.88        78.33693
430.33        78.93765
430.77        79.67459
431.22         80.1016
431.66        80.08067
432.11         79.4962
432.56        78.64146
433.00        78.43369
433.45        79.12548
433.89        79.86372
434.34         79.8746
434.78        81.07301
435.23         80.8392
435.67        77.42548
436.12        78.53738
436.57        78.57813
437.01        79.63044
437.46        79.98386
437.90        79.60776
438.35        79.06805
438.79        79.06292
439.24        79.07348
439.68        79.24978
440.13        79.81833
440.57        80.58317
441.02        80.55197
441.46        79.86871
441.91        80.12124
442.35        80.99466
442.80        80.89092
443.24        79.98479
443.69        80.02197
444.13        80.90533
444.58        81.30907
445.02        81.17446
445.47        81.19096
445.91        81.39865
446.36        81.61092
446.80        81.81426
447.24        82.03368
447.69        82.24917
448.13        82.41615
448.58        82.53996
449.02        82.60855
449.47        82.62609
449.91        82.56094
450.36        82.44981
450.80        82.28378
451.25        82.15524
451.69        82.13803
452.13         82.2626
452.58        82.49049
453.02        82.74442
453.47        82.90891
453.91        82.93774
454.36        82.86801
454.80        82.71444
455.24        82.46793
455.69        82.16209
456.13        81.87451
456.58        81.68031
457.02        81.27431
457.46        80.84238
457.91        81.05122
458.35        81.62164
458.79        81.58319
459.24        80.94547
459.68        80.14161
460.13        79.45129
460.57        79.18487
461.01        79.52485
461.46        79.80685
461.90        79.75839
462.34        81.39715
462.79        81.30583
463.23        80.75977
463.68        81.43681
464.12        81.05112
464.56        80.43796
465.01        79.59768
465.45        78.78188
465.89        78.59539
466.34        78.89883
466.78        79.20363
467.22        79.41756
467.67         78.9724
468.11         78.8703
468.55        78.94307
468.99        79.35167
469.44        79.35566
469.88        78.94325
470.32        78.54973
470.77        78.28975
471.21        78.15621
471.65        78.16792
472.10        78.33501
472.54        78.54745
472.98        78.59812
473.42        78.43204
473.87        78.25568
474.31        78.06243
474.75        77.60773
475.20        77.09795
475.64        77.18707
476.08        77.74886
476.52        77.86607
476.97        77.45827
477.41        77.15179
477.85        77.17224
478.29        76.52782
478.74         77.2998
479.18        77.34419
479.62        77.25314
480.06        77.22009
480.50         77.2455
480.95        77.21887
481.39        77.13908
481.83         76.9301
482.27        77.09313
482.72        77.12335
483.16        77.17379
483.60        77.15485
484.04        77.19426
484.48        77.55035
484.93        77.65254
485.37         78.0006
485.81        77.20862
486.25         75.7083
486.69        74.51898
487.14        77.77168
487.58         78.3654
488.02        77.21826
488.46        75.92046
488.90        76.33111
489.34        77.61663
489.79        78.68719
490.23        78.08765
490.67         77.2846
491.11        76.41817
491.55        76.18757
491.99        76.55761
492.43        76.50673
492.88        76.02672
493.32        75.89219
493.76         76.1347
494.20        76.32163
494.64        76.40038
495.08         76.6152
495.52        76.87939
495.96        76.70792
496.41        76.22156
496.85        76.28291
497.29        76.67486
497.73        76.71993
498.17         75.5536
498.61        75.40842
499.05        75.96577
499.49        76.20794
499.93        75.83637
500.37        75.91153
500.82        76.28449
501.26        76.27332
501.70        75.92806
502.14        75.83336
502.58        76.01948
503.02        76.12807
503.46        76.15508
503.90        76.31703
504.34         76.5298
504.78        76.54585
505.22         76.3396
505.66        75.98964
506.10        75.62709
506.54        75.45891
506.98        75.52969
507.42        75.76585
507.86        76.05598
508.30        76.21954
508.74        76.20257
509.18        76.06562
509.62        75.86419
510.06        75.68781
510.50        75.57329
510.94        75.49023
511.38        75.44991
511.82        75.47242
512.26        75.55543
512.70        75.70356
513.14        75.87176
513.58        75.98038
514.02        76.00896
514.46        75.96618
514.90        75.90536
515.34        75.92048
515.78        76.02573
516.22         76.1866
516.66        76.32995
517.10        76.33944
517.54        76.19604
517.98        75.95155
518.42        75.67995
518.86        75.49588
519.30        75.43522
519.74        75.46122
520.18        75.54964
520.62        75.66032
521.06        75.77214
521.50        75.89938
521.93        76.01779
522.37        76.06221
522.81        76.03322
523.25         75.9387
523.69        75.82935
524.13        75.79243
524.57        75.84052
525.01        75.93875
525.45        76.03741
525.89        76.05343
526.32        75.95801
526.76        75.80688
527.20        75.61353
527.64        75.40492
528.08        75.20409
528.52        75.00599
528.96        74.85834
529.40        74.83559
529.83        74.93785
530.27        75.14606
530.71        75.37256
531.15        75.48228
531.59        75.44407
532.03        75.29606
532.46         75.0918
532.90        74.97209
533.34        74.95914
533.78        74.96914
534.22        74.97832
534.66        75.04481
535.09        75.09847
535.53        74.97791
535.97        74.71445
536.41        74.54941
536.85        74.50809
537.28        74.46217
537.72         74.4262
538.16        74.48358
538.60        74.62749
539.04        74.82281
539.47        75.00807
539.91        75.13828
540.35        75.17809
540.79        75.14742
541.22        75.05435
541.66        74.93662
542.10        74.80937
542.54        74.67843
542.97        74.55537
543.41        74.49172
543.85        74.48215
544.29        74.51947
544.72        74.58357
545.16        74.66337
545.60        74.72894
546.04         74.8527
546.47        75.00253
546.91        74.96719
547.35        74.81232
547.79        74.89281
548.22         75.1515
548.66        75.21738
549.10        75.14063
549.53        75.02601
549.97        74.92622
550.41        74.73573
550.84        74.55531
551.28        74.56279
551.72        74.67933
552.15        74.81546
552.59        75.08604
553.03        74.42569
553.46        74.99539
553.90        74.93234
554.34        74.86376
554.77        74.78152
555.21        74.74016
555.65        74.78188
556.08        74.87705
556.52        74.95489
556.96        74.96783
557.39         75.0496
557.83        75.13785
558.27        74.83926
558.70        74.26867
559.14         74.0389
559.57        74.13825
560.01        74.18285
560.45        74.15237
560.88         74.2148
561.32        74.38425
561.75        74.59908
562.19        74.81164
562.63         74.7752
563.06        74.54498
563.50        74.50671
563.93        74.59296
564.37        74.61528
564.80        74.58697
565.24        74.43391
565.68        74.03775
566.11        74.79222
566.55        74.01515
566.98        73.90433
567.42        73.78401
567.85        73.83409
568.29        74.07552
568.72        74.40356
569.16        74.79216
569.60        75.08126
570.03        74.87666
570.47        74.89634
570.90        75.12086
571.34        74.20812
571.77        74.49945
572.21        74.93887
572.64        74.77231
573.08        75.43156
573.51        74.61793
573.95        74.45445
574.38        74.62093
574.82        74.83533
575.25         74.3408
575.69        74.78561
576.12        74.91934
576.56        74.46695
576.99        73.89713
577.42        73.93607
577.86        74.41997
578.29        75.07972
578.73        74.61971
579.16        75.25227
579.60        74.95149
580.03         74.9401
580.47        74.38903
580.90        75.61664
581.33        75.21739
581.77        74.82998
582.20        73.73762
582.64        75.11002
583.07        75.15536
583.51        74.85966
583.94        74.99886
584.37        74.88674
584.81        75.02792
585.24        74.85862
585.68        74.52838
586.11        74.52499
586.54        75.07304
586.98        74.41061
587.41        73.72381
587.85        73.94353
588.28        73.88271
588.71        74.39115
589.15        73.84016
589.58         73.9986
590.01        74.27108
590.45        73.98884
590.88        75.01767
591.31        74.89875
591.75        74.34011
592.18        73.95086
592.61        73.89672
593.05        74.38914
593.48         74.3416
593.91        74.78797
594.35        74.66792
594.78        74.18179
595.21        73.38674
595.65        73.54312
596.08        74.72193
596.51        75.13279
596.94        74.49184
597.38        74.29571
597.81        74.45412
598.24        75.00877
598.68        74.58047
599.11        74.13242
599.54        75.31786
599.97        74.46377
600.41        74.20502
600.84        73.36635
601.27        74.02373
601.70        74.16222
602.14        74.56881
602.57        74.33954
603.00        73.88904
603.43          73.076
603.87        73.88567
604.30        74.15781
604.73        74.43845
605.16        73.60833
605.60        73.61113
606.03        73.14371
606.46        72.84724
606.89         73.3273
607.32        74.19931
607.76        73.53465
608.19        74.00141
608.62        74.14812
609.05        73.77739
609.48        73.77001
609.92        74.77615
610.35        74.33932
610.78        73.58753
611.21        73.82294
611.64        73.80714
612.07        74.20485
612.50        74.10174
612.94        74.13049
613.37        74.12364
613.80        73.82426
614.23        73.12173
614.66        73.10185
615.09        73.63525
615.52         73.8789
615.96         73.7107
616.39        73.79677
616.82        73.91578
617.25        73.44956
617.68        73.17239
618.11        73.21354
618.54        73.71911
618.97        73.91782
619.40        73.73124
619.84        73.82545
620.27        73.55762
620.70        73.57196
621.13        73.60365
621.56        73.24843
621.99        72.60416
622.42        72.38752
622.85        72.63157
623.28        72.66447
623.71        72.59395
624.14        72.90214
624.57        73.20924
625.00        73.41518
625.43         73.3525
625.86         73.2934
626.29        73.32671
626.72         72.7709
627.15        73.14577
627.58        73.10258
628.01        72.95406
628.44        73.23699
628.87        72.99215
629.30        72.48001
629.73        72.83887
630.16        72.87084
630.59           72.86
631.02        73.04173
631.45         73.3791
631.88        73.47855
632.31        73.23486
632.74          73.791
633.17        73.28487
633.60        73.25987
634.03        73.17637
634.46        73.06361
634.89        72.92334
635.32        72.81702
635.75        72.77549
636.18        72.69595
636.61        72.59839
637.04        72.55214
637.47        72.55602
637.89        72.58878
638.32        72.60849
638.75        72.59245
639.18        72.52602
639.61        72.51579
640.04        72.44723
640.47        72.40408
640.90        72.39575
641.33        72.56075
641.76        72.56488
642.18        72.63505
642.61        72.64339
643.04         72.6151
643.47        72.57177
643.90        72.55923
644.33        72.58482
644.76        72.62465
645.18        72.65716
645.61        72.62615
646.04        72.53799
646.47        72.43095
646.90        72.31958
647.33        72.23312
647.75        72.15675
648.18        72.08218
648.61        72.10592
649.04        72.23708
649.47        72.34205
649.89        73.25525
650.32        72.94042
650.75         72.8964
651.18        72.64671
651.61          72.512
652.03        72.56413
652.46        72.72375
652.89        72.94493
653.32        73.03773
653.74        72.89507
654.17         72.6861
654.60        72.90514
655.03        72.25594
655.46        71.17887
655.88        71.41366
656.31        72.70152
656.74        69.31336
657.16         74.5839
657.59        80.96841
658.02        74.32648
658.45        74.15456
658.87        72.92886
659.30        72.89545
659.73        72.53275
660.15        73.85484
660.58        72.67263
661.01        72.52309
661.44        72.37304
661.86        72.03432
662.29        71.54426
662.72        72.10783
663.14        72.25113
663.57        72.24599
664.00        71.81796
664.42         71.8625
664.85        72.40247
665.27        72.93034
665.70         73.2544
666.13        73.37325
666.55        73.25121
666.98        72.81637
667.41        72.19089
667.83        72.05022
668.26        71.71124
668.69        71.72762
669.11        71.84422
669.54        71.99072
669.96         72.1336
670.39        72.31963
670.82        72.52384
671.24        72.59893
671.67        72.55888
672.09        72.54748
672.52        72.58881
672.94        72.55637
673.37        72.46478
673.80        72.38766
674.22        72.34812
674.65        72.30316
675.07        72.27264
675.50        72.25669
675.92        72.24786
676.35        72.21587
676.77        72.15793
677.20        72.07857
677.62        72.00002
678.05        71.95857
678.47        71.96056
678.90        72.00319
679.32         72.0581
679.75        72.09454
680.17        72.09908
680.60        72.08211
681.02        72.07388
681.45        72.11559
681.87         72.2247
682.30        72.37534
682.72        72.53804
683.15        72.60776
683.57        72.58875
684.00        72.52289
684.42        72.45792
684.85        72.45521
685.27        72.52076
685.70        72.64697
686.12        72.78733
686.54        72.88371
686.97        72.91339
687.39        72.90266
687.82        72.85109
688.24        72.77969
688.66        72.69613
689.09        72.59328
689.51        72.50728
689.94        72.46492
690.36         72.4796
690.78         72.5279
691.21         72.5964
691.63        72.65015
692.06        72.68209
692.48        72.71743
692.90        72.72353
693.33        72.65305
693.75        72.50005
694.17        72.24606
694.60        72.00991
695.02        71.96812
695.44        72.12335
695.87        72.50745
696.29         72.9393
696.71        72.75983
697.14        72.10179
697.56          71.867
697.98        72.11792
698.41         72.2353
698.83        72.20945
699.25        72.48264
699.68        72.89785
700.10         73.0332
700.52        72.80817
700.94        72.36597
701.37        71.89963
701.79        71.72411
702.21        71.90719
702.64        72.32789
703.06        72.82729
703.48        73.13136
703.90        73.15427
704.33        72.97626
704.75        72.69595
705.17        72.46149
705.59        72.33583
706.01        72.27908
706.44        72.26232
706.86        72.28026
707.28        72.31546
707.70        72.33458
708.12         72.3792
708.55        72.59856
708.97        72.93594
709.39        73.10021
709.81        73.06875
710.23        73.07332
710.66         73.1147
711.08        73.05727
711.50        72.90459
711.92        72.76305
712.34        72.65541
712.76        72.57027
713.19        72.50407
713.61        72.48996
714.03        72.51593
714.45         72.5825
714.87        72.70138
715.29        72.88789
715.71        73.12812
716.13        73.39487
716.56        73.61155
716.98        73.75397
717.40        73.76457
717.82         73.6639
718.24        73.47443
718.66        73.23392
719.08        72.98357
719.50        72.74676
719.92        72.56661
720.34        72.49991
720.76        72.55344
721.19         72.6807
721.61        72.90102
722.03         73.1869
722.45        73.49992
722.87        73.82512
723.29        74.05313
723.71        74.01542
724.13        73.69809
724.55         73.1696
724.97        72.59663
725.39        72.25783
725.81        72.23038
726.23        72.41464
726.65        72.70702
727.07        73.09447
727.49        73.25089
727.91        73.42866
728.33        73.56169
728.75        73.67802
729.17        73.77931
729.59        73.83559
730.01        73.84359
730.43        73.80981
730.85         73.7377
731.27        73.63497
731.69           73.51
732.10        73.36691
732.52        73.21327
732.94        73.07425
733.36        72.98239
733.78         72.8448
734.20        72.65414
734.62        72.69682
735.04        73.06092
735.46        72.52422
735.88        73.23158
736.30        73.41768
736.72        73.69403
737.13        73.94498
737.55        74.09098
737.97        74.30422
738.39        74.46587
738.81        74.09515
739.23        73.35855
739.65         73.1647
740.06        73.49173
740.48        73.63177
740.90        73.54221
741.32        73.67426
741.74        74.01618
742.16        74.28834
742.57        74.45036
742.99        74.55337
743.41        74.57432
743.83        74.46319
744.25        74.23135
744.67        73.88428
745.08        73.54491
745.50        73.39384
745.92         73.4795
746.34        73.74418
746.75        74.06136
747.17        74.20508
747.59        74.12808
748.01        73.90266
748.42        73.61902
748.84        73.44629
749.26        73.43498
749.68        73.45567
750.09        73.48991
750.51         73.6777
750.93        73.91232
751.35        73.86797
751.76        73.58042
752.18        73.38659
752.60        73.29604
753.01        73.28092
753.43        73.04473
753.85        72.97683
754.27        73.00528
754.68        73.11439
755.10        73.24931
755.52        73.32209
755.93        73.30301
756.35        73.20083
756.77        73.13051
757.18        73.14632
757.60        73.26088
758.02        73.68856
758.43        74.28084
758.85        73.70584
759.26        73.78922
759.68        73.06324
760.10        72.65244
760.51        72.69277
760.93        73.28365
761.34        73.50963
761.76        73.96684
762.18         74.1306
762.59        74.25159
763.01        74.16915
763.42        74.04195
763.84        74.16604
764.26        74.45201
764.67        74.35986
765.09        73.97442
765.50        73.59454
765.92          73.378
766.33        73.44859
766.75        73.67488
767.16        73.72893
767.58        73.50432
768.00        73.27275
768.41         73.1601
768.83        73.13784
769.24        73.22829
769.66        73.58865
770.07        74.04678
770.49        74.00052
770.90        73.58913
771.32        73.77568
771.73        74.48328
772.15        74.69844
772.56        74.39461
772.97        74.10121
773.39        73.94242
773.80        73.89821
774.22        73.97959
774.63        74.24317
775.05        74.53173
775.46         74.6701
775.88        74.57612
776.29         74.3229
776.70        74.03161
777.12        73.92347
777.53        74.06406
777.95        74.35168
778.36        74.67087
778.77        74.78414
779.19        74.64787
779.60        74.35519
780.02        74.01701
780.43        73.83259
780.84        73.86965
781.26        73.92908
781.67         74.0199
782.09        74.40621
782.50        74.92509
782.91        74.93462
783.33        74.50421
783.74        74.35939
784.15        74.53463
784.57        74.65749
784.98        74.71216
785.39        74.74427
785.81        74.79037
786.22        75.04301
786.63        75.41401
787.04        75.56329
787.46        75.47646
787.87        75.29001
788.28        75.11242
788.70          75.036
789.11        75.06666
789.52        75.20681
789.93        75.36745
790.35        75.39113
790.76        75.25691
791.17         75.0029
791.58         74.7422
792.00        74.59492
792.41        74.60986
792.82        74.86149
793.23        75.21915
793.65        75.15972
794.06         74.7881
794.47        74.86958
794.88        75.32842
795.29        75.44726
795.71        75.17021
796.12        74.98729
796.53        74.97348
796.94        74.92536
797.35        74.92648
797.76        75.33322
798.18        75.97516
798.59        76.31104
799.00        76.23795
799.41        76.00136
799.82        75.74216
800.23        75.60849
800.64        75.65737
801.06        75.81322
801.47         76.0057
801.88        76.02004
802.29        75.80204
802.70         75.4147
803.11        74.99016
803.52        74.74052
803.93        74.75284
804.34         74.9825
804.75        75.30884
805.17        75.65236
805.58        76.02079
805.99        75.99581
806.40        75.74068
806.81        76.55032
807.22        77.98116
807.63        77.63472
808.04        75.80747
808.45        75.04163
808.86        75.53033
809.27        75.90174
809.68        75.94151
810.09        75.94561
810.50        75.85859
810.91        75.60474
811.32        75.36911
811.73        75.44511
812.14        75.88335
812.55        76.60345
812.96        77.36347
813.37        77.69941
813.78        77.47952
814.19        76.87355
814.60        76.12711
815.01        75.56976
815.42        75.28742
815.83        75.18587
816.24        75.20608
816.65        75.24177
817.05        75.25141
817.46         75.2514
817.87        75.26517
818.28        75.25864
818.69        75.23586
819.10        75.18832
819.51        75.15184
819.92        75.23984
820.33        75.47321
820.74        75.70953
821.14        75.91682
821.55        76.27962
821.96        76.66261
822.37        76.53091
822.78        75.99004
823.19        75.73463
823.60        75.84656
824.00        75.98295
824.41        76.02625
824.82        76.06595
825.23        76.07382
825.64        76.04121
826.04        75.99802
826.45        75.94089
826.86        75.89475
827.27        75.87241
827.68        75.86398
828.08        75.87946
828.49        75.86429
828.90        75.82813
829.31        75.83112
829.72        75.97206
830.12         76.2831
830.53        76.67413
830.94        76.99434
831.35        76.93946
831.75        76.47431
832.16        75.68343
832.57        74.84866
832.97        74.38902
833.38        74.41163
833.79        74.77471
834.20        75.31078
834.60        75.74593
835.01        75.99207
835.42         76.1742
835.82        76.30665
836.23        76.32546
836.64        76.27552
837.04        76.11588
837.45        76.02953
837.86        76.39954
838.26        77.29602
838.67        78.56019
839.08        79.77329
839.48        80.13472
839.89        79.44884
840.29        78.01122
840.70        76.46481
841.11        75.53562
841.51        75.41976
841.92        75.88773
842.33        76.69537
842.73        77.40541
843.14        77.72242
843.54        77.81871
843.95        77.79767
844.35         77.8819
844.76        78.10394
845.17        78.37791
845.57        78.55408
845.98        78.38227
846.38        77.85732
846.79        77.07349
847.19        76.30363
847.60        75.94414
848.00        76.09766
848.41        76.62055
848.81        77.28131
849.22        77.59602
849.62        77.47327
850.03        77.03056
850.43        76.48743
850.84        76.12526
851.24        76.09283
851.65        76.24015
852.05        76.56717
852.46        76.94189
852.86        77.29593
853.27        77.65682
853.67        77.92318
854.07         78.0855
854.48        78.11334
854.88        78.03024
855.29        77.80037
855.69        77.52903
856.10        77.18666
856.50        76.85742
856.90        76.55092
857.31        76.29861
857.71        76.17222
858.12        76.09607
858.52        76.12186
858.92        76.19817
859.33        76.27984
859.73        76.42488
860.13         76.5085
860.54        76.35455
860.94        75.98618
861.34        75.42911
861.75        74.87456
862.15        74.69101
862.55        74.93227
862.96        75.45912
863.36        76.08572
863.76        76.39145
864.17         76.2413
864.57        75.79089
864.97        75.15789
865.38        74.53604
865.78        74.03866
866.18         73.6143
866.58        73.30671
866.99        73.19567
867.39        73.31649
867.79        73.64469
868.19        74.10159
868.60        74.52603
869.00         74.8917
869.40        75.18824
869.80        75.40816
870.21        75.55077
870.61        75.67833
871.01        75.74122
871.41        75.68847
871.81        75.45203
872.22        75.03732
872.62        74.47327
873.02        73.95274
873.42        73.79095
873.82        74.04572
874.22        74.60701
874.63        75.19543
875.03        75.38186
875.43        75.04956
875.83        74.34239
876.23        73.49171
876.63        72.85049
877.03        72.53815
877.44        72.44898
877.84        72.51225
878.24        72.60828
878.64        72.64035
879.04        72.51157
879.44        72.37224
879.84        72.52956
880.24         72.9865
880.64        73.61685
881.04        74.07558
881.44        73.83276
881.84        72.82397
882.24        71.26321
882.65        69.70014
883.05        68.97755
883.45        69.29585
883.85        70.41738
884.25         71.8792
884.65        72.87209
885.05        73.13282
885.45        72.88659
885.85        72.42662
886.25        72.21176
886.65        72.36981
887.05        72.72948
887.45        73.12372
887.85        73.30556
888.25        73.19827
888.65        72.90699
889.04        72.55406
889.44        72.33446
889.84        72.28467
890.24         72.3446
890.64         72.4137
891.04        72.33791
891.44        72.09338
891.84         71.7587
892.24        71.44292
892.64         71.2933
893.04        71.35348
893.44        71.58749
893.83        71.95493
894.23        72.32929
894.63        72.68258
895.03        73.01408
895.43        73.34828
895.83        73.73903
896.23        74.15941
896.63        74.53404
897.02         74.7504
897.42        74.67219
897.82         74.2876
898.22        73.70895
898.62        73.01022
899.01        72.27858
899.41        71.60124
899.81        70.95675
900.21        70.50049
900.61        70.47341
901.00        70.88778
901.40        71.65426
901.80         72.4726
902.20         72.8494
902.59        72.68083
902.99        72.09804
903.39        71.36823
903.79        70.94503
904.18        70.94807
904.58        71.22966
904.98        71.67093
905.38         72.1017
905.77        72.45759
906.17        72.83148
906.57        73.12986
906.96        73.18765
907.36        72.97787
907.76        72.53774
908.15        72.14268
908.55        72.22472
908.95        72.85906
909.34        73.91282
909.74        74.97384
910.14        75.45158
910.53        75.16261
910.93        74.32166
911.33        73.19998
911.72        72.20518
912.12        71.55913
912.52         71.1702
912.91        70.97986
913.31        70.91682
913.70        70.94564
914.10        71.06526
914.49        71.37257
914.89        71.91447
915.29        72.67767
915.68        73.60019
916.08        74.36312
916.47        74.54566
916.87        74.08714
917.26        73.10812
917.66        72.05315
918.05         71.4325
918.45        71.38592
918.84        71.84451
919.24        72.48818
919.64        72.88364
920.03        72.90746
920.42        72.63501
920.82        72.40797
921.21        72.70376
921.61        73.58099
922.00        74.91187
922.40        76.18796
922.79        76.68859
923.19        76.20605
923.58        75.03587
923.98        73.71391
924.37        72.94349
924.77        72.91305
925.16         73.3624
925.55        74.04653
925.95         74.5124
926.34        74.60719
926.74        74.46645
927.13        74.10636
927.52        73.47197
927.92        72.67515
928.31          71.731
928.70        70.88369
929.10        70.48844
929.49        70.59808
929.89        71.06284
930.28        71.81151
930.67        72.56789
931.07        73.16971
931.46        73.75273
931.85        74.09409
932.24        73.90668
932.64        73.23668
933.03         72.1412
933.42        71.13615
933.82        70.97766
934.21        71.80147
934.60        73.45007
934.99        75.34803
935.39        76.43108
935.78        76.41908
936.17        75.48741
936.56        74.21216
936.96        73.51665
937.35        73.63579
937.74        74.30424
938.13        74.97649
938.53        74.82164
938.92        73.69775
939.31        71.96719
939.70        70.24352
940.09        69.37228
940.49          69.508
940.88        70.42819
941.27        71.69575
941.66        72.51176
942.05        72.61787
942.44        72.27264
942.84        71.81773
943.23          71.784
943.62        72.31147
944.01        73.14426
944.40        74.09834
944.79        74.92474
945.18        75.47894
945.57        75.81969
945.97        75.80515
946.36        75.31061
946.75        74.34672
947.14         73.0741
947.53        71.75471
947.92        70.74239
948.31        70.14648
948.70        69.89144
949.09        70.01072
949.48        70.52631
949.87        71.37006
950.26        72.49795
950.65        73.62229
951.04        74.27754
951.43        74.33109
951.82        73.86126
952.21        73.13152
952.60        72.61325
952.99        72.46935
953.38        72.61885
953.77        72.90807
954.16        73.07879
954.55        73.06207
954.94        72.92572
955.33        72.85652
955.72         73.1566
956.11         73.8659
956.50        74.85561
956.89        75.74577
957.28        75.92509
957.66         75.2563
958.05        74.00677
958.44        72.62659
958.83        71.75198
959.22        71.53048
959.61        71.79486
960.00        72.29996
960.39        72.58707
960.78        72.49813
961.16        72.17286
961.55        71.82216
961.94        71.66772
962.33        71.77635
962.72        72.06553
963.11        72.42018
963.49        72.68046
963.88        72.68906
964.27        72.50763
964.66        72.29657
965.04        72.31602
965.43        72.55943
965.82         73.0072
966.21        73.37124
966.60        73.13376
966.98        72.18297
967.37        70.78165
967.76        69.44428
968.15        68.80338
968.53        68.96755
968.92        69.79094
969.31        70.82737
969.69        71.20026
970.08        70.58287
970.47        69.29662
970.86        68.02631
971.24        67.73468
971.63         68.6059
972.02        70.36624
972.40        72.43436
972.79        73.35634
973.17        72.75967
973.56        71.16441
973.95        69.32318
974.33        68.20119
974.72        68.02702
975.11        68.46409
975.49        69.30974
975.88        70.08945
976.26        70.62651
976.65        71.02498
977.04        71.21915
977.42        71.05869
977.81         70.5169
978.19        69.57508
978.58        68.60567
978.96        68.20725
979.35        68.48994
979.74        69.37098
980.12        70.46136
980.51        70.79586
980.89        70.28204
981.28        69.20042
981.66        68.15321
982.05        67.98495
982.43        68.88113
982.82         70.5509
983.20        72.67505
983.59        74.50259
983.97        75.77724
984.35        76.62215
984.74        76.96626
985.12        76.99169
985.51         76.7328
985.89        76.14985
986.28        75.52425
986.66        75.22587
987.04         75.3899
987.43        75.90575
987.81        76.56334
988.20        76.75423
988.58        76.33826
988.96        75.42729
989.35        74.29762
989.73        73.30531
990.12        72.55077
990.50        72.01038
990.88        71.52921
991.27        70.88583
991.65        70.09111
992.03        69.24363
992.42        68.72528
992.80        69.01007
993.18        70.17974
993.56        72.10703
993.95        74.13875
994.33         75.2373
994.71        74.93932
995.10        73.65189
995.48        72.09049
995.86        71.43268
996.24        71.95564
996.63        73.17727
997.01        74.85263
997.39        76.04227
997.77        76.30585
998.15        76.05007
998.54        75.25787
998.92        73.74269
999.30        71.74077
999.68         69.3429
1000.06        67.37366
1000.45        66.98524
1000.83        68.46717
1001.21        71.66777
1001.59        75.67464
1001.97        78.17664
1002.35        78.25853
1002.73        76.57076
1003.12        74.45335
1003.50        73.62013
1003.88        74.57722
1004.26        76.68423
1004.64         79.4246
1005.02        81.65339
1005.40        82.73325
1005.78        83.15735
1006.16        82.67522
1006.54        80.85409
1006.92        77.99039
1007.30        74.37637
1007.69        71.26679
1008.07        70.30664
1008.45        71.93359
1008.83        75.74441
1009.21        80.76187
1009.59         84.3304
1009.97        85.01717
1010.35        83.55869
1010.73        80.45992
1011.11        76.56721
1011.49         72.6088
1011.86        68.57852
1012.24        65.50359
1012.62        64.71445
1013.00        66.34161
1013.38        70.19991
1013.76        75.34085
1014.14        79.02369
1014.52        79.79817
1014.90        78.19217
1015.28        75.26369
1015.66         72.7056
1016.04        71.01088
1016.41        69.65105
1016.79        68.60683
1017.17        68.00806
1017.55        67.84675
1017.93         68.3021
1018.31        68.98111
1018.69        69.15947
1019.06        68.73976
1019.44        67.80162
1019.82         66.8131
1020.20        66.91598
1020.58        68.31547
1020.95        70.21604
1021.33        72.13106
1021.71        73.48843
1022.09        74.27641
1022.46        75.05267
1022.84        75.15531
1023.22        73.40959
1023.60         69.8739
1023.97        64.93583
1024.35        61.16592
1024.73        61.44484
