SpectraSmart Spectrum 2.9.0.0
--------- Device Information -----------
Spectrum Name :  反射率_0
Saving Time :  2024/04/26 22:43:22
Spectro-Module Model Name : SE2030-DUVN
Spectro-Module Serial Number : OS361AC55029948
Wavelength Start : 200
Wavelength End : 1025
Wavelength Unit : Wavelength(nm)
Spectrum Unit : Reflectance(%)
-----------Spectrum Setting ------------
Integration Time : 20ms
Average : 10
Boxcar : 0
Background removal :  enabled
linearity correction :  enabled
SC :  disabled
Intensity correction :  disabled
DWT denoise :  enabled
savitzky-golay :  disabled
FFT :  disabled
Running average :  disabled
Kalman :  disabled
High pass :  disabled
---------------BEGIN--------------------
Wavelength(nm)             Reflectance(%)
200.29               0
200.75        58.44841
201.21        57.52177
201.67         57.0811
202.13        56.92133
202.58        56.94228
203.04        57.42843
203.50        58.94972
203.96        62.32087
204.42        67.71107
204.88        74.78232
205.34        81.27632
205.80        83.84778
206.26         81.8302
206.72        76.19443
207.18         70.4455
207.64        67.50211
208.10         67.4874
208.55         70.9779
209.01        75.38717
209.47        72.93657
209.93        63.31722
210.39        53.11729
210.85        47.49557
211.31        48.88958
211.77         58.4936
212.23        83.50462
212.69        147.6593
213.14        253.8538
213.60        246.9608
214.06        169.9598
214.52        118.7593
214.98        96.63842
215.44         88.1772
215.90        84.00652
216.36        82.56569
216.81        82.96534
217.27        85.02241
217.73         91.4999
218.19        100.1923
218.65        99.35209
219.11         87.7473
219.57        73.75511
220.02        65.45199
220.48        67.06808
220.94        77.80708
221.40        99.07465
221.86         129.762
222.32        148.5886
222.77         138.128
223.23        112.9405
223.69         89.0823
224.15        75.34348
224.61        69.74409
225.06        67.82391
225.52        67.76975
225.98        67.56323
226.44          66.812
226.90        66.29527
227.36        65.94645
227.81        65.51353
228.27        65.11102
228.73         64.3844
229.19        63.90612
229.65        64.48296
230.10        66.00611
230.56         68.2983
231.02        70.11703
231.48        69.54047
231.93        66.48665
232.39        62.20446
232.85        58.26269
233.31        56.71339
233.77        57.66942
234.22        60.34184
234.68        63.57196
235.14        65.60748
235.60        65.89303
236.05        65.01177
236.51        63.23525
236.97        61.35045
237.43        59.86386
237.88        58.56041
238.34        57.83123
238.80        58.59678
239.26        61.24118
239.71         66.6159
240.17        73.92441
240.63        80.36655
241.08        84.01951
241.54        83.89474
242.00        82.69021
242.46        87.04726
242.91        101.7096
243.37         129.616
243.83        171.8905
244.28        209.4357
244.74        213.4053
245.20        183.3121
245.66        144.2238
246.11         119.362
246.57        109.8679
247.03        108.7397
247.48        110.1677
247.94        105.8986
248.40        96.82611
248.85        88.01788
249.31        81.76711
249.77        78.01888
250.22        75.80926
250.68        73.83554
251.14        72.04243
251.59        71.24274
252.05        72.10517
252.51        74.84011
252.96        76.66785
253.42        75.44032
253.88        71.62797
254.33        66.01474
254.79        62.25242
255.25         63.1998
255.70        68.18362
256.16        75.81331
256.62        81.75637
257.07        79.94753
257.53        72.57359
257.99        63.81382
258.44        56.90195
258.90        54.46708
259.35        55.11393
259.81          57.498
260.27          59.812
260.72        59.93032
261.18        58.06329
261.63        55.08012
262.09        52.30238
262.55        50.58693
263.00        49.84941
263.46        49.74865
263.91        49.64968
264.37        49.06557
264.83         47.9216
265.28        46.45199
265.74        45.14235
266.19        44.29408
266.65        43.99024
267.11        43.98229
267.56        44.01484
268.02        43.70341
268.47        42.95956
268.93        41.96478
269.38        40.84498
269.84         39.8387
270.30        39.00603
270.75        38.25206
271.21        37.62688
271.66        37.15595
272.12        36.81506
272.57        36.57428
273.03        36.27488
273.48        35.64841
273.94        34.71527
274.39        33.55421
274.85        32.42504
275.31        31.56048
275.76         30.9866
276.22        30.64843
276.67        30.41565
277.13        30.17984
277.58        29.85632
278.04        29.50863
278.49        29.10456
278.95        28.70144
279.40        28.27072
279.86        27.86266
280.31        27.43093
280.77         27.0129
281.22        26.58298
281.68        26.18598
282.13        25.83911
282.59        25.64084
283.04        25.56077
283.50        25.58088
283.95        25.59857
284.41        25.46566
284.86        25.15364
285.32        24.73838
285.77        24.30742
286.22         24.0359
286.68        23.95579
287.13         23.9877
287.59        24.06345
288.04        24.03846
288.50        23.89963
288.95        23.66576
289.41        23.41989
289.86        23.22281
290.32        23.12237
290.77        23.08991
291.22        23.09571
291.68        23.08246
292.13        23.04739
292.59        23.04608
293.04        23.16169
293.50        23.53586
293.95        24.18642
294.40        25.06811
294.86        26.09575
295.31        27.12642
295.77        28.12454
296.22        29.12012
296.68        30.16095
297.13        31.31032
297.58          32.601
298.04        34.01801
298.49         35.5496
298.95        37.19336
299.40        38.93154
299.85         40.7706
300.31        42.70642
300.76        44.71271
301.21        46.78547
301.67        48.93608
302.12        51.12796
302.58        53.38704
303.03        55.67015
303.48        57.99228
303.94         60.3719
304.39        62.77911
304.84        65.23878
305.30        67.76601
305.75        70.31448
306.20        72.90032
306.66        75.52054
307.11        78.11289
307.57        80.67014
308.02        83.07764
308.47        85.33698
308.93        87.47482
309.38        89.50838
309.83        91.59319
310.29        93.76888
310.74         95.9949
311.19        98.15699
311.65        100.0297
312.10        101.5301
312.55        102.7043
313.00        103.7405
313.46          104.95
313.91        106.3783
314.36        107.9718
314.82        109.5141
315.27        110.6637
315.72        111.3244
316.18        111.6458
316.63        111.8328
317.08         112.261
317.53        113.0279
317.99        114.0023
318.44        115.0427
318.89        115.8813
319.35        116.4237
319.80         116.758
320.25        116.9554
320.70        117.1285
321.16         117.327
321.61         117.569
322.06        117.8273
322.51        118.0758
322.97        118.2963
323.42        118.5045
323.87         118.808
324.32        119.3967
324.78        120.2451
325.23        121.3798
325.68         122.443
326.13        122.8567
326.59        122.5036
327.04        121.5874
327.49        120.5952
327.94        120.3403
328.39        121.0146
328.85        122.3497
329.30        124.0163
329.75        125.1105
330.20         125.335
330.66        124.9143
331.11        124.2684
331.56        123.9896
332.01         124.273
332.46        124.9069
332.92        125.6249
333.37        126.1768
333.82        126.3862
334.27        126.4127
334.72        126.3622
335.17        126.3694
335.63        126.4943
336.08        126.7574
336.53        127.1762
336.98        127.8435
337.43        128.7499
337.88        129.8291
338.34        130.9694
338.79        132.1159
339.24        133.1304
339.69        134.0121
340.14        134.6108
340.59        134.7189
341.05        134.3803
341.50        133.6863
341.95         132.976
342.40        132.7618
342.85        133.1666
343.30        134.0504
343.75        135.1665
344.20        136.0843
344.66        136.6512
345.11        136.9685
345.56         137.109
346.01        137.1997
346.46        137.3108
346.91        137.4171
347.36         137.513
347.81        137.6173
348.26         137.728
348.72        137.8249
349.17        137.9821
349.62        138.3482
350.07        138.9089
350.52        139.6239
350.97        140.1621
351.42        140.0031
351.87        139.0882
352.32        137.6078
352.77         136.082
353.22        135.2705
353.67        135.3208
354.13        136.0101
354.58        136.8826
355.03         137.121
355.48         136.511
355.93         135.303
356.38        133.9567
356.83        133.1617
357.28        133.0453
357.73        133.3364
358.18        133.6284
358.63        133.2882
359.08         132.167
359.53         130.524
359.98        128.6734
360.43        127.0478
360.88        125.7771
361.33        124.7322
361.78        123.8195
362.23        122.9038
362.68        121.9434
363.13        121.0052
363.58         120.105
364.03        119.2383
364.48        118.3889
364.93        117.5174
365.38        116.6109
365.83        115.6787
366.28        114.7308
366.73         113.783
367.18         112.826
367.63        111.8345
368.08        110.8155
368.53        109.7892
368.98        108.8119
369.43        107.9647
369.88         107.259
370.33        106.6631
370.78        106.1118
371.23         105.504
371.68        104.8056
372.13        104.0336
372.58        103.2254
373.03        102.4438
373.48        101.6979
373.93        100.9591
374.38        100.1883
374.83        99.33431
375.28        98.39687
375.72        97.39218
376.17        96.42092
376.62         95.5071
377.07        94.67939
377.52        93.95264
377.97        93.31843
378.42         92.7798
378.87        92.33334
379.32        91.92169
379.77        91.59261
380.22        91.45761
380.67        91.49728
381.11        91.52774
381.56        91.56989
382.01        91.00076
382.46        89.89999
382.91        88.44747
383.36        87.04689
383.81        86.24008
384.26        86.09646
384.71        86.43147
385.15        86.95195
385.60        87.13927
386.05        86.84328
386.50        86.22626
386.95        85.43205
387.40        84.69199
387.85        84.09839
388.29        83.52247
388.74        83.07909
389.19         82.7196
389.64        82.42249
390.09        82.20085
390.54        81.99712
390.98        81.68766
391.43        81.29754
391.88        80.84766
392.33        80.41708
392.78          80.088
393.23        79.86626
393.67        79.77231
394.12        79.78986
394.57         79.5222
395.02        79.03947
395.47        78.85413
395.91        78.93435
396.36        78.74529
396.81        78.30746
397.26        77.94817
397.71        77.65546
398.15        77.32748
398.60        77.07249
399.05        76.61303
399.50        76.09739
399.95        76.31045
400.39         77.0164
400.84         76.7571
401.29        75.62952
401.74        75.10894
402.18        75.24194
402.63        74.97529
403.08        74.38317
403.53        74.14377
403.97        74.26649
404.42        74.48232
404.87         74.6609
405.32        74.62844
405.76        74.33327
406.21        73.96645
406.66        73.59766
407.11        73.19271
407.55        72.92645
408.00        73.01349
408.45        73.39341
408.90        73.91572
409.34        74.27113
409.79         73.7944
410.24        72.76741
410.68        72.28822
411.13        72.45686
411.58        72.67114
412.03        72.76881
412.47        72.76092
412.92        72.57491
413.37        72.25191
413.81        71.92804
414.26        71.86881
414.71        72.08944
415.15        72.54098
415.60        73.04889
416.05        73.38496
416.49        73.47496
416.94        73.37788
417.39        73.20628
417.83        73.12257
418.28        73.17966
418.73        73.31908
419.17         73.4966
419.62        73.64864
420.07        73.74312
420.51         73.7845
420.96        73.80651
421.41        73.79572
421.85        73.73754
422.30        73.70612
422.74        73.63189
423.19        73.54437
423.64        73.40844
424.08        73.20435
424.53        73.02556
424.98        73.07636
425.42        73.38467
425.87        73.99305
426.31        74.66878
426.76        74.64539
427.21         74.0423
427.65        73.85197
428.10          74.111
428.54        74.18144
428.99        74.10894
429.44        74.08863
429.88        74.23444
430.33         74.7782
430.77        75.47385
431.22         76.1151
431.66        76.46703
432.11        75.91125
432.56        74.80748
433.00         74.5997
433.45        75.48489
433.89        76.33464
434.34         76.4715
434.78         76.9727
435.23        76.96762
435.67         74.1087
436.12            75.3
436.57        75.39021
437.01        76.16501
437.46        76.61166
437.90        76.35439
438.35         76.0796
438.79        76.12932
439.24        76.17915
439.68        76.30495
440.13         76.7362
440.57        77.37615
441.02        77.31255
441.46        76.71883
441.91        77.34696
442.35        78.69155
442.80         78.5126
443.24        77.11716
443.69        77.10439
444.13        78.35153
444.58        78.82443
445.02        78.45495
445.47        78.34747
445.91        78.59506
446.36        78.85415
446.80        79.10618
447.24        79.52423
447.69        80.00455
448.13        80.11231
448.58        79.95216
449.02        80.10742
449.47        80.52043
449.91        80.57481
450.36        80.28579
450.80        79.98374
451.25        79.78966
451.69        79.67613
452.13        79.68986
452.58        79.82862
453.02         80.0329
453.47        80.20933
453.91        80.30898
454.36        80.35954
454.80        80.36919
455.24         80.2216
455.69        79.91353
456.13        79.72441
456.58        79.76455
457.02        78.89345
457.46        78.68244
457.91        78.85698
458.35        79.50658
458.79        79.47924
459.24        78.78074
459.68        77.89935
460.13        77.16647
460.57        76.94273
461.01        77.37878
461.46        77.93599
461.90        78.32794
462.34        79.82317
462.79        78.95124
463.23        79.00538
463.68        78.96236
464.12        78.75891
464.56        78.31403
465.01        77.43525
465.45        76.40259
465.89        76.11277
466.34         76.4685
466.78        76.85335
467.22        77.15041
467.67        76.71554
468.11        76.64909
468.55        76.66872
468.99         77.0222
469.44        77.06604
469.88        76.80468
470.32        76.63604
470.77        76.59717
471.21        76.57084
471.65        76.54408
472.10        76.55102
472.54        76.57997
472.98        76.55679
473.42        76.45979
473.87          76.512
474.31        76.56696
474.75        76.06097
475.20        75.25915
475.64        75.00175
476.08        75.67713
476.52        75.77245
476.97        75.32449
477.41        75.31149
477.85        75.87251
478.29        75.06384
478.74        75.48062
479.18        75.84902
479.62        75.79626
480.06        75.85268
480.50        75.66406
480.95        75.61392
481.39        75.72842
481.83         75.1423
482.27         75.1786
482.72        75.52258
483.16        75.12039
483.60        75.20909
484.04        75.36671
484.48        75.77663
484.93        75.96317
485.37        75.77927
485.81        74.99612
486.25        74.15484
486.69        73.71272
487.14        76.52545
487.58        76.35728
488.02        75.47469
488.46        74.84014
488.90        74.85918
489.34        76.23502
489.79        77.35471
490.23        76.43443
490.67         75.5527
491.11        74.62074
491.55        74.45898
491.99        74.96909
492.43        74.99782
492.88        74.52587
493.32        74.40283
493.76        74.65191
494.20        74.83072
494.64         74.9008
495.08        74.98565
495.52        75.05133
495.96         75.0265
496.41        74.91647
496.85        74.80498
497.29         74.6119
497.73        74.61059
498.17        73.94785
498.61        73.97334
499.05        74.36398
499.49        74.80482
499.93        74.85932
500.37         74.8251
500.82        74.71813
501.26        74.26385
501.70        74.41696
502.14        74.54631
502.58        74.77737
503.02        74.94583
503.46         75.0026
503.90        75.08342
504.34        75.15352
504.78        75.10548
505.22        74.93326
505.66        74.68067
506.10        74.44678
506.54        74.28436
506.98         74.2024
507.42          74.366
507.86        74.74853
508.30        74.30795
508.74        74.58807
509.18         74.3651
509.62        74.17731
510.06        74.09888
510.50        74.16423
510.94        74.31015
511.38        74.46676
511.82        74.56781
512.26        74.58624
512.70        74.55656
513.14        74.49242
513.58        74.41348
514.02        74.33633
514.46        74.24937
514.90        74.19347
515.34         74.2373
515.78        74.38232
516.22        74.60324
516.66        74.81847
517.10        74.89416
517.54        74.80356
517.98        74.59358
518.42        74.33713
518.86         74.1542
519.30        74.08343
519.74        74.08861
520.18        74.15121
520.62        74.23838
521.06        74.33473
521.50        74.45985
521.93        74.58952
522.37        74.65636
522.81        74.65916
523.25        74.60085
523.69        74.53885
524.13        74.57317
524.57        74.71145
525.01        74.90839
525.45        75.08468
525.89        75.11176
526.32         74.9567
526.76        74.69612
527.20        74.37659
527.64        74.08533
528.08        73.86413
528.52        73.66489
528.96        73.53217
529.40        73.59945
529.83        73.82572
530.27        74.04395
530.71        74.18504
531.15        74.27528
531.59        74.29022
532.03        74.17052
532.46        73.95867
532.90        73.81955
533.34        73.77602
533.78         73.7487
534.22        73.71516
534.66        73.73083
535.09        73.73309
535.53        73.56741
535.97        73.28894
536.41          73.172
536.85        73.23971
537.28        73.34373
537.72        73.45821
538.16        73.59939
538.60        73.74462
539.04        73.88719
539.47        73.97975
539.91        74.00014
540.35         73.9311
540.79        73.78498
541.22        73.61384
541.66        73.52595
542.10        73.53636
542.54        73.62098
542.97        73.70927
543.41        73.72238
543.85        73.63265
544.29        73.47922
544.72        73.30791
545.16        73.23156
545.60        73.25937
546.04        73.36609
546.47         73.5138
546.91        73.63911
547.35         73.7148
547.79        73.74518
548.22        73.74561
548.66        73.75692
549.10        73.84693
549.53        73.89072
549.97        73.88384
550.41        73.72858
550.84        73.49599
551.28        73.40147
551.72        73.43425
552.15        73.48567
552.59        73.60722
553.03         73.3625
553.46        73.86866
553.90        73.82993
554.34        73.78234
554.77        73.72447
555.21        73.58297
555.65        73.57252
556.08        73.67232
556.52        73.80331
556.96        73.85555
557.39        73.97321
557.83        74.07102
558.27        73.77351
558.70         73.1984
559.14        72.96434
559.57        73.06857
560.01        73.11854
560.45        73.11826
560.88        73.27182
561.32        73.56203
561.75        73.90182
562.19        74.17865
562.63        73.99237
563.06        73.48452
563.50        73.31169
563.93        73.44251
564.37        73.62423
564.80        73.79425
565.24        73.62337
565.68        72.99344
566.11        73.67121
566.55        73.07738
566.98        72.58917
567.42        72.52534
567.85        72.70948
568.29        73.35291
568.72        73.61604
569.16        73.49712
569.60        74.17149
570.03        73.90427
570.47        74.10789
570.90        74.32271
571.34        73.58591
571.77        74.02634
572.21        74.03711
572.64        73.97002
573.08        74.21495
573.51        73.59505
573.95         73.5517
574.38        73.98051
574.82        74.03683
575.25        73.17743
575.69        73.82135
576.12         73.8214
576.56         73.3326
576.99        72.84637
577.42            73.1
577.86        73.22955
578.29        74.10014
578.73        73.96751
579.16        74.05693
579.60        73.71503
580.03        73.76354
580.47        73.53255
580.90        74.49017
581.33        74.05769
581.77        74.37134
582.20          73.123
582.64        73.76013
583.07        74.24971
583.51        74.32272
583.94        73.70316
584.37        73.63263
584.81        73.99861
585.24        73.98389
585.68        73.50182
586.11        73.80199
586.54        73.81461
586.98        73.12303
587.41        72.65907
587.85        73.33958
588.28        73.11139
588.71        73.17448
589.15        72.99648
589.58         73.3231
590.01        73.47443
590.45        73.03382
590.88        74.08204
591.31        73.88587
591.75        73.27679
592.18        72.85032
592.61        72.76551
593.05         73.2211
593.48        73.66806
593.91        73.50286
594.35        73.74068
594.78        73.32059
595.21        72.76007
595.65        72.87751
596.08        73.86524
596.51         73.8437
596.94        73.70998
597.38        73.52065
597.81         73.5103
598.24        73.95023
598.68        73.78516
599.11        73.22865
599.54        73.95396
599.97        73.75517
600.41        73.38071
600.84        72.85286
601.27         73.3097
601.70        73.18877
602.14        73.41358
602.57        73.26178
603.00        73.14877
603.43         72.6396
603.87        73.12993
604.30        73.57455
604.73        74.09135
605.16        73.00366
605.60        73.34003
606.03        72.82457
606.46        72.47998
606.89        72.34515
607.32        73.51535
607.76        72.74101
608.19        72.98672
608.62        73.36169
609.05        73.03347
609.48        73.01497
609.92        73.71578
610.35        73.66163
610.78        72.73484
611.21        72.91371
611.64        72.88957
612.07        73.19089
612.50        73.02796
612.94        73.08401
613.37        73.22168
613.80         73.0295
614.23        72.66127
614.66        72.63448
615.09        73.13429
615.52        73.35015
615.96        73.26969
616.39        73.23801
616.82        73.25941
617.25        73.01431
617.68        72.64771
618.11        72.71259
618.54          73.119
618.97        73.32908
619.40        73.35712
619.84         72.9102
620.27        73.24802
620.70        73.18848
621.13        73.05585
621.56        72.58776
621.99        72.03486
622.42        71.77716
622.85        71.89929
623.28         71.9815
623.71        72.39391
624.14        72.17168
624.57        72.72233
625.00         72.2211
625.43        72.50399
625.86        72.40388
626.29        72.48796
626.72        71.77881
627.15         72.4253
627.58        72.53086
628.01        72.49747
628.44        72.80373
628.87        72.66006
629.30        71.76303
629.73        71.89424
630.16        72.31229
630.59        71.92599
631.02        72.18137
631.45        72.52348
631.88        72.76725
632.31        72.83099
632.74        72.80821
633.17        72.72172
633.60        72.56395
634.03        72.36098
634.46        72.11566
634.89        71.86476
635.32        71.66805
635.75        71.56118
636.18        71.50609
636.61        71.50325
637.04        71.54167
637.47        71.60545
637.89         71.7151
638.32        71.81179
638.75        71.82208
639.18        71.72878
639.61        71.67942
640.04        71.49542
640.47        71.46792
640.90        71.54558
641.33        71.70648
641.76         71.8812
642.18        71.96561
642.61        71.91225
643.04        71.76453
643.47        71.58595
643.90        71.47929
644.33        71.46933
644.76        71.52026
645.18         71.5928
645.61        71.60141
646.04         71.5377
646.47        71.44642
646.90        71.34606
647.33        71.25421
647.75        71.14983
648.18        71.07031
648.61         71.0974
649.04        71.09084
649.47        70.97212
649.89        71.87943
650.32         71.7743
650.75         71.6982
651.18        71.22225
651.61        71.13213
652.03        71.50723
652.46          71.772
652.89        71.83407
653.32         72.0506
653.74         72.4062
654.17        71.51007
654.60        72.26577
655.03        71.68399
655.46        70.88924
655.88        71.43166
656.31        72.00195
656.74         69.9931
657.16        74.21389
657.59        79.18656
658.02        73.87678
658.45        73.36178
658.87        71.97803
659.30        72.06934
659.73        71.98567
660.15        73.43983
660.58         71.7494
661.01        71.41354
661.44        71.33218
661.86        71.24773
662.29        71.07362
662.72        71.69246
663.14        71.63208
663.57        71.46252
664.00        70.97253
664.42        70.93437
664.85        71.39007
665.27        71.91901
665.70        72.30852
666.13        72.46992
666.55        72.35517
666.98         71.9251
667.41        71.31097
667.83        71.19655
668.26        70.90639
668.69        70.96273
669.11        71.12165
669.54        71.32536
669.96        71.53677
670.39        71.82859
670.82        72.11563
671.24        72.10503
671.67        71.83557
672.09        71.58628
672.52        71.46449
672.94         71.4267
673.37        71.47498
673.80        71.56192
674.22        71.65401
674.65        71.71159
675.07        71.72704
675.50        71.65582
675.92        71.53127
676.35        71.43314
676.77        71.38184
677.20        71.34269
677.62        71.32323
678.05        71.33956
678.47        71.38511
678.90        71.47276
679.32        71.56432
679.75        71.59314
680.17        71.54138
680.60        71.48897
681.02        71.37949
681.45        71.38269
681.87        71.49541
682.30        71.68681
682.72        71.90422
683.15        72.01258
683.57        72.00092
684.00        71.89752
684.42        71.78368
684.85        71.78314
685.27        71.90553
685.70        72.13374
686.12        72.36501
686.54        72.41129
686.97        72.26337
687.39         72.0872
687.82        71.91717
688.24        71.75517
688.66        71.62437
689.09        71.49576
689.51         71.4082
689.94        71.48158
690.36        71.67651
690.78        71.74551
691.21        71.70674
691.63        71.78013
692.06        71.96686
692.48        72.13521
692.90        72.23947
693.33        72.25806
693.75        72.17297
694.17        72.01971
694.60        71.87451
695.02        71.71632
695.44        71.61115
695.87        71.89631
696.29        72.40401
696.71        72.28498
697.14        71.63082
697.56        71.34198
697.98        71.48484
698.41        71.55038
698.83        71.45579
699.25        71.63887
699.68        71.95004
700.10        72.06682
700.52        71.92164
700.94        71.62265
701.37        71.32198
701.79         71.2711
702.21        71.51583
702.64        71.94914
703.06        72.43063
703.48        72.71826
703.90        72.73846
704.33        72.56354
704.75        72.28299
705.17        72.03162
705.59        71.87089
706.01        71.76841
706.44        71.71356
706.86        71.72592
707.28        71.79078
707.70        71.86761
708.12        71.96935
708.55        72.19453
708.97        72.48123
709.39        72.56873
709.81        72.45658
710.23        72.39845
710.66        72.40745
711.08        72.34803
711.50        72.20846
711.92        72.06435
712.34        71.93076
712.76         71.8075
713.19        71.70015
713.61        71.65443
714.03         71.6655
714.45        71.73183
714.87        71.86005
715.29        72.06023
715.71        72.31443
716.13        72.58987
716.56         72.8216
716.98        73.00325
717.40        73.07722
717.82        73.06132
718.24        72.93581
718.66        72.67178
719.08        72.30689
719.50         71.8911
719.92        71.54081
720.34        71.43277
720.76        71.59724
721.19        71.93697
721.61        72.39615
722.03         72.8853
722.45        73.22014
722.87        73.49846
723.29        73.61843
723.71        73.48092
724.13        73.09927
724.55        72.52847
724.97        71.92298
725.39        71.54101
725.81        71.45698
726.23        71.58235
726.65        71.84062
727.07        72.25434
727.49        72.50311
727.91        72.82201
728.33        73.09454
728.75        73.26464
729.17        73.31554
729.59        73.24324
730.01        73.10239
730.43        72.99627
730.85        72.95268
731.27        72.94431
731.69        72.93736
732.10        72.87885
732.52        72.76306
732.94        72.59875
733.36        72.41775
733.78        72.23686
734.20        72.09308
734.62        71.83379
735.04        72.30828
735.46        71.72695
735.88        72.44507
736.30        72.58076
736.72        72.79346
737.13        73.28297
737.55        73.84041
737.97        74.08898
738.39        73.92862
738.81        73.30037
739.23        72.47204
739.65        72.35944
740.06        72.87735
740.48        73.08044
740.90        72.90639
741.32        72.98409
741.74        73.31145
742.16        73.52006
742.57        73.57674
742.99         73.5694
743.41        73.51096
743.83        73.39963
744.25        73.25603
744.67        73.06863
745.08        72.91624
745.50        72.90766
745.92         73.0576
746.34         73.3136
746.75        73.58134
747.17        73.66043
747.59        73.51708
748.01        73.31731
748.42        73.09485
748.84        72.72681
749.26        72.37141
749.68        72.35696
750.09        72.64594
750.51        73.07849
750.93        73.43252
751.35        73.23608
751.76        72.59608
752.18        72.23116
752.60         72.1851
753.01        72.06794
753.43        71.88789
753.85        71.79388
754.27        71.77516
754.68        72.24741
755.10        72.36051
755.52        72.58175
755.93        72.65516
756.35        72.73163
756.77         72.8647
757.18        72.91016
757.60        72.88248
758.02        73.10355
758.43        73.49038
758.85        72.76283
759.26        72.91861
759.68        72.15185
760.10        72.16097
760.51        72.39629
760.93        73.08909
761.34        72.84176
761.76        73.07639
762.18        73.09883
762.59        73.35877
763.01        73.40594
763.42          73.328
763.84        73.35805
764.26        73.47327
764.67        73.47593
765.09        73.39829
765.50        73.15331
765.92        72.89381
766.33        72.97916
766.75        73.27143
767.16        73.35558
767.58        73.13862
768.00        72.79606
768.41        72.51944
768.83        72.72223
769.24        73.20651
769.66        73.40634
770.07        72.91184
770.49        72.45605
770.90        72.17171
771.32        72.66749
771.73        73.71381
772.15        74.11826
772.56        73.79487
772.97        73.38947
773.39         73.1174
773.80        73.04192
774.22        73.20721
774.63        73.64437
775.05        74.12338
775.46        74.34405
775.88        74.19651
776.29        73.80305
776.70        73.34602
777.12        73.14676
777.53        73.29268
777.95        73.62998
778.36        74.02871
778.77         74.2305
779.19        74.18714
779.60        74.02106
780.02        73.76309
780.43        73.55574
780.84        73.47349
781.26        73.11535
781.67         72.7019
782.09         73.3662
782.50        74.76015
782.91        75.00384
783.33        74.12977
783.74        73.83258
784.15        74.16965
784.57        74.11031
784.98        73.75014
785.39        73.73183
785.81        74.09227
786.22         74.6521
786.63        75.22276
787.04        75.50006
787.46        75.42728
787.87        75.08926
788.28         74.6737
788.70        74.42966
789.11        74.39897
789.52        74.56031
789.93        74.79027
790.35        74.82403
790.76        74.64048
791.17        74.41465
791.58         74.2513
792.00        74.11765
792.41        74.05009
792.82        74.27894
793.23        74.65325
793.65         74.4174
794.06        73.78404
794.47        73.91888
794.88        74.66335
795.29        75.07287
795.71        74.64086
796.12        74.45683
796.53        74.48242
796.94        74.40781
797.35        74.31915
797.76        74.63448
798.18        75.19855
798.59        75.45223
799.00        75.30247
799.41        75.01821
799.82        74.73121
800.23        74.56344
800.64        74.56934
801.06        74.67762
801.47         74.8486
801.88        74.91978
802.29        74.84148
802.70         74.6555
803.11        74.42947
803.52        74.27132
803.93        74.23995
804.34        74.32037
804.75        74.45863
805.17        74.66221
805.58        74.96517
805.99        75.00183
806.40        74.88695
806.81        75.63362
807.22        76.86414
807.63        76.65319
808.04         75.2142
808.45        74.55296
808.86         74.8243
809.27        74.93883
809.68        74.76885
810.09        74.63701
810.50        74.52839
810.91        74.36082
811.32        74.26212
811.73        74.43063
812.14        74.88493
812.55        75.56517
812.96        76.24991
813.37         76.5174
813.78        76.25658
814.19        75.62618
814.60        74.86015
815.01         74.2745
815.42        73.95242
815.83         73.8046
816.24        73.80493
816.65        73.89698
817.05        74.05193
817.46        74.27958
817.87        74.53008
818.28         74.6627
818.69        74.65411
819.10        74.50227
819.51        74.34938
819.92        74.46876
820.33        74.90574
820.74        75.56143
821.14         76.2058
821.55        76.46609
821.96         76.2634
822.37        75.71944
822.78        75.04076
823.19        74.57994
823.60        74.45932
824.00         74.6105
824.41        74.88302
824.82        75.12872
825.23        75.26881
825.64        75.35895
826.04        75.41787
826.45        75.42253
826.86        75.39857
827.27        75.34673
827.68        75.27633
828.08        75.24796
828.49        75.22467
828.90        75.20776
829.31        75.25521
829.72        75.45811
830.12        75.83939
830.53         76.3065
830.94        76.69352
831.35        76.66893
831.75         76.1887
832.16        75.34538
832.57        74.41962
832.97        73.83341
833.38        73.70284
833.79        73.88771
834.20        74.25679
834.60        74.59029
835.01        74.80736
835.42        75.02077
835.82        75.19001
836.23        75.15633
836.64        74.94305
837.04         74.5406
837.45        74.19983
837.86        74.40807
838.26        75.26794
838.67         76.6022
839.08        77.94571
839.48        78.41378
839.89        77.77661
840.29        76.33978
840.70        74.79388
841.11        73.93993
841.51        73.98521
841.92        74.68524
842.33        75.70667
842.73        76.45156
843.14         76.5957
843.54         76.3695
843.95        76.03545
844.35         76.0652
844.76        76.54446
845.17        77.30449
845.57        78.04353
845.98        78.25831
846.38        77.86135
846.79        77.01563
847.19        76.07265
847.60        75.56132
848.00        75.63034
848.41        76.09046
848.81         76.6946
849.22        76.93682
849.62        76.72494
850.03         76.2164
850.43        75.62368
850.84        75.20431
851.24        75.10112
851.65        75.14494
852.05        75.39833
852.46         75.8444
852.86        76.41408
853.27        77.08887
853.67         77.6037
854.07        77.71694
854.48        77.37837
854.88        76.68987
855.29        75.81174
855.69        75.20973
856.10        74.96841
856.50        75.05956
856.90        75.32649
857.31        75.50926
857.71        75.57139
858.12        75.52228
858.52        75.44106
858.92        75.33006
859.33        75.18935
859.73        75.04967
860.13        74.87595
860.54        74.65398
860.94        74.43918
861.34        74.23106
861.75        74.09763
862.15        74.18629
862.55         74.4883
862.96        74.91365
863.36        75.37283
863.76        75.62108
864.17        75.57131
864.57        75.31464
864.97        74.88474
865.38        74.35193
865.78        73.79541
866.18        73.20717
866.58        72.68815
866.99        72.41216
867.39        72.45395
867.79        72.77199
868.19        73.24566
868.60        73.64811
869.00        73.93745
869.40        74.11786
869.80        74.23625
870.21        74.39528
870.61        74.65815
871.01        74.90419
871.41        74.98776
871.81        74.71013
872.22        74.05668
872.62        73.12861
873.02        72.14447
873.42        71.47131
873.82        71.23734
874.22        71.34188
874.63        71.65579
875.03        71.97575
875.43        72.19352
875.83        72.35706
876.23        72.44637
876.63        72.43198
877.03          72.328
877.44        72.10977
877.84        71.85312
878.24        71.71275
878.64        71.69035
879.04        71.61745
879.44         71.5576
879.84        71.69264
880.24        71.99853
880.64         72.3967
881.04        72.64608
881.44        72.37405
881.84         71.5407
882.24        70.30069
882.65        69.03911
883.05        68.34637
883.45        68.37772
883.85        68.98278
884.25        69.88849
884.65        70.60441
885.05        70.95911
885.45        71.08024
885.85        71.11006
886.25        71.27964
886.65        71.64529
887.05        72.09171
887.45        72.51923
887.85        72.78919
888.25        72.85101
888.65        72.76368
889.04        72.57201
889.44        72.36582
889.84        72.16644
890.24        71.95427
890.64        71.73961
891.04        71.54337
891.44        71.37822
891.84        71.26725
892.24        71.19416
892.64        71.11243
893.04        71.03191
893.44        70.98985
893.83        71.05038
894.23        71.26257
894.63        71.64539
895.03        72.12442
895.43        72.67548
895.83        73.27351
896.23        73.85104
896.63        74.36774
897.02        74.65067
897.42         74.4657
897.82        73.80879
898.22         72.8268
898.62        71.75031
899.01         70.9087
899.41        70.42564
899.81        70.20414
900.21        70.23209
900.61        70.46891
901.00        70.85328
901.40        71.38352
901.80        71.88293
902.20        72.06197
902.59        71.87627
902.99        71.38147
903.39        70.79044
903.79         70.4732
904.18        70.51239
904.58        70.79604
904.98         71.1913
905.38        71.49665
905.77        71.65395
906.17        71.76306
906.57        71.78711
906.96        71.66496
907.36         71.3984
907.76        71.00074
908.15         70.6993
908.55        70.83906
908.95        71.47423
909.34        72.50872
909.74        73.55184
910.14        74.04704
910.53        73.82436
910.93        73.07051
911.33        72.08016
911.72        71.30485
912.12        70.95114
912.52         70.9007
912.91        71.00767
913.31        71.06898
913.70        71.02914
914.10        70.93021
914.49        70.95597
914.89        71.30743
915.29        72.02309
915.68        73.00063
916.08        73.87815
916.47        74.15304
916.87        73.73239
917.26        72.76616
917.66        71.69238
918.05        71.01114
918.45         70.8589
918.84        71.14742
919.24        71.59317
919.64        71.83526
920.03        71.77473
920.42        71.49491
920.82        71.25341
921.21        71.38729
921.61        71.93421
922.00         72.7931
922.40        73.63181
922.79        74.03781
923.19        73.85797
923.58        73.27155
923.98        72.54104
924.37        71.97462
924.77        71.69051
925.16        71.56007
925.55        71.56446
925.95        71.64793
926.34        71.78439
926.74          71.983
927.13        72.12294
927.52        71.92913
927.92         71.4286
928.31        70.70421
928.70        70.00585
929.10        69.69733
929.49           69.84
929.89         70.2496
930.28        70.89703
930.67         71.5978
931.07        72.21566
931.46         72.8912
931.85        73.31683
932.24         73.0525
932.64         72.1309
933.03        70.66813
933.42        69.33826
933.82        69.13418
934.21        70.22898
934.60        72.38626
934.99        74.85629
935.39        76.25722
935.78        76.20444
936.17        74.96418
936.56         73.2533
936.96        72.22997
937.35        72.20418
937.74        72.83578
938.13        73.54146
938.53        73.42609
938.92        72.32446
939.31         70.6472
939.70        68.97354
940.09        68.08607
940.49        68.13373
940.88        68.88326
941.27        69.99689
941.66        70.86331
942.05        71.25121
942.44        71.35715
942.84        71.33068
943.23        71.39669
943.62        71.64344
944.01        71.92713
944.40        72.26799
944.79         72.7543
945.18        73.34066
945.57        73.97816
945.97        74.42528
946.36        74.36657
946.75        73.72144
947.14        72.71063
947.53        71.55043
947.92          70.529
948.31        69.76916
948.70         69.1943
949.09        68.98249
949.48        69.42223
949.87        70.50275
950.26        72.10925
950.65        73.75591
951.04        74.63266
951.43        74.51466
951.82        73.58678
952.21        72.28197
952.60        71.34892
952.99        71.04198
953.38        71.20107
953.77        71.58797
954.16         71.8163
954.55        71.76608
954.94         71.5355
955.33        71.35411
955.72        71.58517
956.11        72.28919
956.50        73.32906
956.89        74.22895
957.28        74.23392
957.66        73.19557
958.05        71.42769
958.44        69.58776
958.83        68.60327
959.22        68.65914
959.61         69.5155
960.00        70.64993
960.39         71.0917
960.78        70.55998
961.16        69.37548
961.55        68.11646
961.94        67.52258
962.33         67.7746
962.72        68.66061
963.11        69.81506
963.49        70.57877
963.88        70.61595
964.27        70.13231
964.66        69.54736
965.04        69.50593
965.43        70.09869
965.82        71.19182
966.21        72.28575
966.60        72.44601
966.98         71.4303
967.37        69.67226
967.76        67.93189
968.15        67.15514
968.53        67.51557
968.92        68.76244
969.31        70.34798
969.69         71.1764
970.08        70.80166
970.47        69.60593
970.86        68.29474
971.24        67.85966
971.63        68.50768
972.02        69.93906
972.40        71.63289
972.79        72.28927
973.17        71.60502
973.56        70.09031
973.95         68.4088
974.33        67.38596
974.72        67.21822
975.11        67.59053
975.49        68.37243
975.88        69.23033
976.26          70.005
976.65        70.73374
977.04         71.2136
977.42        71.08691
977.81        70.30493
978.19        68.95278
978.58        67.53027
978.96        66.84318
979.35        67.06358
979.74         68.0089
980.12        69.31979
980.51        70.06541
980.89          70.091
981.28        69.66489
981.66        69.09652
982.05        68.80806
982.43        68.93401
982.82        69.26017
983.20        69.90817
983.59        70.99277
983.97        72.52654
984.35         74.4332
984.74         76.0765
985.12        76.63442
985.51        75.86053
985.89         74.0278
986.28        71.93625
986.66        70.71705
987.04        70.71649
987.43        71.63265
987.81         72.9403
988.20        73.46548
988.58        72.87133
988.96        71.45555
989.35        69.85734
989.73        68.94907
990.12        68.91397
990.50        69.55019
990.88        70.27316
991.27        70.09941
991.65        68.86205
992.03        66.96326
992.42        65.28918
992.80        65.02132
993.18        66.38334
993.56         69.0084
993.95         72.0049
994.33         73.8211
994.71        73.75989
995.10        72.42196
995.48        70.52308
995.86        69.21432
996.24        68.80968
996.63        68.76304
997.01         69.1808
997.39        69.90915
997.77        70.74541
998.15        71.89568
998.54        72.69699
998.92        71.97887
999.30        69.80297
999.68         66.5788
1000.06        63.64089
1000.45        62.91228
1000.83        64.87128
1001.21        69.13427
1001.59        74.50438
1001.97        77.98817
1002.35        78.32777
1002.73        76.40092
1003.12         73.7282
1003.50        72.25895
1003.88        72.58125
1004.26          73.923
1004.64        75.92754
1005.02        77.82067
1005.40        79.08927
1005.78        80.20909
1006.16        80.52798
1006.54        78.94925
1006.92        75.63362
1007.30        71.02066
1007.69        66.87201
1008.07        65.58352
1008.45        67.79042
1008.83        73.04156
1009.21        79.74932
1009.59        83.87035
1009.97        83.46192
1010.35        79.61671
1010.73        74.19483
1011.11        69.91662
1011.49        67.63865
1011.86          66.645
1012.24        66.47874
1012.62        66.50931
1013.00        66.52255
1013.38        66.73928
1013.76        67.50622
1014.14        69.26009
1014.52        71.86294
1014.90        74.81023
1015.28        77.05158
1015.66        77.39701
1016.04        75.78007
1016.41        72.62908
1016.79        68.91669
1017.17        66.60694
1017.55        66.34174
1017.93        67.48493
1018.31         69.3661
1018.69        71.01471
1019.06        72.13924
1019.44        73.10896
1019.82        73.56246
1020.20        72.73547
1020.58        70.61475
1020.95        67.44265
1021.33        64.55438
1021.71        63.32608
1022.09        63.93244
1022.46        66.38605
1022.84        69.70533
1023.22        71.34302
1023.60         70.2898
1023.97        67.14092
1024.35        64.28339
1024.73         64.5506
