SpectraSmart Spectrum 2.9.0.0
--------- Device Information -----------
Spectrum Name :  反射率_0
Saving Time :  2024/04/26 22:36:43
Spectro-Module Model Name : SE2030-DUVN
Spectro-Module Serial Number : OS361AC55029948
Wavelength Start : 200
Wavelength End : 1025
Wavelength Unit : Wavelength(nm)
Spectrum Unit : Reflectance(%)
-----------Spectrum Setting ------------
Integration Time : 20ms
Average : 10
Boxcar : 0
Background removal :  enabled
linearity correction :  enabled
SC :  disabled
Intensity correction :  disabled
DWT denoise :  enabled
savitzky-golay :  disabled
FFT :  disabled
Running average :  disabled
Kalman :  disabled
High pass :  disabled
---------------BEGIN--------------------
Wavelength(nm)             Reflectance(%)
200.29               0
200.75        40.63989
201.21        37.06963
201.67        34.69844
202.13        34.19742
202.58        35.38605
203.04        38.68435
203.50        43.78126
203.96        48.33338
204.42        50.47276
204.88        50.05245
205.34        48.02671
205.80        47.15666
206.26        48.11844
206.72        49.54112
207.18        50.72446
207.64         51.1906
208.10        50.92988
208.55        50.65875
209.01        49.53492
209.47        47.01678
209.93        44.39759
210.39        42.68001
210.85        42.34645
211.31        43.81148
211.77        47.74799
212.23        57.02346
212.69        81.17752
213.14        126.3419
213.60         131.493
214.06        105.3667
214.52        85.50823
214.98        75.47503
215.44        69.90901
215.90        65.00594
216.36        61.15918
216.81        59.64938
217.27        61.10277
217.73         66.8204
218.19        74.95367
218.65        75.48857
219.11        66.59443
219.57        55.57631
220.02        48.79993
220.48        49.31173
220.94        56.37108
221.40        70.62554
221.86        91.38525
222.32        104.5093
222.77        98.03031
223.23        81.64828
223.69        65.64962
224.15        55.62908
224.61        50.55543
225.06        47.73329
225.52        46.44464
225.98        45.86219
226.44        45.65039
226.90         46.0844
227.36        46.66681
227.81        46.47948
228.27        45.54429
228.73        44.00469
229.19        42.73849
229.65        42.82201
230.10         44.2254
230.56        46.59825
231.02        48.85632
231.48        49.27842
231.93        47.66058
232.39        45.02523
232.85         42.5353
233.31         41.7354
233.77        42.73533
234.22         44.9197
234.68        47.50122
235.14         49.3653
235.60        50.13365
236.05        50.23354
236.51        49.68652
236.97        48.60429
237.43        47.24706
237.88        45.64205
238.34        44.43991
238.80        44.98665
239.26        47.83192
239.71        53.53263
240.17        61.63694
240.63        69.89195
241.08        76.45916
241.54        80.52002
242.00        83.08004
242.46        87.63199
242.91        97.07883
243.37         111.898
243.83        133.1694
244.28        153.7561
244.74        159.7933
245.20        149.7898
245.66        133.1911
246.11        118.9064
246.57        108.5347
247.03        99.95182
247.48        91.93117
247.94        84.39939
248.40        78.94231
248.85        75.63717
249.31        74.60806
249.77        75.26887
250.22        77.16811
250.68        80.24524
251.14        83.91743
251.59         85.6982
252.05         84.4727
252.51        81.92553
252.96        78.41943
253.42        74.77115
253.88        71.35706
254.33         67.8758
254.79        66.59638
255.25        69.13053
255.70        74.82697
256.16        82.75145
256.62        89.33478
257.07        89.29177
257.53        84.24211
257.99        77.54984
258.44        71.87663
258.90        69.66798
259.35        69.76986
259.81         71.3459
260.27        72.91491
260.72        72.79365
261.18        71.23854
261.63        68.72183
262.09        66.56451
262.55        65.56577
263.00        65.51469
263.46        66.10484
263.91        66.35476
264.37        65.41608
264.83        63.27407
265.28        60.40968
265.74        57.74919
266.19         56.0727
266.65        55.53447
267.11         55.6866
267.56        56.05388
268.02        55.90427
268.47        55.03592
268.93        53.75812
269.38         52.2576
269.84        50.87376
270.30        49.70547
270.75        48.60664
271.21        47.66653
271.66        46.97063
272.12        46.50143
272.57        46.21923
273.03        45.90203
273.48        45.16093
273.94        44.00867
274.39        42.55686
274.85        41.14719
275.31        40.10536
275.76        39.45618
276.22        39.09948
276.67        38.84464
277.13        38.52607
277.58         38.0313
278.04        37.46588
278.49        36.78274
278.95        36.03983
279.40        35.21964
279.86         34.3905
280.31        33.57262
280.77        32.91949
281.22        32.40073
281.68        32.03298
282.13        31.72416
282.59        31.43442
283.04        31.11179
283.50        30.80184
283.95        30.50025
284.41        30.22351
284.86        29.98485
285.32        29.80563
285.77        29.69316
286.22        29.72705
286.68        29.90231
287.13        30.14042
287.59         30.3969
288.04        30.55417
288.50        30.59894
288.95        30.52909
289.41        30.37158
289.86        30.09443
290.32        29.76605
290.77        29.41327
291.22        29.13084
291.68        29.03568
292.13        29.15815
292.59        29.50207
293.04        30.06306
293.50        30.84264
293.95        31.80442
294.40        32.93187
294.86        34.16221
295.31        35.38954
295.77        36.58897
296.22        37.76127
296.68        38.93874
297.13        40.16591
297.58        41.47307
298.04        42.85256
298.49        44.30553
298.95        45.85457
299.40        47.47577
299.85        49.15501
300.31         50.8674
300.76        52.54829
301.21        54.19028
301.67        55.83196
302.12        57.43051
302.58        59.01331
303.03        60.55055
303.48        62.06618
303.94        63.64635
304.39        65.35177
304.84        67.21368
305.30        69.21847
305.75         71.2212
306.20        73.08817
306.66        74.79945
307.11        76.35323
307.57        77.85353
308.02        79.35718
308.47        80.90239
308.93        82.45814
309.38         83.9603
309.83        85.43064
310.29        86.86928
310.74        88.27785
311.19        89.59889
311.65        90.70368
312.10        91.55684
312.55        92.19598
313.00        92.76863
313.46        93.51525
313.91         94.4649
314.36        95.57307
314.82        96.69436
315.27        97.60398
315.72        98.21343
316.18        98.60886
316.63         98.8647
317.08         99.1524
317.53        99.52901
317.99        99.93951
318.44        100.3528
318.89        100.6884
319.35        100.9257
319.80        101.1088
320.25        101.2837
320.70        101.5185
321.16        101.8271
321.61        102.2193
322.06         102.639
322.51        103.0058
322.97        103.2797
323.42         103.481
323.87        103.6849
324.32        104.0403
324.78         104.537
325.23        105.2043
325.68         105.818
326.13        106.0273
326.59        105.7632
327.04        105.1613
327.49          104.53
327.94        104.3869
328.39         104.852
328.85        105.7495
329.30        106.8695
329.75        107.5747
330.20        107.6702
330.66        107.3093
331.11        106.8396
331.56        106.7492
332.01        107.1839
332.46        107.9681
332.92        108.8317
333.37        109.4812
333.82        109.7418
334.27        109.7657
334.72        109.6733
335.17        109.6424
335.63        109.7491
336.08        109.9922
336.53        110.4035
336.98        111.0883
337.43        112.0348
337.88        113.1845
338.34        114.3806
338.79        115.4666
339.24        116.3041
339.69        116.9316
340.14        117.2971
340.59        117.3529
341.05        117.1705
341.50        116.7747
341.95        116.4235
342.40        116.5082
342.85        117.1052
343.30        118.1115
343.75        119.2664
344.20        120.1135
344.66         120.526
345.11        120.6349
345.56        120.5989
346.01        120.6847
346.46        120.9857
346.91        121.4122
347.36        121.9174
347.81        122.4498
348.26        122.9619
348.72        123.4519
349.17        123.8942
349.62        124.2788
350.07        124.5907
350.52        124.8474
350.97        124.9304
351.42        124.6665
351.87        124.0698
352.32        123.2184
352.77        122.4235
353.22        122.1308
353.67        122.4063
354.13        123.1153
354.58        123.9087
355.03         124.153
355.48        123.6908
355.93        122.7104
356.38        121.6003
356.83        120.9505
357.28        120.8792
357.73        121.1759
358.18        121.5111
358.63        121.3638
359.08        120.6006
359.53        119.4147
359.98        118.0634
360.43        116.9035
360.88        116.0357
361.33        115.3598
361.78         114.743
362.23        113.9884
362.68        113.0606
363.13        112.0464
363.58        111.0854
364.03        110.3699
364.48        109.9207
364.93        109.6472
365.38        109.3849
365.83        108.8864
366.28        108.0927
366.73        107.0864
367.18        105.9991
367.63        105.0335
368.08         104.249
368.53        103.5919
368.98        102.9953
369.43        102.3468
369.88        101.6184
370.33        100.8598
370.78        100.1187
371.23         99.4741
371.68        98.94407
372.13        98.47729
372.58         98.0493
373.03        97.62642
373.48        97.17715
373.93        96.70673
374.38        96.15121
374.83        95.41753
375.28        94.51182
375.72        93.45998
376.17        92.44637
376.62        91.63297
377.07         91.0723
377.52        90.74336
377.97        90.54112
378.42        90.29848
378.87        89.96433
379.32        89.54415
379.77        89.17686
380.22        89.07266
380.67        89.23224
381.11        89.60296
381.56        89.82718
382.01        89.41752
382.46        88.32909
382.91        86.81107
383.36        85.30764
383.81        84.41711
384.26        84.23725
384.71         84.5596
385.15        85.13194
385.60        85.50262
386.05        85.51342
386.50        85.29574
386.95        84.88443
387.40        84.34238
387.85        83.73682
388.29        82.99875
388.74        82.34738
389.19        81.88836
389.64        81.62802
390.09        81.52094
390.54        81.46441
390.98        81.25839
391.43        80.90781
391.88        80.47817
392.33        80.03304
392.78        79.65649
393.23        79.37392
393.67        79.12166
394.12        78.98398
394.57        78.91428
395.02        78.90611
395.47        78.98647
395.91        79.09383
396.36        79.04601
396.81        78.84224
397.26        78.55328
397.71        78.22783
398.15        77.93607
398.60        77.78819
399.05        77.56728
399.50        77.31045
399.95        77.36974
400.39        77.60952
400.84        77.28503
401.29        76.48175
401.74        75.96551
402.18        75.81353
402.63        75.58839
403.08        75.31714
403.53        75.19396
403.97        75.20686
404.42        75.30811
404.87        75.42209
405.32        75.39371
405.76        75.17879
406.21          74.932
406.66        74.70631
407.11        74.40881
407.55        74.18209
408.00        74.39532
408.45        74.92659
408.90        75.13799
409.34        74.90838
409.79        74.49133
410.24        74.05082
410.68        73.77151
411.13        73.71742
411.58        73.79308
412.03        73.89732
412.47         73.8978
412.92         73.7324
413.37        73.47765
413.81        73.22065
414.26        73.15887
414.71        73.29684
415.15        73.59765
415.60        73.93705
416.05        74.18661
416.49        74.29638
416.94        74.29024
417.39        74.22371
417.83        74.16707
418.28        74.15584
418.73        74.17547
419.17        74.21281
419.62        74.25265
420.07        74.27721
420.51        74.26154
420.96        74.27023
421.41        74.30582
421.85        74.33105
422.30        74.50796
422.74        74.65805
423.19        74.40263
423.64        73.81812
424.08        73.51372
424.53        73.55263
424.98        73.63061
425.42        73.77174
425.87        74.14114
426.31        74.62238
426.76        74.95048
427.21        75.05385
427.65        74.81102
428.10        74.32536
428.54        74.22093
428.99        74.37843
429.44        74.34289
429.88        74.18362
430.33        74.93553
430.77        76.10079
431.22        76.31861
431.66        75.59977
432.11        74.68004
432.56        73.98829
433.00        74.19038
433.45        75.25954
433.89        76.06411
434.34         76.0637
434.78        76.59318
435.23        76.41534
435.67        74.77341
436.12        74.61833
436.57        74.59737
437.01        75.41805
437.46        75.69487
437.90        75.38487
438.35        75.21387
438.79        75.35823
439.24        75.50298
439.68        75.63354
440.13        75.97511
440.57        76.46181
441.02        76.34756
441.46         75.7862
441.91        76.31712
442.35        77.45437
442.80        77.15091
443.24        75.73631
443.69        75.68789
444.13        76.88173
444.58        77.62572
445.02        77.28629
445.47        77.42062
445.91         77.8762
446.36        78.22755
446.80        78.43835
447.24        78.61235
447.69        78.74824
448.13        78.81506
448.58        78.83392
449.02        78.78476
449.47        78.68929
449.91        78.55104
450.36        78.41183
450.80        78.25874
451.25        78.15865
451.69        78.14599
452.13        78.23968
452.58        78.40914
453.02        78.60068
453.47        78.73593
453.91        78.77582
454.36        78.74999
454.80        78.64948
455.24        78.39565
455.69        78.00876
456.13        77.65791
456.58        77.46413
457.02        76.91971
457.46        76.59022
457.91        76.98509
458.35         77.8395
458.79        77.92693
459.24        77.25262
459.68        76.30352
460.13        75.41323
460.57        75.12936
461.01        75.65427
461.46        75.51431
461.90         76.1351
462.34        77.47243
462.79        77.15174
463.23         77.4817
463.68        77.51048
464.12        77.21227
464.56         76.5747
465.01        75.51254
465.45        74.44317
465.89        74.39295
466.34        75.06951
466.78        75.62551
467.22        76.00427
467.67        74.49861
468.11        74.66173
468.55        74.71584
468.99        75.47927
469.44        75.63157
469.88        75.14112
470.32        74.76973
470.77         74.6151
471.21        74.52126
471.65        74.50569
472.10        74.63434
472.54        74.80495
472.98        74.85266
473.42        74.73746
473.87        74.53846
474.31        74.27334
474.75        73.99805
475.20        73.78408
475.64        73.68851
476.08         73.6918
476.52        73.60627
476.97        73.39248
477.41        73.26656
477.85        73.23152
478.29        73.05287
478.74        73.13369
479.18        73.63379
479.62        73.45745
480.06        73.51215
480.50        73.41249
480.95        73.41199
481.39        73.26925
481.83        73.15866
482.27        72.84824
482.72        73.37093
483.16        73.29578
483.60        72.86156
484.04        73.30547
484.48        73.54189
484.93        73.63674
485.37        73.45301
485.81        72.73622
486.25        72.23171
486.69        71.56728
487.14         74.8372
487.58        74.79997
488.02        73.89594
488.46         72.4886
488.90        72.52988
489.34        73.75562
489.79        74.57015
490.23        73.74767
490.67        73.11977
491.11        72.67312
491.55        72.54875
491.99        72.70526
492.43        72.60867
492.88        72.26319
493.32        72.13828
493.76        72.25719
494.20        72.35664
494.64        72.41212
495.08        72.53934
495.52        72.67556
495.96        72.64829
496.41        72.48001
496.85        72.35576
497.29        72.21508
497.73        72.32336
498.17        71.78348
498.61        71.77004
499.05        71.94863
499.49        72.13512
499.93        71.76701
500.37        71.91576
500.82        72.32462
501.26        72.31403
501.70        71.94154
502.14        71.89999
502.58        72.19177
503.02        72.31186
503.46         72.2493
503.90        72.28692
504.34        72.39281
504.78         72.3978
505.22        72.28315
505.66         72.0759
506.10        71.87411
506.54        71.82957
506.98        71.86044
507.42        72.16608
507.86        71.82355
508.30        71.68526
508.74        71.85996
509.18        71.87009
509.62        71.81541
510.06        71.78055
510.50        71.77872
510.94        71.76658
511.38        71.75018
511.82        71.75014
512.26        71.76625
512.70        71.79991
513.14        71.83086
513.58        71.82179
514.02        71.76971
514.46        71.68929
514.90        71.61375
515.34        71.59679
515.78        71.64684
516.22        71.73928
516.66        71.84344
517.10         71.9106
517.54        71.92397
517.98        71.90096
518.42        71.84057
518.86        71.74209
519.30        71.61703
519.74        71.47041
520.18        71.34171
520.62        71.29041
521.06        71.33038
521.50        71.45229
521.93        71.61563
522.37        71.72771
522.81        71.77089
523.25        71.75584
523.69        71.72693
524.13         71.7598
524.57        71.86067
525.01        71.99351
525.45        72.09257
525.89         72.0542
526.32        71.85735
526.76        71.57417
527.20        71.26331
527.64        71.01911
528.08         70.8762
528.52        70.80421
528.96        70.81525
529.40        70.92576
529.83         71.1155
530.27        71.38052
530.71        71.62856
531.15        71.72064
531.59        71.62872
532.03        71.38406
532.46         71.0747
532.90        70.89611
533.34         70.8802
533.78        70.93687
534.22        70.98869
534.66        71.00095
535.09        70.89741
535.53        70.56198
535.97        70.09875
536.41        69.84841
536.85        69.85748
537.28        69.96419
537.72        70.12206
538.16        70.31074
538.60        70.49397
539.04        70.67268
539.47        70.81057
539.91        70.89951
540.35        70.92123
540.79        70.87577
541.22         70.7886
541.66        70.72956
542.10        70.70901
542.54        70.71751
542.97        70.71721
543.41        70.68162
543.85        70.59351
544.29        70.46994
544.72        70.33955
545.16        70.28717
545.60        70.31937
546.04        70.42719
546.47        70.55951
546.91        70.66696
547.35        70.73526
547.79        70.65976
548.22        70.51702
548.66        70.69802
549.10        71.14974
549.53        71.14644
549.97        70.75356
550.41        70.48944
550.84        70.45811
551.28        70.51532
551.72        70.58346
552.15        70.55386
552.59        70.69931
553.03        70.03416
553.46         70.5433
553.90        70.24532
554.34        70.32515
554.77        70.33024
555.21        70.48559
555.65        70.39071
556.08        70.66031
556.52          70.673
556.96        70.60101
557.39        70.63975
557.83        70.74379
558.27        70.48457
558.70        69.95839
559.14        69.78137
559.57        69.93678
560.01        70.01476
560.45        70.00959
560.88        70.15311
561.32        70.42133
561.75        70.65548
562.19        70.80424
562.63        70.63641
563.06        70.26108
563.50        70.22244
563.93        70.42403
564.37        70.43713
564.80        70.28165
565.24        70.08958
565.68        69.74368
566.11        70.45195
566.55        69.69263
566.98        69.53304
567.42        69.38237
567.85          69.556
568.29        70.00407
568.72        70.39419
569.16        70.75343
569.60        70.86338
570.03        70.92193
570.47        71.05034
570.90        71.39948
571.34        70.39984
571.77        70.66448
572.21        71.17113
572.64        70.91835
573.08        71.32895
573.51         70.7525
573.95         70.5374
574.38        70.79893
574.82        70.84667
575.25        70.45345
575.69        71.03761
576.12        71.09525
576.56        70.35409
576.99        70.26624
577.42        70.37774
577.86        70.84213
578.29        71.23875
578.73        70.93263
579.16        71.53716
579.60        70.92001
580.03        70.49651
580.47        70.41785
580.90        71.62444
581.33        71.44297
581.77        71.24401
582.20        70.52309
582.64        71.67803
583.07        71.54568
583.51        71.43815
583.94        71.11452
584.37        70.95776
584.81        71.02169
585.24        70.91559
585.68        70.61089
586.11        70.99762
586.54        70.95734
586.98        70.59997
587.41        70.03099
587.85        70.27189
588.28        70.19686
588.71        70.25568
589.15        69.75272
589.58        70.31812
590.01         70.2534
590.45        69.89668
590.88        70.80492
591.31        70.68211
591.75        70.26235
592.18         69.8689
592.61        69.61434
593.05        70.40746
593.48        70.13584
593.91         70.2662
594.35        70.90104
594.78        69.99908
595.21        69.41537
595.65        69.55368
596.08        70.86393
596.51         71.1985
596.94        70.41363
597.38        70.07026
597.81        70.10197
598.24        70.75032
598.68        70.30198
599.11        69.74557
599.54        71.18954
599.97        70.66743
600.41         70.4435
600.84        69.88049
601.27        70.47597
601.70         70.2753
602.14        70.60187
602.57        70.25996
603.00        69.82333
603.43        69.29996
603.87        70.01024
604.30        70.31951
604.73        70.58686
605.16         69.7869
605.60        69.63242
606.03        69.24504
606.46        69.16146
606.89        69.38428
607.32        70.05788
607.76        69.79122
608.19        69.97832
608.62        69.93562
609.05        69.76287
609.48        69.63208
609.92        70.29057
610.35        70.33559
610.78        69.49615
611.21        69.57742
611.64        69.75378
612.07        70.10401
612.50        69.97143
612.94        69.96399
613.37        69.95483
613.80        69.52189
614.23        68.87621
614.66        68.79757
615.09        69.26105
615.52        69.53868
615.96        69.51894
616.39        69.60939
616.82        69.80444
617.25        69.51971
617.68        69.26665
618.11        69.32181
618.54        69.73899
618.97        69.81361
619.40         69.5044
619.84        69.49149
620.27        69.19477
620.70        69.26197
621.13         69.4084
621.56        69.08411
621.99        68.36354
622.42        68.24175
622.85        68.55956
623.28        68.60892
623.71        68.24887
624.14        68.90521
624.57         69.3635
625.00        68.81709
625.43        69.35826
625.86        69.12479
626.29        68.90775
626.72        68.75143
627.15        68.81435
627.58        68.87023
628.01        68.84607
628.44         69.0405
628.87        68.97758
629.30        68.73212
629.73        68.73769
630.16        68.73878
630.59        68.72555
631.02        68.80413
631.45         68.9082
631.88        69.00242
632.31        69.06142
632.74        69.09756
633.17        69.09266
633.60        69.01209
634.03        68.85913
634.46        68.65499
634.89        68.43727
635.32         68.2569
635.75         68.1535
636.18        68.09829
636.61        68.09629
637.04        68.13978
637.47        68.21246
637.89        68.33724
638.32        68.45987
638.75        68.49054
639.18        68.40488
639.61        68.42178
640.04        68.22341
640.47        68.15625
640.90        68.13551
641.33        68.15971
641.76         68.2072
642.18        68.25562
642.61        68.27662
643.04        68.28034
643.47        68.28801
643.90        68.33246
644.33        68.41345
644.76        68.51611
645.18        68.59538
645.61        68.56252
646.04        68.41485
646.47        68.18916
646.90        67.95647
647.33        67.82003
647.75         67.7793
648.18        67.86477
648.61        68.06787
649.04        68.11111
649.47         67.9162
649.89        68.58416
650.32        68.25676
650.75        68.25525
651.18        68.08987
651.61        67.94857
652.03        67.95222
652.46        68.13759
652.89        68.42065
653.32        68.70006
653.74        68.96065
654.17        68.02951
654.60        68.80684
655.03        68.01277
655.46        66.90537
655.88        66.95059
656.31        68.65876
656.74        67.12798
657.16        71.71328
657.59        77.03715
658.02        70.55175
658.45        69.57961
658.87        68.45908
659.30          68.558
659.73        68.37578
660.15         69.8185
660.58        68.24535
661.01        68.05428
661.44        68.06461
661.86        67.89816
662.29         67.5151
662.72        67.92577
663.14        67.81098
663.57         67.8008
664.00        67.60885
664.42        67.68422
664.85        68.03552
665.27        68.41916
665.70        68.67992
666.13        68.74914
666.55        68.60251
666.98        68.18655
667.41         67.6303
667.83        67.59166
668.26        67.42474
668.69        67.62901
669.11        67.91299
669.54        68.14079
669.96        68.26566
670.39         68.3242
670.82        68.33858
671.24        68.33643
671.67         68.3333
672.09        68.24706
672.52        68.11266
672.94        68.14724
673.37        68.12646
673.80        68.03884
674.22        67.86443
674.65        67.78276
675.07        67.82337
675.50        67.87521
675.92        67.90894
676.35         67.9045
676.77        67.85306
677.20        67.75573
677.62        67.65874
678.05        67.63671
678.47        67.70005
678.90        67.83188
679.32        67.97237
679.75        68.03338
680.17        67.99172
680.60        67.89668
681.02        67.80394
681.45        67.76059
681.87        67.82138
682.30        68.01723
682.72        68.28658
683.15        68.46284
683.57        68.49099
684.00        68.30193
684.42        68.00909
684.85        67.90767
685.27        68.02989
685.70        68.24694
686.12        68.45607
686.54         68.5661
686.97        68.53959
687.39        68.39334
687.82        68.18762
688.24        68.09436
688.66        68.11753
689.09        68.09824
689.51        68.04133
689.94        68.03357
690.36        68.07607
690.78        68.10492
691.21        68.13505
691.63        68.18584
692.06        68.25293
692.48        68.43369
692.90        68.49393
693.33        68.52217
693.75        68.45066
694.17        68.27343
694.60          68.075
695.02        68.02532
695.44        68.12948
695.87        68.29429
696.29        68.43485
696.71        68.33243
697.14        68.02777
697.56        67.79211
697.98        67.71877
698.41          67.728
698.83        67.82051
699.25         68.1198
699.68        68.47179
700.10         68.6118
700.52         68.4647
700.94        68.12525
701.37        67.75094
701.79         67.6031
702.21        67.73766
702.64        68.05598
703.06        68.44083
703.48        68.68106
703.90         68.7127
704.33        68.60754
704.75        68.42552
705.17        68.25028
705.59         68.1256
706.01        68.02404
706.44         67.9682
706.86        68.01601
707.28        68.15549
707.70         68.3797
708.12        68.64027
708.55        68.82227
708.97        68.90985
709.39         68.9574
709.81        68.96799
710.23        68.93478
710.66        68.86456
711.08        68.77962
711.50        68.68211
711.92        68.58683
712.34         68.5052
712.76        68.45593
713.19         68.4109
713.61        68.35782
714.03        68.28452
714.45        68.20307
714.87        68.17747
715.29        68.30826
715.71         68.5983
716.13        68.99635
716.56        69.37778
716.98        69.62524
717.40        69.65347
717.82        69.50829
718.24        69.24508
718.66        68.95752
719.08        68.70332
719.50        68.48295
719.92        68.32799
720.34        68.27995
720.76        68.33919
721.19        68.47153
721.61        68.68605
722.03        68.93771
722.45        69.18852
722.87        69.42759
723.29        69.57412
723.71         69.5085
724.13        69.22495
724.55        68.77486
724.97        68.28902
725.39        67.98763
725.81        67.93377
726.23         68.0496
726.65        68.25541
727.07        68.56646
727.49        68.68821
727.91         68.8509
728.33        68.99223
728.75        69.13837
729.17        69.28585
729.59        69.40235
730.01        69.47734
730.43        69.50394
730.85        69.48014
731.27        69.41691
731.69        69.31376
732.10        69.16416
732.52        68.97845
732.94        68.78331
733.36        68.63927
733.78        68.51469
734.20        68.41956
734.62        68.57741
735.04        69.01969
735.46        68.60655
735.88        69.36912
736.30        69.26794
736.72        69.52273
737.13        69.67224
737.55        69.80826
737.97        69.88489
738.39         69.8257
738.81          69.369
739.23        68.69035
739.65        68.58774
740.06        69.00487
740.48        69.22591
740.90        69.19584
741.32        69.36694
741.74        69.71391
742.16         69.9379
742.57        70.00287
742.99        69.97108
743.41         69.8662
743.83        69.71065
744.25         69.5285
744.67        69.30545
745.08         69.1153
745.50        69.05266
745.92        69.13955
746.34         69.3472
746.75         69.5758
747.17        69.63001
747.59        69.47175
748.01         69.1994
748.42        68.90902
748.84        68.65282
749.26        68.52393
749.68        68.70398
750.09        69.06967
750.51        69.21786
750.93        69.09408
751.35        68.90672
751.76        68.71288
752.18        68.54359
752.60         68.4241
753.01        68.35727
753.43        68.32163
753.85        68.31696
754.27        68.34246
754.68        68.40941
755.10        68.50764
755.52        68.61598
755.93        68.71996
756.35        68.80257
756.77        68.89743
757.18        69.01965
757.60        69.17048
758.02        69.41807
758.43        69.67966
758.85        69.48019
759.26        69.57233
759.68        69.16019
760.10        68.57784
760.51        68.75854
760.93        69.68054
761.34        68.85245
761.76        69.12315
762.18        69.05814
762.59        69.50336
763.01        69.73912
763.42         69.7877
763.84        69.82594
764.26         69.8308
764.67        69.78523
765.09          69.714
765.50        69.37356
765.92        68.93565
766.33        68.89925
766.75        69.16244
767.16        69.24538
767.58        69.04826
768.00        68.85313
768.41        68.77794
768.83         68.8876
769.24        69.12704
769.66         69.3771
770.07        69.53571
770.49         69.3181
770.90        68.91329
771.32        69.20123
771.73        70.04295
772.15        70.30626
772.56        69.93657
772.97        69.54497
773.39        69.27956
773.80        69.12159
774.22        69.09899
774.63        69.26254
775.05        69.48682
775.46        69.64082
775.88        69.64933
776.29        69.57632
776.70        69.47204
777.12        69.44211
777.53        69.52443
777.95        69.64066
778.36        69.77131
778.77        69.84732
779.19        69.86671
779.60        69.87497
780.02        69.85449
780.43        69.83587
780.84        69.84733
781.26        69.65207
781.67        69.40334
782.09        69.81567
782.50        70.68301
782.91        70.83257
783.33        70.27434
783.74        70.06215
784.15        70.22775
784.57        70.13539
784.98        69.86989
785.39        69.86182
785.81        70.13707
786.22         70.5753
786.63        71.02128
787.04        71.22523
787.46        71.14555
787.87         70.8473
788.28        70.49173
788.70        70.29041
789.11        70.27739
789.52        70.44938
789.93        70.70028
790.35        70.77567
790.76        70.66496
791.17        70.56641
791.58        70.55682
792.00        70.52448
792.41        70.48984
792.82        70.72562
793.23        71.08312
793.65        70.78738
794.06        70.07234
794.47        70.14042
794.88        70.84473
795.29          71.268
795.71        70.85616
796.12        70.73037
796.53        70.82726
796.94        70.86513
797.35        70.89054
797.76        71.19091
798.18        71.63783
798.59        71.84346
799.00        71.73492
799.41        71.48769
799.82        71.21748
800.23        71.06205
800.64        71.06815
801.06        71.16111
801.47          71.305
801.88        71.34316
802.29        71.23157
802.70        71.02149
803.11        70.76444
803.52        70.53979
803.93        70.39706
804.34        70.32368
804.75        70.32384
805.17        70.45239
805.58        70.74544
805.99        70.96807
806.40         71.1219
806.81        71.67619
807.22        72.38216
807.63        72.16626
808.04        71.20103
808.45        70.71678
808.86        70.83333
809.27        70.91348
809.68        70.86082
810.09        70.81857
810.50        70.76356
810.91        70.65668
811.32        70.60638
811.73        70.77943
812.14        71.19283
812.55         71.7976
812.96        72.38354
813.37        72.56039
813.78        72.23759
814.19        71.56467
814.60        70.80576
815.01        70.32246
815.42        70.19508
815.83        70.31902
816.24        70.59319
816.65        70.81365
817.05         70.9024
817.46        70.91038
817.87        70.87016
818.28        70.77306
818.69        70.63683
819.10        70.43117
819.51        70.27026
819.92        70.37371
820.33        70.76959
820.74        71.38376
821.14         72.0042
821.55        72.27966
821.96        72.13529
822.37        71.68008
822.78        71.09776
823.19        70.70921
823.60        70.62593
824.00         70.7811
824.41        71.05217
824.82        71.33324
825.23        71.55299
825.64        71.75045
826.04        71.90236
826.45        71.92253
826.86        71.82018
827.27        71.61357
827.68        71.35563
828.08        71.17953
828.49        71.07604
828.90        71.03365
829.31        71.07227
829.72        71.21663
830.12        71.47396
830.53        71.77779
830.94        72.01669
831.35        71.95197
831.75        71.56077
832.16        70.90567
832.57        70.19965
832.97        69.75853
833.38        69.67438
833.79        69.84457
834.20        70.18568
834.60        70.55657
835.01        70.89501
835.42        71.27266
835.82         71.6339
836.23        71.79954
836.64        71.76674
837.04        71.53129
837.45        71.28735
837.86        71.43063
838.26        72.05312
838.67        73.00461
839.08        73.93269
839.48        74.15987
839.89        73.52569
840.29        72.29016
840.70        71.01582
841.11        70.32613
841.51        70.38084
841.92        70.96434
842.33        71.83951
842.73        72.58141
843.14        72.90831
843.54         72.9922
843.95        72.91679
844.35        72.87706
844.76        72.91428
845.17        72.95248
845.57        72.94336
845.98        72.79601
846.38         72.5258
846.79        72.18283
847.19        71.86274
847.60        71.67796
848.00        71.66775
848.41         71.7651
848.81        71.93556
849.22        72.03564
849.62         72.0627
850.03        72.04144
850.43        71.99414
850.84        71.88721
851.24        71.77749
851.65        71.60473
852.05        71.53322
852.46        71.73129
852.86        72.20847
853.27         72.8775
853.67        73.46947
854.07        73.73969
854.48        73.61694
854.88        73.20718
855.29        72.59666
855.69        72.09358
856.10        71.74699
856.50        71.56911
856.90        71.48774
857.31        71.39925
857.71        71.31496
858.12         71.1945
858.52        71.11206
858.92        71.05924
859.33        71.01273
859.73        71.02045
860.13        70.93999
860.54         70.5712
860.94        69.94602
861.34         69.1192
861.75         68.3631
862.15        68.16122
862.55        68.58959
862.96        69.47367
863.36        70.52151
863.76         71.1368
864.17        71.12332
864.57        70.67078
864.97        69.96478
865.38        69.32007
865.78        68.87964
866.18        68.54502
866.58        68.32174
866.99        68.22528
867.39         68.2734
867.79        68.49139
868.19        68.81168
868.60        69.07712
869.00        69.27318
869.40        69.38305
869.80        69.46587
870.21        69.64672
870.61        69.99184
871.01        70.39108
871.41        70.66647
871.81        70.57565
872.22        70.09081
872.62        69.29703
873.02        68.44888
873.42        67.97614
873.82        68.00508
874.22        68.41827
874.63        68.95967
875.03        69.23272
875.43        69.10843
875.83         68.6973
876.23        68.19883
876.63        67.91802
877.03        67.93831
877.44        68.15189
877.84        68.39307
878.24         68.4043
878.64        68.09103
879.04        67.41843
879.44        66.72041
879.84        66.59433
880.24        67.09786
880.64        68.00488
881.04        68.86195
881.44        68.94695
881.84        68.11679
882.24        66.64537
882.65        65.06776
883.05        64.20763
883.45        64.28584
883.85        65.05997
884.25        66.18806
884.65        67.07378
885.05        67.49955
885.45        67.63744
885.85        67.62092
886.25        67.65857
886.65        67.81496
887.05        67.97467
887.45         68.1052
887.85        68.18639
888.25        68.20393
888.65        68.20563
889.04        68.15665
889.44        68.00966
889.84         67.7599
890.24        67.42281
890.64        67.10947
891.04        67.00852
891.44        67.14708
891.84        67.45952
892.24        67.79131
892.64        67.89955
893.04        67.74918
893.44        67.44578
893.83        67.13004
894.23        66.98083
894.63        67.07857
895.03        67.33005
895.43        67.72682
895.83        68.26036
896.23        68.86658
896.63        69.51859
897.02        70.01595
897.42        70.06641
897.82        69.63594
898.22         68.8567
898.62        67.96757
899.01        67.32595
899.41        67.05261
899.81        67.03701
900.21        67.21759
900.61        67.48083
901.00         67.7535
901.40        68.05491
901.80        68.29162
902.20        68.30573
902.59        68.08372
902.99        67.65506
903.39        67.13749
903.79        66.74006
904.18        66.52129
904.58        66.43562
904.98        66.46915
905.38        66.59426
905.77        66.79086
906.17        67.10085
906.57        67.40096
906.96        67.48499
907.36        67.30482
907.76        66.90967
908.15        66.56892
908.55        66.70072
908.95        67.37727
909.34        68.46679
909.74        69.55695
910.14        70.05384
910.53        69.78638
910.93        68.98158
911.33        67.93922
911.72        67.11435
912.12        66.71806
912.52        66.61179
912.91         66.7131
913.31         66.9175
913.70        67.16693
914.10        67.47256
914.49        67.85549
914.89        68.24068
915.29        68.61433
915.68        68.97395
916.08        69.18078
916.47        69.10721
916.87        68.76565
917.26        68.18065
917.66         67.6403
918.05        67.44101
918.45        67.64401
918.84        68.21452
919.24        68.85267
919.64        69.15502
920.03        69.02731
920.42        68.56464
920.82         68.0837
921.21        68.02705
921.61        68.47075
922.00        69.29463
922.40        70.18945
922.79        70.75484
923.19        70.81406
923.58        70.52685
923.98         70.0613
924.37        69.59497
924.77        69.22399
925.16        68.85223
925.55        68.54223
925.95        68.39218
926.34        68.42797
926.74        68.62183
927.13        68.80737
927.52        68.63193
927.92        68.09461
928.31        67.30589
928.70        66.52744
929.10        66.13704
929.49        66.19928
929.89        66.52072
930.28        67.06319
930.67        67.63869
931.07        68.12096
931.46        68.66582
931.85        68.98891
932.24        68.67963
932.64        67.77605
933.03        66.37839
933.42        65.15308
933.82        65.08771
934.21        66.33998
934.60        68.66309
934.99        71.26791
935.39        72.70203
935.78        72.56688
936.17         71.1685
936.56        69.26564
936.96        68.08592
937.35        67.96881
937.74           68.55
938.13        69.28976
938.53        69.35489
938.92        68.56199
939.31        67.28603
939.70        65.96844
940.09        65.18867
940.49        65.06256
940.88        65.40839
941.27        66.02781
941.66        66.57412
942.05        66.90474
942.44        67.14552
942.84        67.33311
943.23        67.50584
943.62        67.69231
944.01        67.80608
944.40        67.92785
944.79         68.2338
945.18        68.71868
945.57        69.32115
945.97        69.75886
946.36        69.65456
946.75        68.91398
947.14        67.75653
947.53        66.50439
947.92         65.5985
948.31        65.16755
948.70        65.09658
949.09        65.33633
949.48        65.78594
949.87        66.36214
950.26         67.0759
950.65        67.79023
951.04        68.28029
951.43        68.47063
951.82        68.36501
952.21        68.07305
952.60        67.81107
952.99         67.6671
953.38        67.63297
953.77        67.63675
954.16        67.55616
954.55        67.35788
954.94        67.04626
955.33        66.79675
955.72        66.89573
956.11        67.38842
956.50        68.21107
956.89        68.93252
957.28        68.84205
957.66        67.81201
958.05        66.12366
958.44        64.43452
958.83        63.68602
959.22        64.05044
959.61        65.27824
960.00        66.77421
960.39        67.42506
960.78        66.91131
961.16        65.60083
961.55        64.16434
961.94        63.48768
962.33        63.78853
962.72        64.81339
963.11        66.17018
963.49        67.13058
963.88        67.32423
964.27        66.97877
964.66        66.47417
965.04         66.4037
965.43        66.84317
965.82        67.62508
966.21        68.35015
966.60        68.29316
966.98         67.2864
967.37        65.75623
967.76        64.22374
968.15        63.29009
968.53        63.09217
968.92        63.44213
969.31        64.17818
969.69        64.97404
970.08        65.53954
970.47        65.90938
970.86        66.14623
971.24        66.36881
971.63        66.61198
972.02        66.83983
972.40        66.84683
972.79        66.09219
973.17        64.66295
973.56        62.84665
973.95        61.28553
974.33         60.7579
974.72        61.37642
975.11        62.92249
975.49        64.88646
975.88        66.16008
976.26        66.37231
976.65         65.7283
977.04        64.68862
977.42        63.98402
977.81        63.79948
978.19        63.90952
978.58        64.17424
978.96        64.33857
979.35        64.28534
979.74        64.14547
980.12        64.06767
980.51         64.0427
980.89        64.21291
981.28        64.53275
981.66        64.91077
982.05        65.21372
982.43        65.43425
982.82        65.54152
983.20        65.86068
983.59        66.86478
983.97         68.6764
984.35        71.08466
984.74         73.2585
985.12        74.06201
985.51        73.18385
985.89        71.05408
986.28        68.63361
986.66        67.28645
987.04        67.41698
987.43        68.60013
987.81         70.3283
988.20        71.45044
988.58        71.53806
988.96        70.87232
989.35        69.75617
989.73         68.5797
990.12        67.49184
990.50        66.41897
990.88        65.31193
991.27        64.20434
991.65        63.19652
992.03        62.35786
992.42        61.97174
992.80        62.35138
993.18        63.51938
993.56        65.38379
993.95        67.31802
994.33        68.31434
994.71        67.93624
995.10        66.56673
995.48        64.89458
995.86        64.05436
996.24        64.31487
996.63        65.22367
997.01        66.59011
997.39        67.62971
997.77        67.95261
998.15        67.90616
998.54         67.3924
998.92        66.10816
999.30        64.26186
999.68        62.00828
1000.06        60.13731
1000.45        59.76818
1000.83        61.17953
1001.21        64.14671
1001.59        67.94541
1001.97        70.65625
1002.35        71.42126
1002.73        70.77843
1003.12        69.50544
1003.50         68.5403
1003.88        68.28421
1004.26        68.26465
1004.64        68.65985
1005.02        69.82922
1005.40        71.63158
1005.78        74.02425
1006.16        75.88945
1006.54        75.42088
1006.92        72.53401
1007.30        68.02686
1007.69        63.44024
1008.07          60.756
1008.45        60.59381
1008.83        62.40647
1009.21        65.67057
1009.59        68.85719
1009.97        70.87928
1010.35        72.01939
1010.73        71.97265
1011.11         70.4332
1011.49        67.77525
1011.86        64.28946
1012.24        60.96516
1012.62        59.07161
1013.00        58.81214
1013.38        59.91555
1013.76        61.99216
1014.14         63.8574
1014.52        64.81844
1014.90        65.12141
1015.28         64.8816
1015.66         64.3661
1016.04        63.70405
1016.41        62.69661
1016.79        61.57152
1017.17        60.91618
1017.55         60.8781
1017.93        61.39411
1018.31         62.0122
1018.69         61.9876
1019.06         61.1839
1019.44        59.74721
1019.82        58.14567
1020.20        57.53994
1020.58        58.25655
1020.95        59.61734
1021.33         61.1028
1021.71        62.05431
1022.09        62.39664
1022.46        62.61148
1022.84        62.23026
1023.22        60.44462
1023.60        57.44159
1023.97        53.52394
1024.35        50.74155
1024.73        51.38195
