SpectraSmart Spectrum 2.9.0.0
--------- Device Information -----------
Spectrum Name :  反射率_0
Saving Time :  2024/04/26 22:45:30
Spectro-Module Model Name : SE2030-DUVN
Spectro-Module Serial Number : OS361AC55029948
Wavelength Start : 200
Wavelength End : 1025
Wavelength Unit : Wavelength(nm)
Spectrum Unit : Reflectance(%)
-----------Spectrum Setting ------------
Integration Time : 20ms
Average : 10
Boxcar : 0
Background removal :  enabled
linearity correction :  enabled
SC :  disabled
Intensity correction :  disabled
DWT denoise :  enabled
savitzky-golay :  disabled
FFT :  disabled
Running average :  disabled
Kalman :  disabled
High pass :  disabled
---------------BEGIN--------------------
Wavelength(nm)             Reflectance(%)
200.29               0
200.75        48.18534
201.21        46.38462
201.67        45.05047
202.13        44.39641
202.58        44.30517
203.04        45.16031
203.50         47.1926
203.96        50.15311
204.42        53.71595
204.88        57.71625
205.34        61.48577
205.80        64.36417
206.26        65.79101
206.72        65.14129
207.18        63.72668
207.64        62.91952
208.10        62.82765
208.55        64.12218
209.01        64.28479
209.47        58.14999
209.93        47.81151
210.39        38.84297
210.85        34.10896
211.31        34.19614
211.77        39.34692
212.23        53.65016
212.69        92.49398
213.14        165.1549
213.60        174.5968
214.06        132.6009
214.52        100.0146
214.98         82.6907
215.44        72.15018
215.90        62.65606
216.36        54.51135
216.81        49.38474
217.27        47.99754
217.73        51.22292
218.19        58.36295
218.65        62.29589
219.11        59.69147
219.57        54.40939
220.02        51.01853
220.48        52.63387
220.94        59.10435
221.40        70.99311
221.86        87.34921
222.32        96.06503
222.77        88.09219
223.23        72.58839
223.69        58.48648
224.15        50.32488
224.61         46.7916
225.06        45.27561
225.52        44.99881
225.98         45.0734
226.44         45.1713
226.90          45.639
227.36         45.7489
227.81        44.29258
228.27         41.4964
228.73        37.84764
229.19        34.78306
229.65        33.93006
230.10        35.22376
230.56        38.05757
231.02        41.00534
231.48        41.77256
231.93         40.0203
232.39        36.98121
232.85        33.98724
233.31        32.76312
233.77        33.49948
234.22        35.55546
234.68        38.18774
235.14        40.38127
235.60        41.80521
236.05        42.89012
236.51        43.72127
236.97        44.39293
237.43          45.003
237.88        45.38078
238.34        45.96347
238.80        47.91169
239.26        51.78675
239.71        58.30219
240.17        66.78152
240.63        74.51936
241.08        79.50493
241.54        80.78442
242.00        80.75774
242.46        85.56708
242.91        99.71169
243.37        125.7531
243.83        164.6565
244.28        198.8481
244.74        201.7065
245.20        172.9844
245.66        135.9074
246.11         111.512
246.57        100.8256
247.03        97.66728
247.48        96.92858
247.94        91.71055
248.40        83.10176
248.85        75.28096
249.31        70.12704
249.77        67.68062
250.22         67.1207
250.68        67.43199
251.14        68.46725
251.59        69.83231
252.05         71.2367
252.51        73.33818
252.96        74.11472
253.42        72.18703
253.88        68.32449
254.33        63.23329
254.79        60.59581
255.25        63.45729
255.70         71.1202
256.16        82.03231
256.62        91.43344
257.07        92.18964
257.53        86.15202
257.99        77.88667
258.44        70.99479
258.90         68.5417
259.35         69.1693
259.81        71.58772
260.27         73.9517
260.72        74.12292
261.18        72.32999
261.63         69.3081
262.09        66.52544
262.55        64.89034
263.00        64.24472
263.46        64.26134
263.91        64.02779
264.37        62.78936
264.83        60.53539
265.28        57.70911
265.74        55.15565
266.19        53.56049
266.65        53.05165
267.11        53.20358
267.56        53.56686
268.02         53.4538
268.47        52.66385
268.93        51.46907
269.38        50.02477
269.84        48.62873
270.30        47.36992
270.75        46.12393
271.21        44.98985
271.66        44.06533
272.12        43.35116
272.57         42.8238
273.03        42.29351
273.48        41.42527
273.94        40.23886
274.39        38.82618
274.85        37.51039
275.31        36.59575
275.76        36.09531
276.22        35.91344
276.67        35.81511
277.13        35.56579
277.58        35.05296
278.04        34.38771
278.49        33.62381
278.95        32.96187
279.40        32.39501
279.86        31.93416
280.31        31.45557
280.77        30.89887
281.22        30.22652
281.68        29.54738
282.13        28.93584
282.59        28.57109
283.04        28.43835
283.50        28.49985
283.95        28.63369
284.41        28.66002
284.86        28.53515
285.32        28.34489
285.77        28.16996
286.22        28.19147
286.68        28.43292
287.13        28.78041
287.59        29.16477
288.04        29.43657
288.50          29.573
288.95        29.59302
289.41        29.53246
289.86        29.36953
290.32        29.17274
290.77        28.95737
291.22        28.81726
291.68        28.87272
292.13        29.15146
292.59        29.65824
293.04        30.37306
293.50         31.2696
293.95        32.31412
294.40        33.50971
294.86        34.82364
295.31        36.19608
295.77        37.61355
296.22        39.05608
296.68        40.54877
297.13        42.12487
297.58        43.79916
298.04        45.56041
298.49        47.37172
298.95        49.19637
299.40        51.00428
299.85          52.806
300.31        54.62249
300.76        56.46201
301.21        58.33379
301.67        60.24399
302.12         62.1354
302.58        64.01768
303.03        65.83938
303.48        67.63335
303.94        69.43862
304.39        71.23747
304.84        73.06404
305.30         74.9325
305.75        76.78397
306.20        78.62734
306.66        80.46357
307.11        82.23296
307.57        83.95201
308.02        85.53316
308.47        86.98613
308.93        88.33739
309.38        89.57202
309.83        90.78996
310.29        92.02311
310.74        93.25166
311.19        94.42752
311.65        95.44101
312.10        96.24928
312.55        96.87783
313.00        97.44569
313.46        98.14426
313.91        98.98517
314.36        99.93924
314.82        100.8533
315.27        101.4981
315.72        101.8043
316.18        101.8737
316.63        101.8393
317.08        101.9599
317.53        102.3056
317.99        102.7932
318.44        103.3326
318.89         103.742
319.35         103.965
319.80        104.0671
320.25        104.1171
320.70        104.2248
321.16        104.4202
321.61        104.7015
322.06         105.009
322.51        105.2613
322.97          105.42
323.42        105.5126
323.87        105.6271
324.32        105.9265
324.78        106.4004
325.23        107.0756
325.68        107.7034
326.13          107.89
326.59         107.562
327.04        106.8748
327.49        106.1673
327.94        106.0071
328.39        106.5234
328.85         107.512
329.30        108.7571
329.75        109.6047
330.20        109.8374
330.66        109.6095
331.11        109.2106
331.56        109.0377
332.01        109.2268
332.46         109.626
332.92        110.0736
333.37        110.4698
333.82        110.6991
334.27        110.8741
334.72        111.0075
335.17        111.0875
335.63        111.1344
336.08        111.1984
336.53        111.4025
336.98        112.0027
337.43        113.0307
337.88        114.3819
338.34         115.808
338.79        117.0073
339.24        117.7945
339.69        118.2401
340.14        118.3957
340.59        118.3795
341.05        118.2977
341.50        118.1285
341.95        117.9869
342.40        118.0454
342.85        118.3475
343.30        118.8642
343.75        119.5181
344.20        120.1543
344.66         120.708
345.11         121.199
345.56        121.5937
346.01        121.8561
346.46        122.0029
346.91        122.0521
347.36        122.0704
347.81        122.1813
348.26        122.3992
348.72        122.6624
349.17        122.9433
349.62        123.2317
350.07        123.4985
350.52        123.7768
350.97        123.8875
351.42        123.5491
351.87        122.7586
352.32        121.6205
352.77        120.5332
353.22        120.0769
353.67        120.3435
354.13        121.1609
354.58        122.0927
355.03        122.3627
355.48         121.775
355.93        120.5564
356.38        119.1885
356.83        118.3993
357.28        118.3328
357.73        118.7376
358.18        119.1771
358.63        118.9583
359.08        117.9194
359.53        116.3191
359.98         114.553
360.43        113.1816
360.88        112.3411
361.33        111.8587
361.78         111.475
362.23        110.7908
362.68        109.7206
363.13         108.423
363.58        107.1268
364.03        106.1611
364.48        105.5863
364.93         105.261
365.38        104.9919
365.83        104.4871
366.28        103.6687
366.73         102.646
367.18        101.5297
367.63        100.4838
368.08        99.56604
368.53         98.7222
368.98        97.94493
369.43        97.22278
369.88        96.54308
370.33        95.92865
370.78        95.33758
371.23        94.69424
371.68        93.98868
372.13        93.23015
372.58        92.49778
373.03        91.92331
373.48        91.51609
373.93        91.21561
374.38        90.90004
374.83         90.3848
375.28        89.62722
375.72        88.67227
376.17        87.66969
376.62         86.7346
377.07        85.92571
377.52        85.24222
377.97        84.65134
378.42        84.11102
378.87        83.61429
379.32         83.1488
379.77        82.81093
380.22        82.73609
380.67        82.90209
381.11        83.27168
381.56        83.51532
382.01        83.18334
382.46        82.22783
382.91        80.86503
383.36        79.49278
383.81        78.65365
384.26        78.43957
384.71        78.66535
385.15        79.11372
385.60        79.39571
386.05        79.37146
386.50        79.14894
386.95        78.75431
387.40        78.23569
387.85        77.64689
388.29        76.92896
388.74         76.2655
389.19        75.72079
389.64        75.30529
390.09        74.99822
390.54        74.74294
390.98        74.42268
391.43        74.05538
391.88        73.66687
392.33        73.30397
392.78        73.01417
393.23        72.80008
393.67        72.64536
394.12        72.56605
394.57        72.34942
395.02        72.02253
395.47        71.81281
395.91        71.72994
396.36        71.56371
396.81        71.34048
397.26         71.1892
397.71        71.07095
398.15        70.89609
398.60        70.74849
399.05        70.42876
399.50        70.03314
399.95        70.12708
400.39        70.55649
400.84        70.20835
401.29        69.19972
401.74        68.83413
402.18         69.0706
402.63        68.70815
403.08        67.86153
403.53        67.48737
403.97        67.62251
404.42        67.82405
404.87        67.95257
405.32        67.92765
405.76         67.6902
406.21        67.35321
406.66         67.0221
407.11        66.74271
407.55        66.63749
408.00        66.91205
408.45        67.41853
408.90        67.60989
409.34        67.36036
409.79        66.86379
410.24        66.29668
410.68        65.89017
411.13        65.71458
411.58         65.6666
412.03        65.65874
412.47        65.58251
412.92         65.3873
413.37        65.14481
413.81        64.92548
414.26        64.88975
414.71         65.0349
415.15        65.32555
415.60        65.64939
416.05        65.89001
416.49        66.00021
416.94          65.999
417.39        65.92792
417.83        65.84161
418.28        65.76856
418.73        65.69307
419.17         65.6228
419.62        65.57404
420.07        65.53906
420.51        65.49941
420.96        65.47672
421.41        65.41028
421.85        65.26897
422.30        65.23661
422.74        65.21949
423.19         64.9483
423.64        64.50719
424.08        64.45185
424.53        64.76042
424.98        64.94545
425.42        64.97481
425.87        65.17953
426.31         65.4809
426.76        65.40343
427.21        65.01866
427.65        64.81932
428.10        64.82022
428.54         64.7912
428.99        64.77672
429.44        64.65446
429.88        64.56031
430.33        65.10201
430.77        65.94871
431.22        66.30322
431.66        66.06693
432.11        65.42682
432.56         64.6821
433.00        64.57775
433.45         65.2235
433.89        65.85992
434.34        65.88006
434.78        66.78638
435.23         65.7291
435.67        64.36462
436.12         64.9267
436.57        65.15147
437.01         65.6897
437.46        65.83824
437.90        65.58772
438.35        65.34065
438.79        65.16757
439.24        65.08764
439.68        65.09704
440.13        65.17455
440.57        65.36271
441.02         65.6019
441.46        65.82063
441.91        66.34822
442.35        66.86774
442.80        66.54219
443.24        65.61207
443.69        65.51491
444.13        66.22207
444.58        66.63986
445.02         66.6756
445.47        66.80383
445.91        67.02502
446.36        67.23898
446.80        67.41944
447.24        67.50941
447.69        67.52652
448.13        67.55059
448.58        67.60629
449.02        67.64125
449.47        67.65355
449.91        67.61355
450.36        67.54195
450.80        67.43878
451.25        67.35311
451.69        67.29955
452.13        67.29964
452.58        67.33713
453.02        67.39178
453.47        67.43984
453.91        67.45694
454.36        67.44933
454.80        67.39262
455.24        67.20628
455.69        66.89681
456.13        66.58997
456.58        66.35891
457.02         65.8781
457.46        65.36012
457.91        65.54741
458.35        66.14896
458.79        66.16384
459.24        65.59838
459.68        64.79896
460.13        64.03521
460.57        64.10798
461.01         64.2567
461.46        64.55004
461.90        65.13001
462.34        65.98387
462.79        65.56844
463.23        65.64378
463.68        65.67666
464.12        65.40288
464.56         64.8344
465.01        64.20297
465.45        63.64351
465.89        63.42046
466.34        63.46836
466.78        63.67606
467.22        64.00096
467.67        63.39843
468.11        63.51351
468.55        63.34498
468.99        63.37067
469.44        63.27697
469.88        63.08625
470.32        62.97373
470.77        62.93153
471.21        62.88832
471.65        62.82803
472.10        62.78291
472.54        62.73992
472.98        62.66407
473.42        62.54491
473.87        62.47898
474.31        62.41278
474.75        62.14752
475.20        61.79214
475.64        61.73402
476.08        61.92844
476.52        61.91973
476.97         61.6686
477.41        61.48405
477.85         61.4538
478.29        61.28115
478.74        61.27835
479.18        61.67005
479.62        61.63985
480.06        61.70534
480.50        61.59818
480.95        61.41633
481.39        61.20332
481.83        61.19086
482.27        61.00511
482.72        61.43047
483.16        61.38432
483.60         61.4243
484.04        61.29537
484.48        61.53574
484.93        61.83789
485.37        61.37085
485.81        60.76101
486.25        60.04463
486.69        60.69399
487.14        62.59388
487.58        62.38245
488.02         61.2682
488.46        60.83914
488.90        60.28123
489.34        61.27005
489.79        62.25675
490.23        61.33309
490.67         60.9231
491.11        60.57079
491.55        60.45216
491.99        60.51387
492.43        60.38764
492.88        60.09695
493.32        59.98266
493.76         60.0691
494.20        60.15421
494.64        60.21489
495.08        60.35352
495.52        60.50365
495.96        60.47036
496.41         60.2803
496.85        60.16169
497.29        60.06619
497.73        60.15108
498.17        59.69078
498.61        59.69469
499.05        59.87299
499.49        60.05791
499.93        60.02763
500.37        59.78533
500.82        59.98833
501.26        60.00817
501.70        60.03548
502.14        60.13448
502.58        60.14332
503.02        60.21414
503.46         60.2843
503.90        60.34459
504.34        60.36576
504.78        60.31546
505.22        60.18954
505.66         60.0058
506.10        59.82201
506.54        59.65284
506.98        59.50304
507.42        59.50591
507.86         59.6727
508.30        59.27935
508.74        59.47686
509.18        59.35851
509.62        59.29852
510.06        59.26974
510.50        59.27505
510.94         59.4492
511.38         59.4663
511.82        59.53775
512.26        59.56798
512.70        59.57469
513.14        59.53948
513.58         59.5159
514.02        59.52854
514.46        59.41983
514.90        59.19357
515.34         59.6132
515.78         59.4797
516.22        59.72915
516.66        59.92517
517.10        59.96937
517.54        59.83014
517.98        59.56734
518.42        59.26878
518.86        59.04335
519.30        58.93406
519.74         58.9096
520.18        58.94821
520.62        59.01135
521.06        59.08263
521.50        59.18061
521.93        59.29001
522.37        59.36312
522.81        59.39653
523.25        59.38382
523.69         59.3602
524.13        59.39147
524.57        59.48059
525.01         59.5981
525.45        59.68478
525.89        59.64418
526.32        59.45702
526.76        59.18876
527.20        58.88905
527.64        58.63726
528.08        58.46748
528.52        58.35842
528.96        58.33282
529.40        58.42348
529.83        58.61549
530.27        58.89628
530.71        59.17699
531.15        59.32117
531.59        59.29718
532.03        59.13671
532.46        58.90784
532.90        58.76679
533.34        58.74268
533.78        58.76139
534.22        58.77891
534.66        58.79902
535.09        58.76121
535.53        58.55628
535.97        58.24212
536.41        58.05693
536.85        58.02901
537.28        58.03912
537.72        58.06848
538.16        58.13271
538.60        58.21606
539.04        58.31461
539.47        58.39732
539.91        58.45351
540.35        58.46716
540.79        58.44252
541.22        58.39901
541.66        58.39076
542.10        58.41997
542.54        58.46972
542.97        58.50798
543.41         58.5117
543.85        58.46656
544.29        58.39473
544.72        58.29784
545.16        58.21109
545.60        58.13563
546.04        58.07357
546.47        58.04708
546.91        58.08516
547.35        58.18302
547.79        58.32772
548.22        58.47763
548.66         58.5534
549.10        58.60223
549.53        58.61478
549.97         58.5985
550.41        58.44152
550.84        58.22034
551.28        58.09781
551.72        58.05096
552.15         58.0891
552.59        58.28446
553.03        57.78893
553.46        58.31578
553.90        58.30515
554.34        58.25175
554.77        58.16359
555.21        58.10806
555.65        58.14035
556.08        58.24422
556.52        58.38809
556.96        58.49368
557.39        58.54146
557.83        58.49848
558.27        58.19963
558.70        57.74615
559.14        57.54139
559.57        57.58521
560.01        57.60328
560.45        57.58199
560.88        57.69459
561.32        57.91053
561.75        58.03941
562.19        58.08088
562.63        58.00496
563.06         57.8782
563.50        57.97054
563.93        58.17206
564.37        58.20553
564.80        58.07901
565.24        57.85062
565.68        57.46283
566.11        57.97647
566.55        57.32706
566.98        57.25402
567.42        57.22449
567.85        57.30365
568.29         57.5011
568.72        57.82974
569.16        58.28648
569.60        58.47127
570.03        58.54494
570.47        58.65369
570.90        58.90783
571.34        58.32763
571.77        58.41686
572.21        58.86346
572.64        58.75817
573.08        58.97756
573.51        58.38002
573.95        58.18807
574.38        58.26664
574.82        58.87188
575.25         58.3439
575.69        58.36131
576.12        58.47652
576.56        58.10362
576.99        58.09492
577.42        58.05988
577.86        58.47728
578.29        58.86972
578.73        59.04475
579.16         58.9258
579.60        58.46846
580.03        58.50652
580.47        58.20941
580.90        58.99171
581.33        58.87416
581.77        58.87381
582.20        58.55152
582.64        59.26166
583.07        59.10176
583.51        58.89742
583.94        58.30516
584.37        58.16086
584.81        58.47866
585.24        58.47009
585.68         58.1394
586.11        58.27983
586.54        58.56419
586.98        58.05894
587.41        57.66245
587.85        57.86373
588.28        57.72336
588.71        58.03279
589.15        57.46966
589.58        57.73255
590.01        57.58398
590.45        57.49658
590.88        58.32686
591.31        58.23001
591.75        57.69112
592.18        57.32823
592.61        57.26893
593.05        57.71485
593.48        58.10249
593.91        57.87304
594.35        58.14181
594.78         57.8507
595.21        57.50532
595.65        57.51509
596.08        58.01386
596.51        58.21177
596.94        57.88943
597.38        57.70807
597.81        57.56022
598.24        58.22999
598.68        57.91144
599.11        57.53464
599.54        58.47239
599.97         57.9489
600.41         57.9493
600.84         57.4892
601.27        57.85578
601.70        57.76916
602.14        57.98574
602.57        57.73098
603.00        57.40422
603.43        56.90242
603.87        57.81631
604.30        57.94707
604.73        57.83653
605.16        57.15343
605.60        57.41364
606.03        57.06736
606.46        56.58715
606.89        56.86952
607.32        57.32227
607.76        57.10635
608.19        57.40573
608.62        57.30879
609.05        57.32109
609.48        57.29624
609.92        57.98959
610.35        57.61976
610.78        57.23204
611.21        56.94395
611.64        57.12074
612.07        57.25369
612.50        57.05376
612.94        57.04863
613.37        57.13209
613.80        56.96957
614.23        56.64595
614.66        56.63605
615.09        56.93802
615.52        57.06029
615.96        56.92286
616.39        56.95927
616.82        57.22489
617.25        56.47641
617.68        56.61397
618.11        56.57864
618.54         56.8643
618.97        57.05555
619.40        57.10228
619.84        56.99467
620.27         56.8649
620.70        56.80413
621.13        56.81928
621.56        56.55711
621.99        56.07623
622.42        55.91888
622.85        56.13609
623.28        55.97642
623.71        56.00985
624.14        56.19971
624.57        56.61719
625.00        56.36995
625.43        56.51596
625.86        56.35467
626.29        56.32063
626.72        55.85247
627.15        56.17511
627.58        56.25882
628.01        56.32143
628.44        56.38304
628.87        56.25636
629.30        55.70562
629.73        55.95678
630.16        55.86539
630.59        55.81306
631.02        55.88363
631.45        56.05588
631.88        56.16072
632.31        56.15082
632.74        56.21004
633.17        56.10661
633.60        56.02607
634.03        55.91278
634.46        55.76621
634.89        55.61564
635.32        55.53133
635.75        55.53051
636.18        55.53173
636.61        55.53321
637.04        55.56429
637.47        55.61626
637.89         55.6758
638.32        55.69635
638.75        55.65849
639.18        55.55927
639.61        55.40479
640.04        55.25056
640.47        55.18524
640.90        55.22723
641.33        55.35766
641.76        55.51033
642.18        55.57876
642.61        55.51907
643.04        55.36859
643.47        55.20189
643.90        55.14141
644.33        55.21059
644.76        55.36531
645.18        55.52893
645.61        55.56311
646.04        55.44739
646.47        55.23954
646.90        55.00696
647.33        54.85821
647.75        54.80744
648.18        54.83334
648.61        54.95514
649.04        55.07878
649.47        55.08928
649.89        55.67772
650.32        55.34837
650.75        55.29648
651.18        55.17759
651.61        55.22014
652.03        55.38966
652.46        55.53522
652.89        55.62524
653.32        55.40763
653.74        55.00349
654.17        55.12296
654.60        55.76084
655.03        55.53674
655.46        54.94097
655.88        54.82481
656.31        55.93438
656.74        56.09126
657.16         59.1729
657.59        62.53046
658.02        57.54995
658.45        55.91861
658.87        55.56546
659.30        55.62082
659.73        55.42911
660.15        56.08075
660.58        55.04596
661.01        54.90112
661.44        54.99385
661.86        54.92657
662.29        54.64399
662.72         55.0041
663.14         54.9242
663.57        54.88391
664.00        54.67031
664.42        54.70533
664.85        55.00559
665.27        55.35368
665.70         55.6128
666.13        55.71078
666.55        55.61907
666.98        55.29955
667.41        54.85207
667.83        54.80085
668.26        54.62292
668.69        54.72756
669.11         54.8923
669.54        55.02336
669.96        55.08693
670.39        55.13119
670.82        55.16975
671.24        55.14602
671.67        55.08829
672.09        55.09278
672.52        55.15763
672.94        55.15539
673.37         55.0863
673.80        55.01236
674.22        54.96518
674.65        54.93384
675.07        54.93707
675.50        54.96764
675.92        54.99372
676.35        54.95221
676.77        54.83784
677.20        54.67181
677.62         54.5117
678.05        54.44796
678.47         54.4957
678.90        54.62742
679.32        54.78765
679.75        54.88585
680.17        54.89108
680.60           54.87
681.02        54.84664
681.45        54.76311
681.87        54.68658
682.30        54.80195
682.72        55.06327
683.15        55.17675
683.57        55.12178
684.00        55.02749
684.42        54.95277
684.85        54.94612
685.27        55.01594
685.70        55.14324
686.12        55.26809
686.54         55.3176
686.97        55.26945
687.39        55.15225
687.82        54.99824
688.24        54.87651
688.66        54.80764
689.09        54.77359
689.51        54.77214
689.94        54.77294
690.36        54.77329
690.78        54.76926
691.21        54.78122
691.63        54.82991
692.06        54.91991
692.48        55.05366
692.90        55.17033
693.33        55.17876
693.75        55.06067
694.17        54.81512
694.60        54.56981
695.02        54.51732
695.44        54.66613
695.87        55.03144
696.29        55.44542
696.71        55.30011
697.14        54.72168
697.56        54.57685
697.98        54.88441
698.41        54.98459
698.83        54.86506
699.25        54.96679
699.68        55.20404
700.10        55.26559
700.52        55.10343
700.94          54.823
701.37        54.54465
701.79        54.46548
702.21        54.62186
702.64        54.93063
703.06        55.28058
703.48        55.48068
703.90        55.47421
704.33         55.3199
704.75        55.08856
705.17        54.88826
705.59        54.76662
706.01        54.69326
706.44        54.66516
706.86        54.70651
707.28        54.80445
707.70        54.92315
708.12        55.04992
708.55        55.23325
708.97        55.41756
709.39        55.39632
709.81        55.20881
710.23        55.12888
710.66        55.18414
711.08        55.24783
711.50        55.25695
711.92        55.18714
712.34        55.03382
712.76         54.8216
713.19        54.61614
713.61          54.556
714.03        54.65775
714.45         54.8787
714.87        55.15944
715.29        55.41035
715.71        55.59328
716.13        55.71774
716.56        55.76701
716.98        55.79342
717.40        55.78078
717.82        55.72647
718.24         55.6236
718.66        55.46358
719.08        55.26696
719.50        55.06368
719.92        54.91048
720.34        54.88502
720.76        54.99555
721.19        55.19137
721.61        55.44782
722.03        55.68137
722.45        55.84935
722.87        55.96292
723.29        55.98368
723.71        55.85729
724.13        55.59637
724.55        55.23249
724.97         54.8673
725.39        54.67131
725.81        54.68772
726.23        54.85257
726.65        55.08954
727.07        55.39187
727.49         55.5135
727.91        55.63902
728.33        55.72086
728.75        55.78827
729.17        55.84589
729.59        55.87435
730.01         55.8672
730.43         55.8204
730.85        55.73756
731.27        55.62909
731.69        55.51501
732.10        55.41922
732.52        55.34871
732.94        55.31216
733.36        55.31491
733.78        55.25473
734.20         55.1151
734.62        55.12154
735.04        55.35144
735.46        54.89653
735.88        55.39064
736.30        55.49653
736.72        55.67826
737.13        55.85857
737.55        55.98024
737.97        56.14582
738.39        56.27233
738.81        56.06428
739.23        55.61744
739.65        55.47706
740.06        55.63342
740.48        55.68191
740.90        55.59531
741.32        55.64057
741.74        55.81631
742.16        55.96368
742.57        56.06144
742.99        56.13809
743.41        56.16623
743.83        56.09034
744.25        55.91167
744.67        55.63647
745.08        55.36552
745.50        55.24721
745.92        55.32074
746.34        55.54208
746.75        55.79581
747.17        55.87862
747.59        55.75165
748.01        55.48112
748.42        55.17776
748.84        55.02642
749.26        55.07471
749.68        55.23399
750.09        55.43301
750.51        55.61654
750.93        55.71741
751.35        55.66077
751.76        55.47778
752.18        55.32257
752.60        55.21463
753.01        55.09113
753.43        54.94289
753.85        54.81576
754.27        54.72586
754.68         54.6828
755.10        54.69685
755.52        54.77171
755.93        54.89124
756.35        55.04011
756.77        55.24316
757.18        55.40119
757.60        55.47524
758.02        55.74583
758.43        56.18044
758.85        55.47211
759.26        55.54683
759.68        55.20481
760.10        55.07549
760.51        55.07023
760.93        55.19275
761.34        55.35436
761.76        55.51188
762.18        55.79873
762.59        56.14526
763.01        56.12461
763.42        55.81717
763.84        55.65138
764.26        55.70143
764.67        55.64964
765.09        55.53686
765.50        55.54578
765.92        55.65448
766.33        55.60306
766.75        55.36938
767.16        55.26409
767.58        55.27522
768.00        55.22776
768.41        55.14597
768.83        55.19081
769.24        55.31809
769.66        55.33096
770.07         55.2428
770.49        55.16688
770.90        55.17718
771.32        55.47003
771.73        55.93965
772.15        56.12019
772.56        55.97958
772.97        55.73402
773.39        55.49281
773.80        55.36501
774.22        55.37773
774.63        55.53794
775.05        55.73793
775.46        55.86364
775.88        55.85263
776.29        55.76474
776.70        55.65865
777.12        55.64256
777.53        55.75173
777.95        55.92034
778.36        56.09996
778.77         56.1824
779.19        56.14958
779.60        56.04911
780.02        55.91132
780.43        55.81521
780.84        55.79401
781.26        55.69913
781.67        55.59167
782.09        55.81472
782.50        56.24814
782.91        56.27285
783.33         55.9128
783.74        55.78236
784.15        55.90401
784.57        55.91392
784.98         55.8521
785.39        55.93923
785.81        56.17942
786.22        56.51095
786.63        56.83208
787.04        56.98099
787.46        56.93798
787.87        56.73782
788.28        56.49752
788.70        56.38444
789.11        56.41613
789.52        56.55613
789.93        56.72738
790.35        56.79497
790.76        56.73402
791.17        56.58877
791.58        56.40965
792.00        56.24423
792.41        56.13056
792.82        56.08884
793.23        56.11134
793.65        56.07582
794.06        56.03455
794.47        56.25722
794.88        56.63885
795.29        56.79689
795.71        56.67511
796.12        56.47923
796.53        56.30658
796.94        56.26688
797.35        56.40547
797.76        56.69346
798.18        57.00063
798.59        57.15328
799.00        57.08618
799.41        56.85525
799.82        56.57515
800.23        56.43683
800.64        56.48624
801.06        56.63638
801.47        56.83207
801.88        56.90038
802.29        56.79655
802.70         56.5882
803.11        56.33313
803.52        56.11928
803.93        55.99142
804.34         55.9211
804.75          55.937
805.17        56.09349
805.58        56.41073
805.99        56.79284
806.40        57.14651
806.81        57.45569
807.22        57.60361
807.63        57.30097
808.04        56.70267
808.45        56.35242
808.86        56.33938
809.27        56.43812
809.68        56.54551
810.09        56.57076
810.50        56.47064
810.91        56.27557
811.32        56.11068
811.73         56.1696
812.14        56.48516
812.55        56.99205
812.96        57.50737
813.37        57.69665
813.78        57.47312
814.19        56.96522
814.60        56.37786
815.01        55.98927
815.42        55.86803
815.83        55.93533
816.24        56.13145
816.65        56.33488
817.05        56.49188
817.46        56.62189
817.87        56.73289
818.28         56.7944
818.69        56.80651
819.10        56.74647
819.51         56.6767
819.92        56.72524
820.33        56.91103
820.74        57.19618
821.14        57.46351
821.55        57.51587
821.96        57.31855
822.37        56.94303
822.78        56.51429
823.19        56.24551
823.60         56.2056
824.00        56.34795
824.41        56.57541
824.82        56.79953
825.23         56.9647
825.64        57.10382
826.04        57.19421
826.45        57.16529
826.86        57.03173
827.27        56.81429
827.68        56.59007
828.08        56.52284
828.49        56.60646
828.90        56.80246
829.31        57.07339
829.72        57.35336
830.12        57.62006
830.53        57.84258
830.94        57.93963
831.35        57.74003
831.75        57.25185
832.16         56.5295
832.57        55.79721
832.97        55.39172
833.38        55.39422
833.79        55.68988
834.20        56.15287
834.60        56.56963
835.01        56.86353
835.42        57.13185
835.82        57.32972
836.23        57.32082
836.64        57.12485
837.04        56.73156
837.45        56.38799
837.86        56.56047
838.26        57.34058
838.67        58.56625
839.08        59.79353
839.48        60.18286
839.89        59.52754
840.29        58.13521
840.70        56.62727
841.11        55.73607
841.51        55.65191
841.92        56.14657
842.33        56.96759
842.73        57.66044
843.14        57.95477
843.54        58.01985
843.95         57.9772
844.35        58.06346
844.76        58.31646
845.17        58.62988
845.57         58.8595
845.98        58.77244
846.38        58.35309
846.79        57.70407
847.19        57.02654
847.60         56.6111
848.00        56.54574
848.41         56.7219
848.81        57.04176
849.22        57.26383
849.62        57.34295
850.03        57.34577
850.43        57.30049
850.84        57.19725
851.24        57.09027
851.65        56.90689
852.05        56.81802
852.46        57.04118
852.86        57.58824
853.27        58.36504
853.67        59.05693
854.07        59.32257
854.48        59.08775
854.88        58.47075
855.29        57.66145
855.69        57.12274
856.10        56.95706
856.50        57.11568
856.90        57.39329
857.31        57.45184
857.71        57.23913
858.12        56.80734
858.52         56.3611
858.92        56.13628
859.33         56.1874
859.73         56.4706
860.13        56.78782
860.54        56.83722
860.94        56.58708
861.34        56.13002
861.75        55.67157
862.15        55.57883
862.55        55.91724
862.96        56.52446
863.36        57.24399
863.76        57.74789
864.17         57.8976
864.57         57.8069
864.97        57.47943
865.38        56.93257
865.78        56.24147
866.18        55.40812
866.58        54.59712
866.99         54.1071
867.39        54.05225
867.79        54.38393
868.19        54.94257
868.60        55.43853
869.00        55.81079
869.40        56.09032
869.80        56.34833
870.21         56.7183
870.61        57.23463
871.01        57.73865
871.41        58.06323
871.81        58.00246
872.22        57.54172
872.62        56.78955
873.02        55.91434
873.42        55.20052
873.82        54.77344
874.22        54.56559
874.63        54.56625
875.03        54.75978
875.43        55.07441
875.83        55.49815
876.23        55.88152
876.63        55.99554
877.03        55.80123
877.44        55.32386
877.84        54.71888
878.24        54.32795
878.64        54.20383
879.04        54.08221
879.44        53.98744
879.84         54.0991
880.24         54.3782
880.64        54.72637
881.04        54.96519
881.44        54.83168
881.84        54.29193
882.24        53.45736
882.65        52.57696
883.05        52.04022
883.45        51.96064
883.85         52.2352
884.25        52.75576
884.65        53.31732
885.05        53.80973
885.45        54.26346
885.85        54.63502
886.25        54.86752
886.65        54.96054
887.05        54.91177
887.45        54.76171
887.85        54.60612
888.25        54.47798
888.65        54.35619
889.04        54.25183
889.44        54.19587
889.84        54.17133
890.24        54.18297
890.64        54.15993
891.04        53.98075
891.44        53.64322
891.84        53.21049
892.24        52.79486
892.64         52.5593
893.04        52.54573
893.44        52.70831
893.83        53.00848
894.23        53.33143
894.63        53.63853
895.03        53.92698
895.43        54.17878
895.83        54.37511
896.23        54.49596
896.63        54.52019
897.02        54.41674
897.42         54.1765
897.82        53.81997
898.22        53.40361
898.62         52.9878
899.01        52.64305
899.41        52.41142
899.81        52.27089
900.21        52.25424
900.61        52.40695
901.00         52.7084
901.40        53.12058
901.80        53.52032
902.20         53.7125
902.59        53.66179
902.99        53.41893
903.39        53.08864
903.79           52.85
904.18        52.75629
904.58        52.75948
904.98        52.85645
905.38        53.04382
905.77        53.30609
906.17        53.67142
906.57        54.02199
906.96        54.15855
907.36        54.03124
907.76        53.68752
908.15         53.3568
908.55        53.39445
908.95        53.86896
909.34        54.67487
909.74        55.47771
910.14        55.80043
910.53        55.50459
910.93        54.77526
911.33        53.86971
911.72        53.17416
912.12        52.86398
912.52        52.83131
912.91         52.9674
913.31        53.11586
913.70        53.22423
914.10        53.31085
914.49        53.48065
914.89        53.83051
915.29        54.37202
915.68        55.04762
916.08        55.59763
916.47        55.66664
916.87        55.21403
917.26        54.35735
917.66        53.47602
918.05        53.01747
918.45         53.0824
918.84        53.58154
919.24         54.2254
919.64        54.61179
920.03         54.6194
920.42        54.34007
920.82        54.01375
921.21        53.96272
921.61         54.2466
922.00        54.77104
922.40        55.30104
922.79        55.55272
923.19        55.41825
923.58        55.04262
923.98        54.59118
924.37        54.24983
924.77        54.09192
925.16        54.01624
925.55        54.03862
925.95        54.17152
926.34        54.39716
926.74        54.70085
927.13        54.92256
927.52        54.74008
927.92        54.16533
928.31        53.30309
928.70        52.45034
929.10        52.04187
929.49        52.15836
929.89        52.62318
930.28        53.32594
930.67        53.96651
931.07        54.39009
931.46        54.74648
931.85        54.88349
932.24        54.60571
932.64        53.96786
933.03        52.99659
933.42        52.12037
933.82        51.97107
934.21        52.64982
934.60        54.02508
934.99        55.58501
935.39        56.38551
935.78        56.18829
936.17        55.18263
936.56        53.90136
936.96        53.19546
937.35        53.28042
937.74        53.89647
938.13        54.60443
938.53        54.72905
938.92        54.12736
939.31        53.08323
939.70        51.97137
940.09        51.29771
940.49         51.1666
940.88        51.43171
941.27        51.92143
941.66        52.32925
942.05        52.53368
942.44        52.64248
942.84        52.71281
943.23        52.81192
943.62        52.97001
944.01         53.1103
944.40        53.24697
944.79        53.44022
945.18        53.66943
945.57         53.9037
945.97        53.99948
946.36        53.80209
946.75        53.26899
947.14        52.53225
947.53        51.73609
947.92        51.06565
948.31        50.58976
948.70         50.2598
949.09        50.13972
949.48        50.33319
949.87        50.81677
950.26        51.53348
950.65        52.26591
951.04        52.64941
951.43        52.59001
951.82        52.19341
952.21        51.62142
952.60        51.15956
952.99        50.92918
953.38        50.86629
953.77        50.99079
954.16        51.33503
954.55        51.85833
954.94        52.52179
955.33        53.20513
955.72        53.67559
956.11        53.84661
956.50        53.78322
956.89        53.45053
957.28         52.8365
957.66         52.0126
958.05        51.04558
958.44        50.23837
958.83        50.01708
959.22        50.42467
959.61        51.35653
960.00        52.41772
960.39        52.85256
960.78        52.44929
961.16        51.44403
961.55        50.28883
961.94        49.59121
962.33        49.50999
962.72          49.887
963.11        50.52288
963.49        51.04752
963.88        51.24781
964.27        51.24053
964.66        51.19746
965.04        51.39842
965.43         51.8515
965.82        52.47713
966.21        53.00996
966.60        52.98255
966.98        52.28122
967.37         51.1626
967.76        50.01869
968.15        49.31472
968.53        49.14798
968.92        49.40368
969.31        49.88148
969.69        50.18276
970.08        50.11749
970.47        49.83068
970.86         49.5772
971.24        49.72717
971.63        50.35224
972.02        51.32531
972.40        52.39116
972.79        52.86155
973.17        52.58439
973.56        51.78736
973.95        50.84445
974.33        50.22499
974.72        50.04474
975.11        50.14381
975.49        50.41901
975.88        50.64513
976.26        50.75849
976.65          50.803
977.04        50.77448
977.42        50.62109
977.81        50.32656
978.19        49.89902
978.58          49.549
978.96        49.57143
979.35        50.01436
979.74        50.80926
980.12        51.80041
980.51         52.4842
980.89        52.80969
981.28        52.86694
981.66        52.84074
982.05        52.97999
982.43        53.37205
982.82        53.89679
983.20         54.6074
983.59        55.52698
983.97        56.64058
984.35        57.89554
984.74        58.87904
985.12        59.13849
985.51        58.52816
985.89        57.24612
986.28        55.78662
986.66        54.80819
987.04         54.5369
987.43        54.77642
987.81        55.30292
988.20        55.59132
988.58        55.46373
988.96        55.03415
989.35        54.43824
989.73        53.86264
990.12        53.35378
990.50        52.88795
990.88        52.37021
991.27        51.70369
991.65        50.93805
992.03        50.17734
992.42        49.70253
992.80        49.87781
993.18        50.74884
993.56        52.19257
993.95        53.79794
994.33         54.8983
994.71        55.14254
995.10        54.80927
995.48        54.15185
995.86        53.67124
996.24        53.50023
996.63        53.28795
997.01        53.29092
997.39        53.73514
997.77        54.57589
998.15        55.87896
998.54        56.81689
998.92        56.03101
999.30        53.54552
999.68        49.87548
1000.06        46.49731
1000.45         45.5182
1000.83        47.45198
1001.21        51.87045
1001.59        57.45026
1001.97        60.95302
1002.35        61.02171
1002.73        58.58498
1003.12        55.36876
1003.50        53.61409
1003.88        53.94845
1004.26        55.58996
1004.64        57.91332
1005.02        59.61863
1005.40        60.08396
1005.78        59.94615
1006.16        59.17257
1006.54        57.61745
1006.92        55.53657
1007.30        52.97666
1007.69        50.92715
1008.07        50.69447
1008.45        52.62975
1008.83         56.5101
1009.21        61.21737
1009.59         63.8912
1009.97        63.22973
1010.35        60.08006
1010.73        55.82304
1011.11         52.4727
1011.49        50.67327
1011.86        49.87908
1012.24        49.89939
1012.62        50.54344
1013.00        51.67152
1013.38        53.43095
1013.76        55.61063
1014.14        57.38713
1014.52        58.23595
1014.90        58.17167
1015.28        57.31896
1015.66        56.01915
1016.04        54.47304
1016.41        52.64988
1016.79        50.95637
1017.17        50.18824
1017.55        50.53743
1017.93        51.77185
1018.31        53.35963
1018.69        54.52378
1019.06        55.05917
1019.44        55.12793
1019.82        54.76376
1020.20        54.17528
1020.58        53.50048
1020.95        52.60193
1021.33        51.74638
1021.71        51.09497
1022.09        50.66302
1022.46        50.62626
1022.84        50.65867
1023.22        50.02762
1023.60        48.67203
1023.97        46.73457
1024.35        45.51078
1024.73          46.436
