SpectraSmart Spectrum 2.9.0.0
--------- Device Information -----------
Spectrum Name :  反射率_0
Saving Time :  2024/04/26 22:46:38
Spectro-Module Model Name : SE2030-DUVN
Spectro-Module Serial Number : OS361AC55029948
Wavelength Start : 200
Wavelength End : 1025
Wavelength Unit : Wavelength(nm)
Spectrum Unit : Reflectance(%)
-----------Spectrum Setting ------------
Integration Time : 20ms
Average : 10
Boxcar : 0
Background removal :  enabled
linearity correction :  enabled
SC :  disabled
Intensity correction :  disabled
DWT denoise :  enabled
savitzky-golay :  disabled
FFT :  disabled
Running average :  disabled
Kalman :  disabled
High pass :  disabled
---------------BEGIN--------------------
Wavelength(nm)             Reflectance(%)
200.29               0
200.75        45.68382
201.21        49.29644
201.67         53.1711
202.13        55.35132
202.58        55.64222
203.04        55.19733
203.50         54.1604
203.96         52.7413
204.42          51.412
204.88        49.69934
205.34        48.71497
205.80        50.55719
206.26        54.66714
206.72        59.39913
207.18        62.79191
207.64        63.12897
208.10        60.39536
208.55        55.24895
209.01        46.50659
209.47         37.7607
209.93         34.3264
210.39         34.9789
210.85        38.08691
211.31        43.68884
211.77         53.7301
212.23        75.18694
212.69        126.8081
213.14         208.567
213.60        196.7466
214.06        132.0372
214.52        89.44982
214.98        68.98576
215.44        58.27486
215.90        50.81345
216.36         46.2821
216.81        45.58095
217.27         49.4771
217.73        59.88548
218.19        76.61208
218.65        88.23937
219.11         87.2682
219.57        79.38548
220.02        72.80726
220.48        73.05769
220.94        79.63036
221.40        92.21347
221.86        109.8737
222.32        119.7862
222.77        111.5841
223.23        95.22253
223.69        78.79623
224.15         65.8435
224.61        56.12957
225.06        48.32556
225.52        43.05496
225.98        40.77378
226.44        40.97112
226.90        43.09412
227.36        45.88284
227.81        47.18891
228.27        46.62976
228.73        44.78315
229.19        42.90173
229.65        42.49231
230.10        43.57624
230.56        45.55972
231.02         47.3145
231.48        47.12358
231.93        44.83161
232.39        41.60575
232.85        38.51375
233.31        36.88845
233.77        36.88178
234.22        37.99512
234.68        39.74868
235.14         41.5559
235.60        43.17103
236.05        44.86568
236.51        46.44822
236.97        47.43813
237.43        47.71578
237.88        47.34373
238.34        46.91337
238.80        47.81515
239.26        50.73029
239.71        56.22126
240.17        64.11926
240.63        73.01068
241.08        81.63516
241.54        89.18188
242.00        96.77964
242.46        108.3553
242.91        127.9339
243.37        157.8761
243.83        199.8373
244.28        238.9446
244.74        248.4596
245.20        225.2249
245.66        190.1429
246.11        163.4869
246.57         147.246
247.03        136.2588
247.48        126.9732
247.94        116.2707
248.40        106.2205
248.85        98.99287
249.31        94.74065
249.77        91.90693
250.22        89.32393
250.68          85.866
251.14        81.54263
251.59        78.10381
252.05         77.2037
252.51        79.06107
252.96        80.27783
253.42        77.88233
253.88        72.62331
254.33        66.03374
254.79        62.17218
255.25        64.32615
255.70        71.72036
256.16        82.42105
256.62        91.83778
257.07        93.07807
257.53        87.73361
257.99        80.17431
258.44        73.55085
258.90        70.60088
259.35        70.14186
259.81        71.14126
260.27        72.26588
260.72        72.06956
261.18        70.71941
261.63        68.55676
262.09        66.56789
262.55        65.17151
263.00        64.24025
263.46        63.70662
263.91         62.9245
264.37        61.47384
264.83        59.37339
265.28         56.8908
265.74        54.73544
266.19        53.44577
266.65        53.10682
267.11        53.34617
267.56        53.71671
268.02        53.52109
268.47        52.58065
268.93        51.18967
269.38         49.5399
269.84        47.98906
270.30        46.65149
270.75        45.38886
271.21        44.33241
271.66        43.62484
272.12        43.24502
272.57        43.13043
273.03        42.97381
273.48        42.25503
273.94        40.96366
274.39        39.26828
274.85        37.59933
275.31        36.40951
275.76        35.76002
276.22        35.51983
276.67        35.44727
277.13        35.29466
277.58        34.93167
278.04        34.46557
278.49        33.91528
278.95        33.42654
279.40        32.97266
279.86        32.56897
280.31        32.10071
280.77        31.52819
281.22        30.82544
281.68        30.10605
282.13        29.44583
282.59        29.02779
283.04        28.83708
283.50        28.82999
283.95        28.90219
284.41        28.90287
284.86        28.78314
285.32        28.61403
285.77        28.42507
286.22        28.32192
286.68        28.32711
287.13         28.3687
287.59        28.43921
288.04        28.48474
288.50        28.51112
288.95        28.50698
289.41        28.48932
289.86        28.41022
290.32         28.3127
290.77        28.20777
291.22        28.15607
291.68        28.22887
292.13        28.44587
292.59        28.82457
293.04        29.36481
293.50         30.0794
293.95        30.94935
294.40        31.96425
294.86         33.1068
295.31        34.33875
295.77        35.64569
296.22        37.01071
296.68        38.40989
297.13        39.79743
297.58        41.17975
298.04        42.57137
298.49        44.01769
298.95        45.61149
299.40        47.35027
299.85        49.20484
300.31        51.10978
300.76        52.94004
301.21        54.67696
301.67        56.37399
302.12        58.04607
302.58        59.80793
303.03        61.63078
303.48        63.49474
303.94        65.39034
304.39        67.24073
304.84        69.05312
305.30        70.85925
305.75        72.60736
306.20        74.30611
306.66        75.97695
307.11        77.59139
307.57        79.18165
308.02        80.68887
308.47        82.13824
308.93        83.54516
309.38         84.9444
309.83        86.50493
310.29        88.24448
310.74         90.1002
311.19        91.89092
311.65        93.29276
312.10        94.21192
312.55        94.73739
313.00        95.10909
313.46        95.71129
313.91        96.61361
314.36        97.73695
314.82         98.8823
315.27        99.73574
315.72        100.2007
316.18        100.4186
316.63        100.5324
317.08        100.8101
317.53        101.3242
317.99        101.9662
318.44        102.6605
318.89        103.2584
319.35        103.6971
319.80        104.0301
320.25        104.2626
320.70        104.4006
321.16        104.4671
321.61        104.5086
322.06         104.559
322.51        104.6899
322.97        104.9083
323.42        105.1938
323.87        105.5874
324.32        106.1735
324.78        106.9004
325.23        107.8102
325.68        108.6159
326.13        108.8589
326.59        108.4575
327.04        107.5832
327.49        106.6431
327.94         106.316
328.39        106.7677
328.85        107.7809
329.30        109.1136
329.75        110.0518
330.20         110.353
330.66        110.1832
331.11        109.8527
331.56        109.7901
332.01        110.1362
332.46        110.7244
332.92        111.3394
333.37        111.8006
333.82        111.9721
334.27        111.9849
334.72        111.9387
335.17        111.9651
335.63         112.119
336.08        112.4193
336.53        112.8767
336.98        113.5603
337.43        114.4529
337.88         115.494
338.34         116.568
338.79         117.603
339.24        118.4716
339.69        119.1785
340.14        119.6159
340.59        119.6414
341.05        119.3112
341.50        118.7052
341.95        118.1046
342.40        117.9316
342.85        118.2872
343.30        119.0516
343.75          120.04
344.20        120.9238
344.66        121.5739
345.11        122.0625
345.56         122.381
346.01        122.5318
346.46        122.5571
346.91        122.4619
347.36        122.3426
347.81        122.3745
348.26        122.5865
348.72        122.9182
349.17        123.3139
349.62        123.7107
350.07        124.0609
350.52        124.3979
350.97        124.5703
351.42        124.3433
351.87        123.7137
352.32        122.7637
352.77        121.8245
353.22        121.3814
353.67         121.516
354.13        122.0883
354.58        122.7564
355.03        122.9012
355.48        122.3662
355.93        121.3335
356.38        120.1866
356.83        119.5028
357.28        119.3915
357.73        119.6472
358.18         119.912
358.63        119.6226
359.08        118.6492
359.53         117.204
359.98        115.6097
360.43        114.3212
360.88        113.4511
361.33        112.8624
361.78        112.3547
362.23        111.6207
362.68        110.5971
363.13        109.4108
363.58        108.2394
364.03        107.3329
364.48        106.7377
364.93        106.3481
365.38        106.0145
365.83        105.5133
366.28         104.785
366.73        103.9084
367.18        102.9764
367.63        102.1281
368.08        101.4032
368.53        100.7512
368.98        100.1353
369.43        99.49899
369.88        98.82227
370.33        98.13425
370.78        97.43626
371.23        96.73135
371.68        96.02824
372.13        95.31499
372.58        94.62739
373.03        94.02258
373.48        93.49764
373.93        93.03133
374.38         92.5404
374.83        91.89617
375.28        91.08286
375.72        90.13248
376.17        89.19875
376.62        88.40409
377.07        87.79206
377.52        87.33975
377.97         86.9828
378.42        86.62727
378.87        86.24091
379.32        85.82048
379.77        85.44955
380.22         85.2473
380.67        85.20656
381.11        85.31055
381.56        85.29493
382.01        84.82792
382.46        83.89487
382.91        82.67307
383.36        81.50656
383.81         80.8604
384.26        80.79528
384.71        81.13764
385.15        81.65259
385.60        81.92284
386.05        81.81209
386.50        81.44424
386.95        80.87984
387.40        80.22414
387.85        79.55498
388.29        78.80383
388.74        78.16302
389.19        77.70208
389.64        77.41992
390.09        77.28365
390.54        77.20147
390.98        76.99432
391.43        76.66809
391.88        76.27214
392.33        75.86651
392.78        75.53725
393.23        75.30344
393.67        75.09154
394.12         74.9627
394.57        74.86535
395.02        74.77981
395.47        74.69366
395.91        74.58796
396.36        74.40337
396.81        74.16137
397.26        73.88509
397.71        73.59036
398.15        73.30723
398.60        73.13728
399.05        72.89716
399.50        72.63461
399.95        72.72881
400.39        73.06683
400.84        72.83155
401.29        72.11461
401.74        71.90562
402.18        72.15766
402.63        71.88194
403.08        71.18672
403.53        70.90103
403.97        71.05093
404.42        71.23384
404.87        71.34081
405.32        71.29396
405.76         71.0383
406.21        70.78754
406.66        70.57276
407.11        70.11862
407.55         69.6468
408.00        69.84325
408.45        70.57317
408.90        70.98145
409.34        70.83792
409.79        70.25713
410.24        69.48716
410.68        69.04279
411.13        69.01093
411.58         69.0919
412.03        69.16218
412.47        69.15524
412.92         69.0015
413.37        68.75714
413.81        68.49718
414.26         68.3956
414.71        68.45681
415.15        68.65061
415.60        68.88035
416.05          69.062
416.49        69.16069
416.94        69.18864
417.39        69.18053
417.83          69.175
418.28        69.19112
418.73        69.21457
419.17        69.23365
419.62        69.23579
420.07        69.20905
420.51        69.13953
420.96        69.07887
421.41        69.01758
421.85        68.93378
422.30        68.98261
422.74        69.03883
423.19        68.83446
423.64        68.41951
424.08        68.26373
424.53        68.40083
424.98        68.50479
425.42        68.56419
425.87        68.91002
426.31        69.39284
426.76        69.25365
427.21        68.63167
427.65        68.50083
428.10        68.81936
428.54        68.86924
428.99        68.68188
429.44        68.40168
429.88        68.22041
430.33        68.71136
430.77        69.56111
431.22        70.01407
431.66        69.91427
432.11        69.31903
432.56        68.55576
433.00        68.39662
433.45         68.9846
433.89        69.79559
434.34        70.19552
434.78        70.57125
435.23        70.12861
435.67        67.98174
436.12        68.48936
436.57        68.69739
437.01        69.61178
437.46        69.92317
437.90        69.55719
438.35         69.2058
438.79        69.06285
439.24        69.03397
439.68         69.1167
440.13        69.57879
440.57        70.25316
441.02        70.07835
441.46        69.27029
441.91        69.69878
442.35        70.91077
442.80        70.76175
443.24          69.472
443.69        69.26786
444.13        70.10414
444.58        70.40098
445.02        70.11895
445.47         70.1095
445.91        70.41302
446.36        70.70338
446.80        70.94083
447.24        71.26987
447.69        71.66185
448.13        71.59305
448.58        71.80641
449.02         71.7016
449.47        71.54222
449.91        71.35281
450.36        71.19051
450.80        71.02551
451.25        70.90594
451.69        70.86623
452.13        70.91849
452.58        71.03582
453.02        71.17825
453.47        71.28628
453.91        71.33481
454.36        71.35082
454.80        71.29585
455.24        71.11667
455.69        70.83899
456.13        70.44347
456.58        70.09763
457.02        69.92557
457.46        69.98604
457.91          70.283
458.35        70.58029
458.79         70.5078
459.24        70.07472
459.68        69.36655
460.13        68.67957
460.57        68.45444
461.01        68.60046
461.46        69.02942
461.90          69.524
462.34        70.21107
462.79        70.30452
463.23        70.44191
463.68        70.35555
464.12           70.11
464.56        69.68493
465.01        68.90369
465.45        68.00415
465.89        67.77365
466.34        68.11289
466.78        68.50372
467.22        68.81176
467.67        68.45975
468.11        68.18844
468.55        68.30822
468.99        68.90264
469.44        69.04438
469.88        68.71185
470.32        68.46353
470.77        68.37155
471.21        68.29781
471.65        68.24468
472.10        68.24948
472.54        68.29029
472.98        68.28236
473.42        68.19512
473.87         68.2396
474.31         68.2873
474.75        67.80725
475.20        67.00497
475.64         66.8149
476.08        67.23717
476.52        67.27643
476.97        66.85158
477.41        67.10632
477.85        67.49247
478.29        66.96086
478.74        67.25792
479.18        67.51684
479.62        67.54385
480.06        67.59245
480.50        67.44075
480.95        67.34949
481.39        67.33143
481.83        67.09954
482.27        66.89411
482.72        67.31837
483.16        66.95491
483.60        66.95504
484.04         67.1934
484.48        67.44105
484.93        67.37955
485.37        67.58183
485.81        66.41908
486.25        65.83929
486.69        65.32932
487.14         67.4536
487.58        67.41751
488.02        67.61194
488.46        66.23985
488.90        66.29707
489.34        67.81912
489.79        68.32469
490.23        67.70175
490.67        66.94813
491.11        66.36868
491.55        66.30788
491.99        66.68448
492.43        66.71044
492.88        66.35258
493.32        66.21676
493.76        66.34226
494.20        66.44588
494.64         66.5078
495.08        66.63401
495.52        66.76674
495.96        66.74763
496.41        66.59754
496.85        66.51046
497.29        66.41869
497.73        66.49817
498.17         65.9497
498.61        65.96085
499.05        66.24491
499.49        66.48477
499.93        66.38368
500.37        66.47234
500.82        66.63161
501.26        66.44457
501.70        66.03088
502.14        66.02715
502.58        66.40289
503.02        66.57381
503.46        66.50948
503.90        66.55828
504.34         66.6844
504.78        66.65417
505.22        66.45054
505.66        66.15874
506.10        65.89922
506.54        65.69073
506.98        65.53539
507.42        65.72144
507.86        66.26432
508.30        65.50775
508.74        66.08378
509.18        65.88334
509.62        65.74748
510.06        65.68709
510.50        65.73805
510.94         65.8438
511.38        65.93781
511.82          65.991
512.26        65.98528
512.70        65.94221
513.14        65.89476
513.58        65.89242
514.02         65.9473
514.46        66.03644
514.90        66.14098
515.34        66.23299
515.78        66.29819
516.22        66.34375
516.66        66.35849
517.10        66.32499
517.54        66.24541
517.98         66.1264
518.42        65.99709
518.86        65.90546
519.30        65.86406
519.74        65.86272
520.18        65.88046
520.62        65.87884
521.06        65.85113
521.50        65.81653
521.93         65.7914
522.37        65.78156
522.81        65.79982
523.25        65.83154
523.69        65.88553
524.13        65.98045
524.57        66.10722
525.01        66.24918
525.45        66.36186
525.89        66.37487
526.32        66.27016
526.76        66.09289
527.20        65.87917
527.64        65.69954
528.08        65.58254
528.52        65.49467
528.96        65.44823
529.40        65.50703
529.83        65.63811
530.27        65.73229
530.71        65.77117
531.15        65.82753
531.59        65.89323
532.03        65.90381
532.46        65.85448
532.90        65.81726
533.34        65.79237
533.78        65.73185
534.22        65.63398
534.66        65.57743
535.09        65.51696
535.53        65.30324
535.97        64.99017
536.41        64.82972
536.85        64.84368
537.28        64.90645
537.72         64.9808
538.16        65.05404
538.60        65.10523
539.04         65.1385
539.47        65.14322
539.91        65.14728
540.35        65.14182
540.79        65.11917
541.22        65.08781
541.66        65.08527
542.10        65.10773
542.54        65.14832
542.97        65.17142
543.41        65.14968
543.85        65.07206
544.29        64.96405
544.72         64.8447
545.16        64.78127
545.60        64.77603
546.04        64.81755
546.47        64.90543
546.91        65.03004
547.35        65.17239
547.79        65.33007
548.22         65.4655
548.66        65.50557
549.10        65.51173
549.53        65.47084
549.97        65.40665
550.41        65.21072
550.84        64.96079
551.28        64.87874
551.72        64.92959
552.15        64.97089
552.59        65.04614
553.03        64.75586
553.46        65.10827
553.90        65.14731
554.34        65.15885
554.77        65.16436
555.21        65.18863
555.65        65.24082
556.08        65.29957
556.52        65.31203
556.96        65.26297
557.39        65.28655
557.83        65.33159
558.27        65.08918
558.70        64.62441
559.14        64.33398
559.57        64.25201
560.01        64.25492
560.45        64.33745
560.88        64.50359
561.32         64.7381
561.75        65.04707
562.19        65.34782
562.63        65.29417
563.06        64.96891
563.50        64.88423
563.93        64.98652
564.37        64.99892
564.80        64.92669
565.24        64.74271
565.68        64.35873
566.11        65.01273
566.55        64.37185
566.98        64.31139
567.42        64.23813
567.85        64.30507
568.29         64.5094
568.72        64.76976
569.16        65.09846
569.60         65.1508
570.03        65.13408
570.47        65.13039
570.90        65.28825
571.34          64.581
571.77        65.03905
572.21        65.22913
572.64        65.06832
573.08        65.37437
573.51          64.626
573.95        64.54987
574.38        64.83578
574.82        65.13736
575.25        64.72691
575.69        64.64066
576.12        64.69305
576.56         64.3062
576.99        64.61814
577.42         64.1244
577.86        64.45748
578.29        65.19924
578.73        64.74686
579.16        64.94658
579.60        64.72824
580.03        64.94176
580.47        64.54984
580.90        65.46465
581.33        65.01109
581.77        65.39548
582.20        64.21864
582.64         64.8805
583.07        64.98589
583.51        65.04655
583.94        64.98301
584.37        64.89525
584.81        64.98143
585.24        64.95789
585.68        64.89653
586.11        64.82162
586.54        64.95912
586.98        64.52987
587.41        64.31068
587.85         64.4248
588.28        64.24984
588.71        64.20533
589.15        63.94549
589.58        64.43197
590.01        64.23765
590.45        64.38476
590.88        65.06733
591.31        65.11065
591.75        64.78595
592.18        64.36391
592.61         63.9804
593.05        64.64629
593.48        64.60781
593.91        64.69221
594.35        64.61205
594.78        64.12037
595.21        64.00853
595.65        64.18941
596.08        64.95469
596.51        65.04793
596.94        64.62366
597.38        64.43526
597.81        64.54451
598.24        64.74282
598.68        64.62168
599.11        64.16185
599.54        65.21588
599.97         64.5462
600.41        64.55284
600.84        64.04444
601.27        64.56963
601.70        64.46333
602.14        64.69406
602.57        64.59419
603.00        64.62723
603.43        63.71512
603.87        64.33904
604.30        64.85653
604.73        64.81866
605.16         63.9904
605.60        64.36207
606.03        63.92652
606.46         63.4328
606.89        63.83451
607.32        64.18616
607.76        64.42259
608.19        64.31418
608.62        64.44551
609.05        64.41894
609.48        64.35992
609.92        64.88658
610.35        64.88831
610.78        64.02658
611.21          63.796
611.64        64.09943
612.07        64.41289
612.50         64.3274
612.94         64.3821
613.37        64.45612
613.80         64.1551
614.23        63.63966
614.66        63.59879
615.09        64.00533
615.52        64.17459
615.96        64.04025
616.39        64.08054
616.82        64.31979
617.25        63.99768
617.68        64.03045
618.11        64.00716
618.54        64.19625
618.97        64.31116
619.40        64.30275
619.84        64.53094
620.27        64.37318
620.70        64.35392
621.13         64.2626
621.56        63.91904
621.99        63.40385
622.42        63.14602
622.85        63.18704
623.28        63.13488
623.71        62.97881
624.14        63.17285
624.57        63.50628
625.00        63.49167
625.43        63.75818
625.86        63.76489
626.29        63.85406
626.72        63.21231
627.15        63.71358
627.58        63.73289
628.01        63.75975
628.44        63.72714
628.87        63.63997
629.30        63.51706
629.73        63.39683
630.16        63.36823
630.59        63.44446
631.02        63.60271
631.45        63.79225
631.88        63.92302
632.31        63.96442
632.74        63.93807
633.17        63.86106
633.60        63.76559
634.03        63.66932
634.46        63.55903
634.89        63.44239
635.32        63.34956
635.75        63.28992
636.18        63.19292
636.61        63.08775
637.04         63.0557
637.47        63.10232
637.89        63.20113
638.32        63.28366
638.75        63.30047
639.18        63.23664
639.61        63.10416
640.04        62.97231
640.47        62.95201
640.90        63.06505
641.33        63.28323
641.76        63.51652
642.18        63.62284
642.61        63.54773
643.04        63.34067
643.47        63.10886
643.90        63.02515
644.33        63.12629
644.76         63.3584
645.18        63.60866
645.61        63.67485
646.04        63.51912
646.47        63.22254
646.90         62.8838
647.33        62.68837
647.75        62.65568
648.18        62.79657
648.61         63.0629
649.04        63.12749
649.47         62.9012
649.89        63.44411
650.32        63.08744
650.75        63.06695
651.18        62.95609
651.61        63.05132
652.03          63.339
652.46        63.48227
652.89           63.44
653.32        63.44857
653.74        63.53508
654.17        62.96246
654.60        63.58089
655.03        63.23228
655.46        62.43334
655.88        62.90205
656.31        62.91842
656.74        61.11593
657.16        64.14326
657.59        67.64293
658.02         64.5585
658.45        64.13477
658.87        63.17578
659.30        63.76322
659.73        62.95781
660.15        64.09231
660.58        63.42502
661.01        63.28656
661.44        62.95972
661.86        62.64572
662.29        62.38647
662.72         62.8915
663.14        62.88556
663.57        62.86416
664.00        62.57699
664.42         62.6247
664.85        63.02517
665.27        63.42969
665.70        63.68167
666.13        63.76024
666.55           63.64
666.98        63.25968
667.41         62.7373
667.83        62.67974
668.26         62.4891
668.69        62.63409
669.11        62.85216
669.54        63.02418
669.96        63.10803
670.39        63.14746
670.82        63.16362
671.24        63.13634
671.67         63.0857
672.09        63.04421
672.52        63.02982
672.94         62.9937
673.37        62.94361
673.80          62.901
674.22         62.8908
674.65        62.90175
675.07        62.94796
675.50        63.01826
675.92        63.07569
676.35        63.04947
676.77        62.93243
677.20        62.74401
677.62        62.55242
678.05        62.46774
678.47        62.51111
678.90        62.65319
679.32        62.82253
679.75        62.91668
680.17        62.90574
680.60        62.82532
681.02        62.72608
681.45        62.69485
681.87        62.76561
682.30        62.86326
682.72        62.96918
683.15        63.09736
683.57        63.20498
684.00        63.11699
684.42        62.90483
684.85        62.84978
685.27        62.96768
685.70        63.12386
686.12        63.25029
686.54        63.30873
686.97        63.27582
687.39        63.17834
687.82        63.04317
688.24        62.93193
688.66        62.86294
689.09        62.81551
689.51         62.8093
689.94        62.84559
690.36        62.92412
690.78        63.02984
691.21         63.1353
691.63        63.18566
692.06        63.17369
692.48        63.12694
692.90        63.04855
693.33        62.95183
693.75        62.84595
694.17        62.69713
694.60        62.57646
695.02        62.60303
695.44        62.76041
695.87        63.03851
696.29        63.31763
696.71        63.16527
697.14        62.68703
697.56         62.5144
697.98         62.6904
698.41         62.7716
698.83        62.74871
699.25         62.9458
699.68        63.25489
700.10        63.38847
700.52        63.28444
700.94        63.03897
701.37        62.76966
701.79        62.67318
702.21        62.78942
702.64        63.03789
703.06        63.32464
703.48        63.48292
703.90        63.46318
704.33        63.32067
704.75        63.11514
705.17        62.93192
705.59         62.8141
706.01        62.74005
706.44        62.71131
706.86        62.76437
707.28        62.88649
707.70        63.02578
708.12        63.17672
708.55        63.41064
708.97        63.66704
709.39        63.71317
709.81         63.5635
710.23        63.47983
710.66        63.48487
711.08        63.44353
711.50         63.3483
711.92        63.27363
712.34         63.2282
712.76        63.20768
713.19        63.19443
713.61        63.19038
714.03        63.18302
714.45        63.18335
714.87        63.22118
715.29        63.34307
715.71        63.54557
716.13        63.79202
716.56        64.01699
716.98        64.19863
717.40        64.27737
717.82        64.27082
718.24         64.1638
718.66        63.92825
719.08        63.59401
719.50        63.22075
719.92        62.89974
720.34        62.72166
720.76        62.73424
721.19        62.97261
721.61         63.3893
722.03        63.76235
722.45        64.02009
722.87        64.22956
723.29        64.34772
723.71        64.28767
724.13         64.0565
724.55        63.69067
724.97        63.27988
725.39        62.98314
725.81         62.8539
726.23        62.83886
726.65        62.90861
727.07        63.14594
727.49        63.29284
727.91        63.53645
728.33        63.77478
728.75        63.95616
729.17        64.05617
729.59         64.0733
730.01        64.02266
730.43        63.93853
730.85        63.83806
731.27        63.71783
731.69        63.59172
732.10        63.47687
732.52        63.37891
732.94         63.3156
733.36        63.30202
733.78        63.23141
734.20         63.0885
734.62        63.12975
735.04         63.4325
735.46        62.93849
735.88         63.5148
736.30         63.6296
736.72        63.83231
737.13        64.05315
737.55        64.22874
737.97        64.50347
738.39         64.7457
738.81        64.48152
739.23        63.84622
739.65        63.66102
740.06        63.91745
740.48         63.9966
740.90        63.86709
741.32        63.93353
741.74        64.18184
742.16        64.35501
742.57        64.42255
742.99        64.44067
743.41        64.41144
743.83        64.32165
744.25        64.18264
744.67        63.98394
745.08        63.80425
745.50        63.75402
745.92        63.86105
746.34        64.09036
746.75         64.3409
747.17        64.43258
747.59        64.33447
748.01         64.1023
748.42        63.83496
748.84        63.71151
749.26        63.77535
749.68         63.9081
750.09        64.05017
750.51        64.23824
750.93        64.37663
751.35        64.23061
751.76        63.85855
752.18        63.60223
752.60        63.49708
753.01        63.37803
753.43         63.2453
753.85        63.21048
754.27        63.27937
754.68        63.42641
755.10        63.60837
755.52        63.75003
755.93        63.81839
756.35        63.82606
756.77        63.83814
757.18        63.82275
757.60        63.78229
758.02        63.97345
758.43        64.37911
758.85        63.71223
759.26        64.12151
759.68         63.7465
760.10        63.35783
760.51        63.56111
760.93        64.24464
761.34        64.19289
761.76        63.98254
762.18        63.92878
762.59         64.2486
763.01        64.45431
763.42        64.54272
763.84        64.54414
764.26        64.46292
764.67        64.35067
765.09         64.2538
765.50        63.98849
765.92        63.67732
766.33        63.63531
766.75        63.80587
767.16        63.92241
767.58        63.90475
768.00        63.96893
768.41        64.10828
768.83        64.14466
769.24        64.06899
769.66         63.9928
770.07        63.93681
770.49        63.79891
770.90        63.67805
771.32        63.97374
771.73        64.54751
772.15        64.75294
772.56        64.54939
772.97         64.1735
773.39        63.80222
773.80         63.7659
774.22        64.04629
774.63        64.32315
775.05        64.46593
775.46        64.61188
775.88        64.69606
776.29        64.61864
776.70        64.44504
777.12        64.38902
777.53        64.49281
777.95        64.64076
778.36        64.79691
778.77        64.86881
779.19        64.85014
779.60        64.80888
780.02        64.70695
780.43        64.56866
780.84          64.435
781.26        63.98817
781.67        63.46624
782.09        63.95284
782.50        65.15814
782.91        65.36633
783.33        64.59808
783.74        64.36709
784.15         64.7145
784.57        64.71607
784.98        64.44196
785.39        64.43697
785.81        64.73769
786.22        65.18071
786.63        65.61816
787.04        65.81001
787.46        65.71984
787.87        65.42284
788.28        65.07693
788.70        64.89658
789.11        64.91554
789.52        65.09071
789.93        65.33235
790.35        65.48431
790.76        65.50809
791.17        65.44031
791.58        65.34038
792.00        65.25437
792.41        65.21481
792.82        65.28324
793.23        65.39397
793.65        65.22355
794.06        64.87811
794.47        64.91582
794.88        65.26781
795.29         65.3933
795.71        65.24182
796.12        65.14206
796.53        65.16071
796.94        65.27398
797.35        65.48865
797.76        65.79903
798.18         66.0944
798.59        66.24608
799.00        66.19829
799.41        65.99357
799.82        65.71184
800.23         65.4933
800.64        65.38223
801.06        65.31298
801.47        65.30833
801.88        65.31434
802.29        65.31036
802.70        65.31883
803.11        65.32059
803.52        65.27481
803.93        65.19408
804.34        65.09583
804.75        65.02862
805.17        65.12279
805.58        65.43492
805.99        65.71286
806.40        65.93414
806.81        66.50624
807.22         67.1797
807.63        66.95528
808.04        66.00006
808.45        65.48117
808.86        65.51828
809.27        65.50732
809.68        65.37753
810.09        65.30113
810.50        65.26842
810.91        65.23971
811.32        65.29141
811.73        65.53787
812.14        65.98122
812.55        66.57558
812.96        67.14905
813.37        67.38299
813.78        67.19287
814.19         66.6942
814.60        66.07771
815.01        65.60413
815.42        65.34105
815.83        65.21981
816.24        65.20932
816.65        65.24413
817.05        65.30064
817.46        65.39288
817.87        65.50619
818.28        65.56001
818.69         65.5415
819.10        65.43978
819.51        65.35034
819.92        65.45779
820.33        65.78822
820.74         66.2752
821.14        66.74587
821.55        66.91965
821.96        66.74097
822.37        66.30099
822.78         65.7682
823.19        65.43317
823.60         65.3875
824.00        65.56458
824.41        65.82611
824.82        66.03051
825.23        66.10499
825.64        66.10674
826.04        66.03798
826.45        65.85667
826.86         65.5956
827.27         65.2739
827.68        64.96999
828.08        64.85139
828.49        64.90965
828.90        65.11094
829.31        65.42654
829.72        65.80156
830.12        66.21304
830.53        66.61189
830.94         66.8852
831.35        66.80822
831.75        66.36739
832.16         65.6144
832.57         64.8055
832.97        64.32898
833.38        64.28728
833.79        64.56929
834.20        65.01403
834.60        65.34912
835.01         65.4943
835.42        65.56612
835.82        65.61523
836.23        65.65322
836.64        65.72875
837.04        65.78072
837.45        65.90276
837.86        66.32724
838.26        67.08723
838.67         68.0657
839.08        68.95396
839.48        69.16055
839.89        68.55038
840.29        67.35175
840.70        66.07374
841.11        65.27296
841.51        65.10629
841.92        65.40281
842.33         65.9957
842.73        66.58206
843.14        66.93095
843.54        67.16621
843.95        67.33034
844.35        67.54784
844.76        67.81831
845.17        68.06813
845.57        68.19885
845.98        68.04636
846.38        67.61809
846.79        66.99033
847.19        66.32958
847.60        65.86999
848.00        65.69273
848.41         65.7137
848.81        65.87881
849.22        66.00629
849.62        66.07059
850.03        66.10879
850.43        66.12617
850.84        66.06636
851.24        65.97126
851.65        65.77638
852.05        65.64318
852.46         65.7607
852.86         66.1494
853.27        66.72584
853.67        67.22768
854.07        67.40009
854.48        67.17448
854.88        66.65844
855.29        65.96243
855.69        65.42174
856.10        65.10071
856.50        64.99863
856.90        65.01573
857.31        64.99635
857.71         64.9365
858.12        64.81971
858.52         64.7468
858.92        64.76574
859.33        64.86909
859.73         65.0758
860.13        65.23238
860.54        65.11983
860.94        64.74731
861.34        64.16825
861.75        63.61882
862.15        63.52504
862.55        63.95381
862.96        64.74419
863.36        65.65205
863.76        66.17349
864.17        66.14565
864.57        65.74836
864.97        65.13077
865.38        64.54029
865.78        64.10886
866.18        63.76523
866.58        63.56189
866.99        63.59167
867.39        63.87334
867.79         64.3778
868.19        64.98384
868.60        65.47027
869.00        65.80013
869.40        65.98222
869.80        66.04457
870.21        66.06207
870.61         66.1205
871.01        66.15202
871.41        66.09946
871.81        65.88628
872.22        65.49901
872.62        64.95784
873.02        64.41283
873.42        64.10345
873.82        64.09035
874.22        64.32453
874.63        64.56983
875.03        64.46379
875.43        63.93203
875.83        63.09895
876.23        62.27835
876.63        61.95321
877.03        62.22591
877.44        62.91955
877.84        63.74344
878.24        64.21706
878.64        64.15158
879.04        63.55972
879.44        62.78825
879.84        62.47992
880.24        62.72918
880.64        63.28114
881.04         63.8058
881.44        63.80048
881.84        63.15847
882.24        62.10238
882.65        60.96847
883.05        60.25159
883.45        60.10511
883.85        60.38742
884.25        60.95577
884.65        61.55762
885.05        62.06839
885.45        62.53849
885.85        62.95181
886.25        63.29256
886.65         63.5582
887.05        63.71117
887.45        63.75449
887.85         63.7254
888.25         63.6378
888.65        63.50151
889.04        63.32378
889.44        63.13003
889.84        62.92665
890.24        62.73468
890.64        62.57286
891.04         62.4642
891.44         62.4187
891.84        62.43171
892.24        62.50348
892.64        62.62725
893.04        62.80291
893.44        63.04416
893.83        63.33484
894.23        63.59734
894.63        63.82608
895.03        63.99495
895.43        64.17215
895.83        64.48601
896.23        64.92375
896.63        65.41175
897.02        65.74732
897.42        65.63834
897.82        65.05211
898.22        64.15264
898.62        63.15602
899.01        62.36641
899.41        61.90392
899.81        61.67897
900.21        61.69418
900.61        61.94275
901.00        62.37025
901.40        62.95566
901.80        63.53301
902.20        63.82953
902.59        63.79276
902.99        63.47829
903.39        63.02986
903.79         62.7057
904.18        62.58041
904.58         62.5844
904.98        62.70023
905.38        62.90079
905.77        63.16354
906.17        63.53618
906.57        63.88788
906.96        63.99201
907.36        63.80031
907.76        63.37266
908.15        62.98518
908.55        63.06979
908.95        63.70166
909.34        64.73381
909.74        65.76968
910.14        66.24229
910.53        65.97122
910.93         65.1665
911.33        64.07804
911.72        63.07708
912.12        62.38364
912.52        61.93481
912.91        61.69626
913.31        61.62966
913.70        61.70193
914.10        61.87549
914.49        62.26253
914.89         62.9453
915.29        63.90203
915.68        65.08633
916.08        66.04578
916.47         66.1273
916.87        65.26389
917.26        63.66997
917.66        62.07183
918.05        61.40939
918.45        61.86551
918.84        63.20841
919.24        64.81937
919.64        65.71217
920.03        65.59173
920.42        64.72815
920.82        63.65406
921.21        63.13876
921.61        63.37191
922.00        64.14077
922.40        65.05053
922.79        65.55839
923.19        65.45824
923.58        64.97916
923.98        64.40897
924.37        64.08916
924.77        64.12215
925.16        64.33444
925.55        64.60439
925.95        64.72392
926.34        64.63579
926.74        64.41528
927.13        64.06902
927.52        63.52606
927.92        62.87402
928.31        62.14748
928.70        61.54778
929.10        61.35373
929.49        61.59965
929.89        62.14989
930.28        62.93821
930.67        63.72594
931.07        64.35934
931.46        64.93849
931.85        65.26547
932.24        65.08926
932.64        64.45916
933.03        63.44804
933.42        62.48353
933.82        62.18611
934.21        62.67181
934.60        63.79874
934.99        65.17466
935.39        66.06622
935.78        66.26678
936.17         65.8841
936.56        65.19104
936.96        64.62283
937.35        64.31621
937.74         64.1516
938.13        63.95509
938.53        63.49509
938.92        62.75782
939.31        61.89188
939.70        61.12602
940.09        60.74799
940.49        60.78065
940.88        61.14811
941.27        61.69396
941.66        62.12181
942.05        62.32913
942.44        62.41852
942.84        62.44486
943.23        62.49619
943.62        62.60917
944.01        62.68372
944.40        62.82066
944.79        63.21032
945.18        63.84395
945.57        64.67835
945.97        65.32154
946.36        65.20499
946.75        64.21716
947.14        62.63283
947.53        61.00789
947.92        60.13208
948.31        60.18062
948.70         60.9287
949.09        62.04478
949.48        62.93926
949.87        63.38061
950.26        63.50274
950.65        63.43743
951.04        63.41915
951.43        63.52037
951.82        63.63432
952.21        63.65391
952.60        63.44365
952.99         63.0082
953.38        62.45873
953.77        61.95946
954.16        61.73845
954.55        61.83862
954.94        62.16088
955.33        62.59858
955.72        62.95845
956.11        63.14653
956.50        63.21784
956.89        63.08489
957.28        62.62715
957.66        61.86217
958.05        60.87509
958.44        59.94709
958.83        59.47569
959.22        59.52856
959.61        60.03645
960.00        60.70544
960.39        60.97554
960.78        60.69316
961.16        60.01012
961.55        59.33123
961.94        59.19393
962.33        59.71874
962.72         60.7697
963.11        61.98615
963.49        62.70026
963.88        62.59927
964.27        61.86916
964.66        60.99154
965.04        60.70402
965.43        61.11652
965.82        62.08899
966.21        63.06874
966.60        63.01987
966.98          61.699
967.37        59.59209
967.76        57.54383
968.15        56.58675
968.53        56.90387
968.92        58.23664
969.31        59.97809
969.69        60.91328
970.08        60.56547
970.47        59.32299
970.86        58.00053
971.24        57.76303
971.63        58.83999
972.02        60.88753
972.40        63.18068
972.79        64.04316
973.17        63.05142
973.56        60.85759
973.95        58.41224
974.33        56.90686
974.72        56.61116
975.11        57.13129
975.49        58.18661
975.88        59.17721
976.26        59.84994
976.65        60.35238
977.04        60.64615
977.42        60.62326
977.81        60.28551
978.19        59.60942
978.58        58.94083
978.96        58.84883
979.35        59.43247
979.74        60.56514
980.12        61.94643
980.51        62.76629
980.89        62.90226
981.28        62.57125
981.66        62.06926
982.05        61.79939
982.43        61.89948
982.82        62.19663
983.20        62.80323
983.59        63.82212
983.97        65.26932
984.35        67.08785
984.74        68.70969
985.12        69.42245
985.51        68.97877
985.89        67.57162
986.28        65.90491
986.66        64.97529
987.04        65.09574
987.43        66.04153
987.81        67.24091
988.20         67.4698
988.58        66.43366
988.96          64.468
989.35        62.45755
989.73        61.64558
990.12        62.22754
990.50         63.8507
990.88        65.57787
991.27        65.77621
991.65        64.08837
992.03        61.16932
992.42        58.17168
992.80        56.61441
993.18         56.8527
993.56        58.47404
993.95        60.73279
994.33        62.34196
994.71        62.67331
995.10        62.17868
995.48        61.42274
995.86        61.35059
996.24        62.19234
996.63        63.47424
997.01        64.91898
997.39        65.68047
997.77        65.42411
998.15        64.59011
998.54        63.35634
998.92        61.81127
999.30        60.19479
999.68        58.49623
1000.06        57.31502
1000.45        57.47416
1000.83        59.17529
1001.21        62.34993
1001.59        66.12704
1001.97        68.32981
1002.35        68.13554
1002.73        66.15246
1003.12        63.79921
1003.50        62.90924
1003.88        63.98875
1004.26        66.41779
1004.64        69.54717
1005.02        71.92442
1005.40        72.81953
1005.78        72.80348
1006.16        71.85423
1006.54        69.91452
1006.92        67.33527
1007.30        64.24901
1007.69        61.70753
1008.07         61.0652
1008.45         62.6927
1008.83        66.31699
1009.21        70.98711
1009.59        74.15131
1009.97        74.47386
1010.35        72.59635
1010.73        69.28862
1011.11        65.76509
1011.49        62.68035
1011.86        59.88655
1012.24        57.80679
1012.62        56.96079
1013.00        57.35426
1013.38        58.93886
1013.76        61.38667
1014.14        63.58653
1014.52        64.82046
1014.90        65.14841
1015.28        64.67915
1015.66        63.75384
1016.04        62.55763
1016.41        60.99763
1016.79        59.31314
1017.17        58.09863
1017.55        57.56864
1017.93        57.64379
1018.31        58.11382
1018.69        58.59108
1019.06        58.97797
1019.44        59.41938
1019.82          59.813
1020.20        59.94777
1020.58        59.72292
1020.95        59.01096
1021.33        58.37438
1021.71        58.41028
1022.09        59.27413
1022.46        61.21732
1022.84        63.45479
1023.22         64.0377
1023.60        62.40901
1023.97        59.03941
1024.35        56.46776
1024.73        57.81625
