SpectraSmart Spectrum 2.9.0.0
--------- Device Information -----------
Spectrum Name :  反射率_0
Saving Time :  2024/04/26 22:36:57
Spectro-Module Model Name : SE2030-DUVN
Spectro-Module Serial Number : OS361AC55029948
Wavelength Start : 200
Wavelength End : 1025
Wavelength Unit : Wavelength(nm)
Spectrum Unit : Reflectance(%)
-----------Spectrum Setting ------------
Integration Time : 20ms
Average : 10
Boxcar : 0
Background removal :  enabled
linearity correction :  enabled
SC :  disabled
Intensity correction :  disabled
DWT denoise :  enabled
savitzky-golay :  disabled
FFT :  disabled
Running average :  disabled
Kalman :  disabled
High pass :  disabled
---------------BEGIN--------------------
Wavelength(nm)             Reflectance(%)
200.29               0
200.75        44.23562
201.21        43.60307
201.67         43.3265
202.13        42.94773
202.58        42.28885
203.04        41.77421
203.50        41.82946
203.96        43.25679
204.42        46.50029
204.88        51.22862
205.34         56.3405
205.80        60.07462
206.26        61.56437
206.72        60.80315
207.18        59.12543
207.64        57.83475
208.10        57.04271
208.55        57.00896
209.01        56.14681
209.47         52.1072
209.93        46.59813
210.39        42.60804
210.85        41.25252
211.31        42.99879
211.77         48.7165
212.23        62.40003
212.69        99.21058
213.14        172.4862
213.60        189.7666
214.06        153.8376
214.52         122.872
214.98        104.7738
215.44        92.20999
215.90        79.46097
216.36        68.31126
216.81        62.90651
217.27        64.78704
217.73          75.476
218.19        92.22397
218.65        97.24092
219.11        84.69824
219.57        66.77245
220.02        54.41452
220.48        52.26855
220.94        58.77401
221.40        74.02999
221.86         96.2009
222.32        107.4432
222.77        95.37544
223.23        73.16862
223.69        54.45777
224.15        46.37128
224.61        46.19764
225.06        49.29557
225.52        53.08156
225.98        54.98468
226.44         54.7492
226.90        53.54973
227.36        51.63104
227.81        49.31136
228.27        47.14688
228.73        44.96824
229.19         43.3611
229.65        43.02784
230.10        43.85778
230.56        45.65298
231.02        47.58453
231.48        48.27004
231.93         47.4567
232.39         45.9102
232.85        44.37204
233.31        43.88884
233.77        44.56102
234.22        45.98863
234.68        47.72078
235.14        49.19596
235.60        50.20626
236.05        51.01532
236.51        51.50805
236.97        51.46666
237.43        50.89867
237.88        49.84505
238.34         48.8396
238.80        49.05543
239.26        51.00492
239.71        55.22335
240.17        61.16977
240.63        66.90361
241.08        70.96848
241.54        72.53105
242.00        73.42698
242.46        78.34707
242.91        90.85744
243.37        113.2069
243.83        145.4105
244.28        170.6105
244.74        166.3213
245.20        134.9711
245.66        99.99591
246.11        81.19082
246.57        78.55326
247.03        85.41558
247.48        95.49567
247.94        97.94656
248.40         92.1562
248.85        84.19206
249.31        77.38844
249.77        72.43286
250.22         68.5113
250.68        64.09414
251.14        59.39247
251.59        56.82704
252.05        58.22487
252.51         63.1574
252.96        68.09572
253.42        70.04509
253.88        69.19205
254.33         66.3183
254.79        64.69552
255.25         66.9574
255.70        72.62907
256.16        80.56189
256.62        86.78473
257.07        85.62044
257.53        79.15136
257.99         71.2771
258.44        65.04929
258.90        63.10172
259.35         64.0717
259.81        66.73489
260.27        69.33022
260.72        69.77177
261.18        68.26982
261.63        65.58604
262.09        63.04647
262.55        61.44782
263.00        60.69509
263.46        60.51519
263.91        60.25515
264.37        59.47182
264.83        58.10482
265.28        56.40191
265.74        54.89314
266.19        53.87892
266.65        53.45933
267.11        53.36603
267.56        53.36107
268.02        53.09373
268.47        52.45889
268.93        51.61546
269.38        50.61021
269.84        49.57864
270.30        48.55708
270.75        47.48061
271.21        46.47215
271.66        45.65577
272.12        45.04276
272.57        44.58094
273.03        44.08222
273.48        43.22606
273.94        42.03271
274.39        40.59415
274.85        39.22275
275.31        38.19606
275.76        37.53391
276.22        37.16866
276.67        36.89121
277.13        36.50407
277.58        35.90661
278.04        35.20276
278.49        34.44757
278.95        33.84323
279.40        33.37206
279.86        33.03612
280.31        32.68298
280.77        32.21829
281.22         31.5898
281.68        30.90706
282.13        30.25931
282.59         29.8542
283.04        29.67789
283.50        29.68707
283.95        29.73175
284.41        29.59257
284.86        29.23124
285.32        28.76261
285.77        28.31941
286.22        28.14918
286.68        28.28395
287.13        28.58828
287.59        28.95273
288.04         29.1655
288.50        29.18925
288.95         29.0631
289.41        28.84746
289.86        28.55843
290.32         28.2683
290.77         27.9712
291.22        27.74047
291.68        27.66982
292.13        27.77501
292.59        28.06204
293.04        28.50936
293.50        29.09163
293.95        29.77568
294.40        30.56046
294.86        31.41895
295.31        32.30109
295.77        33.20205
296.22        34.11922
296.68         35.0717
297.13        36.07924
297.58        37.16277
298.04        38.32037
298.49         39.5629
298.95        40.92538
299.40        42.38528
299.85        43.91946
300.31        45.48246
300.76        46.98517
301.21        48.41633
301.67         49.8251
302.12        51.19807
302.58        52.59702
303.03        54.00716
303.48        55.44168
303.94        56.96186
304.39        58.60193
304.84        60.37793
305.30        62.27314
305.75        64.17142
306.20        65.97338
306.66        67.66359
307.11        69.24451
307.57        70.76231
308.02         72.1954
308.47        73.58102
308.93        74.92089
309.38        76.26025
309.83        77.77842
310.29        79.49295
310.74        81.33992
311.19        83.13584
311.65        84.54839
312.10         85.4827
312.55         86.0365
313.00        86.43224
313.46         87.0271
313.91        87.89611
314.36        88.96686
314.82        90.08852
315.27        91.02435
315.72        91.68415
316.18        92.16908
316.63         92.5591
317.08          93.022
317.53        93.60764
317.99        94.24733
318.44        94.88715
318.89        95.41886
319.35        95.80435
319.80        96.08062
320.25        96.29857
320.70        96.53869
321.16        96.82364
321.61        97.17184
322.06        97.51875
322.51        97.76698
322.97        97.88835
323.42        97.91917
323.87        97.99121
324.32        98.33934
324.78        98.96506
325.23        99.85842
325.68        100.7273
326.13        101.0948
326.59        100.8526
327.04        100.1814
327.49         99.4128
327.94        99.10153
328.39        99.39366
328.85        100.0961
329.30         101.073
329.75        101.8332
330.20        102.2006
330.66        102.2871
331.11        102.2718
331.56        102.3697
332.01        102.6628
332.46        103.0485
332.92        103.4158
333.37        103.7518
333.82        103.9815
334.27        104.1797
334.72          104.37
335.17         104.566
335.63        104.7799
336.08        105.0541
336.53        105.4501
336.98        106.1125
337.43        107.0483
337.88         108.184
338.34        109.3376
338.79        110.3202
339.24         110.994
339.69        111.4061
340.14        111.5883
340.59        111.6198
341.05        111.5863
341.50        111.4791
341.95        111.4059
342.40        111.5242
342.85        111.8757
343.30        112.4329
343.75        113.1177
344.20        113.7798
344.66        114.3585
345.11        114.8691
345.56        115.3012
346.01        115.6553
346.46        115.9466
346.91        116.1774
347.36        116.3666
347.81        116.5628
348.26        116.7706
348.72        116.9611
349.17        117.1546
349.62        117.4153
350.07        117.7393
350.52        118.1376
350.97        118.4226
351.42        118.2953
351.87        117.7333
352.32        116.8375
352.77        115.9775
353.22        115.6939
353.67        116.0747
354.13         116.958
354.58        117.9291
355.03        118.2526
355.48        117.7446
355.93        116.6189
356.38        115.3539
356.83        114.6736
357.28        114.7193
357.73        115.2479
358.18        115.8094
358.63         115.681
359.08        114.7039
359.53        113.1572
359.98        111.4649
360.43        110.2346
360.88         109.609
361.33        109.3843
361.78        109.2982
362.23        108.9443
362.68        108.2159
363.13        107.2702
363.58        106.2625
364.03        105.4117
364.48        104.7718
364.93        104.2375
365.38        103.7431
365.83        103.2085
366.28        102.6014
366.73        101.9659
367.18        101.2862
367.63        100.5208
368.08        99.68016
368.53         98.7858
368.98        97.90997
369.43        97.16851
369.88        96.58893
370.33        96.13842
370.78         95.7654
371.23        95.38383
371.68        94.95515
372.13        94.48723
372.58        93.98538
373.03         93.4608
373.48        92.91134
373.93        92.32421
374.38        91.67894
374.83        90.95727
375.28        90.17117
375.72        89.32595
376.17        88.52908
376.62        87.82578
377.07        87.24209
377.52         86.7879
377.97        86.41671
378.42        86.06061
378.87        85.69947
379.32         85.3148
379.77        85.00398
380.22        84.91364
380.67        85.03471
381.11        85.34035
381.56        85.52226
382.01        85.16761
382.46        84.23895
382.91        82.93912
383.36        81.65873
383.81        80.92934
384.26        80.83332
384.71         81.1874
385.15        81.74265
385.60        82.05541
386.05        81.98254
386.50        81.65668
386.95        81.15733
387.40        80.61588
387.85        80.10261
388.29        79.52317
388.74        79.03407
389.19        78.66008
389.64         78.3957
390.09        78.22898
390.54         78.0905
390.98        77.83681
391.43        77.49265
391.88        77.10232
392.33         76.7312
392.78        76.47198
393.23        76.33855
393.67        76.24759
394.12        76.24594
394.57        76.26279
395.02        76.26647
395.47        76.23837
395.91        76.15759
396.36        75.96252
396.81        75.68981
397.26        75.38313
397.71        75.04501
398.15        74.72394
398.60        74.53168
399.05        74.16092
399.50        73.75112
399.95        74.04878
400.39        74.81987
400.84         74.6861
401.29        73.72289
401.74         73.2542
402.18        73.35277
402.63        73.17844
403.08        72.77023
403.53        72.57461
403.97        72.59951
404.42         72.7126
404.87        72.81335
405.32        72.75031
405.76        72.49284
406.21        72.13924
406.66        71.78358
407.11        71.62342
407.55        71.73496
408.00        71.87837
408.45        72.01059
408.90        72.42425
409.34         72.8531
409.79        72.40303
410.24         71.3364
410.68        70.81112
411.13         70.9271
411.58        71.08038
412.03         71.1424
412.47        71.16653
412.92         71.0843
413.37        70.92248
413.81        70.75607
414.26        70.75966
414.71        70.93575
415.15        71.26028
415.60        71.61674
416.05        71.88294
416.49        72.01192
416.94        72.02242
417.39        71.97562
417.83        71.95161
418.28        71.98222
418.73        72.04845
419.17        72.11169
419.62        72.11357
420.07        72.03513
420.51        71.87982
420.96        71.74616
421.41        71.68217
421.85        71.66917
422.30        71.86979
422.74         72.1031
423.19        71.94695
423.64        71.48121
424.08        71.39003
424.53        71.68725
424.98        71.88106
425.42         71.9659
425.87        72.26106
426.31        72.66252
426.76        72.76617
427.21        72.60638
427.65        72.39099
428.10        72.14644
428.54        72.38861
428.99        72.21651
429.44        72.24562
429.88        72.29173
430.33        72.76462
430.77        73.41287
431.22        73.94351
431.66        74.18536
432.11        73.64801
432.56        72.61137
433.00        72.52809
433.45        73.54543
433.89        74.04796
434.34        73.45506
434.78        74.96991
435.23        74.21692
435.67        72.63679
436.12         73.1217
436.57        73.19527
437.01          73.831
437.46        74.04736
437.90        73.86655
438.35        73.57066
438.79        73.65337
439.24        73.71695
439.68        73.86295
440.13        74.18433
440.57        74.64632
441.02         74.7942
441.46        74.66075
441.91        75.18472
442.35        75.99626
442.80        75.75874
443.24         74.7029
443.69        74.61549
444.13        75.44275
444.58         75.7928
445.02        75.62452
445.47        75.74232
445.91        76.12439
446.36        76.39427
446.80        76.51493
447.24        76.58298
447.69         76.6325
448.13        76.69587
448.58        76.80307
449.02        76.91417
449.47        77.01005
449.91        77.03087
450.36          76.993
450.80        76.89047
451.25        76.80875
451.69        76.81543
452.13        76.93844
452.58        77.14309
453.02        77.34821
453.47        77.43275
453.91         77.3607
454.36        77.18977
454.80        76.99668
455.24         76.7699
455.69        76.52901
456.13        76.48694
456.58        76.72567
457.02        76.01736
457.46        76.18588
457.91        76.25256
458.35        76.51689
458.79        76.34365
459.24        75.80301
459.68        75.05152
460.13        74.35482
460.57        74.21716
461.01        74.81419
461.46        74.77975
461.90        75.74397
462.34        76.55138
462.79        76.71555
463.23        76.43707
463.68        76.55511
464.12         76.1796
464.56        75.65978
465.01        75.09689
465.45        74.55885
465.89        74.22045
466.34        74.05848
466.78        74.18061
467.22        74.55416
467.67        74.04893
468.11        74.14274
468.55         74.0714
468.99         74.2487
469.44        74.28865
469.88        74.20012
470.32        74.16624
470.77        74.17622
471.21         74.1702
471.65        74.13567
472.10        74.05144
472.54        73.99537
472.98        73.89051
473.42        73.77454
473.87        73.70938
474.31        73.61053
474.75         73.3728
475.20         73.1417
475.64        72.72147
476.08        73.24851
476.52        73.22311
476.97        72.87375
477.41        72.93349
477.85        73.55698
478.29         72.5929
478.74        72.62013
479.18        73.70029
479.62        73.22342
480.06        73.38328
480.50        73.14595
480.95        73.05049
481.39        73.16485
481.83        72.50471
482.27        72.57474
482.72        73.25907
483.16        72.83692
483.60        72.94591
484.04        72.93468
484.48        73.11682
484.93        73.16829
485.37        72.76093
485.81        72.11485
486.25        71.75025
486.69        70.66882
487.14        73.44671
487.58         74.4413
488.02        73.45493
488.46        72.18727
488.90        72.27328
489.34        73.23238
489.79        74.60997
490.23        73.84216
490.67        73.21191
491.11        72.44306
491.55        72.25405
491.99        72.60163
492.43        72.54966
492.88        72.10367
493.32        71.94782
493.76        72.11095
494.20         72.2526
494.64        72.35109
495.08        72.49256
495.52        72.61301
495.96        72.68281
496.41         72.6721
496.85        72.42229
497.29        71.97188
497.73        72.08199
498.17        71.81763
498.61        71.90649
499.05        72.02441
499.49         72.0779
499.93        71.81301
500.37        72.00867
500.82        72.54417
501.26        72.09981
501.70        71.94234
502.14        71.91822
502.58         72.3478
503.02        72.54355
503.46        72.48098
503.90        72.52097
504.34        72.61668
504.78        72.54999
505.22        72.30994
505.66        71.97874
506.10        71.67302
506.54        71.49786
506.98        71.47238
507.42        71.74971
507.86        72.06505
508.30        71.95892
508.74         72.1103
509.18        71.94421
509.62        71.75553
510.06        71.63124
510.50        71.61115
510.94        71.64845
511.38        71.71206
511.82        71.77619
512.26         71.8259
512.70        71.87883
513.14        71.93267
513.58        71.97775
514.02        72.01396
514.46        72.03583
514.90        72.05765
515.34        72.10871
515.78        72.18811
516.22         72.2794
516.66        72.35546
517.10        72.37237
517.54        72.32264
517.98        72.23002
518.42        72.10754
518.86         71.9756
519.30        71.85065
519.74        71.72934
520.18        71.64691
520.62        71.65567
521.06        71.75896
521.50        71.94265
521.93        72.14476
522.37        72.23813
522.81        72.20438
523.25        72.07522
523.69        71.92033
524.13        71.85416
524.57        71.89799
525.01        72.00387
525.45         72.1213
525.89        72.16795
526.32        72.11371
526.76        72.01775
527.20        71.87981
527.64        71.70409
528.08        71.50961
528.52        71.29253
528.96        71.12707
529.40        71.13049
529.83        71.30816
530.27        71.62747
530.71        71.95539
531.15        72.08437
531.59        71.96925
532.03        71.67122
532.46        71.30392
532.90        71.09544
533.34        71.08251
533.78        71.17949
534.22        71.31195
534.66         71.3847
535.09        71.30051
535.53        71.21893
535.97        70.74282
536.41         70.5667
536.85        70.58865
537.28        70.66399
537.72        70.76472
538.16        70.91294
538.60        71.08806
539.04        71.27785
539.47        71.42907
539.91        71.50594
540.35        71.48472
540.79        71.37642
541.22        71.22772
541.66        71.14024
542.10        71.13094
542.54        71.18106
542.97        71.23031
543.41        71.21484
543.85        71.11348
544.29        70.96214
544.72        70.80844
545.16        70.76599
545.60        70.84043
546.04        71.00172
546.47        71.20016
546.91        71.35597
547.35        71.43982
547.79        71.45459
548.22        71.42041
548.66        71.41457
549.10        71.49381
549.53         71.4678
549.97         71.3723
550.41        71.22591
550.84        71.09382
551.28        71.16615
551.72        71.36877
552.15        71.41083
552.59        71.30502
553.03        71.09216
553.46        71.13593
553.90        71.09076
554.34        71.04957
554.77        71.08941
555.21        71.21836
555.65        71.15157
556.08        71.30325
556.52        71.28394
556.96        71.21552
557.39         71.2588
557.83         71.3662
558.27        71.13057
558.70        70.64365
559.14        70.49074
559.57        70.64905
560.01        70.73858
560.45        70.74377
560.88         70.8333
561.32        71.00677
561.75        71.22649
562.19        71.44534
562.63        71.31008
563.06        70.92025
563.50        71.01897
563.93        71.24964
564.37        71.31263
564.80        71.14922
565.24        70.91552
565.68        70.52351
566.11        71.22032
566.55        70.46027
566.98        70.37666
567.42        70.30346
567.85         70.3521
568.29           70.54
568.72        70.79609
569.16         71.1125
569.60        71.36973
570.03         71.3316
570.47        71.39914
570.90        71.55708
571.34        71.14329
571.77        71.19171
572.21        71.81277
572.64        71.24923
573.08        71.71787
573.51        71.09209
573.95        70.95403
574.38        71.15063
574.82        70.93337
575.25        70.55865
575.69        71.09225
576.12         71.4067
576.56        70.58424
576.99        70.58925
577.42        70.44293
577.86        71.01807
578.29        71.35429
578.73        71.00324
579.16        71.46752
579.60        71.14471
580.03        71.01438
580.47        70.55836
580.90        71.67957
581.33        71.33266
581.77        71.56202
582.20        70.43881
582.64        71.08915
583.07        71.30952
583.51         71.3382
583.94        71.08356
584.37        71.57658
584.81        71.64999
585.24        71.48067
585.68        70.90028
586.11        70.89063
586.54        71.11516
586.98        70.86715
587.41        70.51272
587.85        70.71591
588.28        70.45465
588.71        70.70802
589.15        70.39465
589.58        70.73809
590.01        70.83713
590.45        70.60187
590.88          71.605
591.31        71.31213
591.75        70.49551
592.18        70.18367
592.61          70.451
593.05        71.10569
593.48        71.04637
593.91        71.02966
594.35        70.96578
594.78        70.38866
595.21        69.86806
595.65        70.06561
596.08        71.16332
596.51        71.32391
596.94        71.00119
597.38        70.81296
597.81         70.8505
598.24        71.38181
598.68        71.03044
599.11        70.48035
599.54        71.20787
599.97        70.87528
600.41        70.76672
600.84        69.79947
601.27        70.65459
601.70        70.77216
602.14        71.10958
602.57        70.96075
603.00        70.69219
603.43        69.92043
603.87        70.42175
604.30         70.8719
604.73        71.13992
605.16        70.14545
605.60        70.37205
606.03        69.98775
606.46         69.7836
606.89        70.09592
607.32        70.67258
607.76        70.28215
608.19        70.58087
608.62        70.52222
609.05        70.48239
609.48        70.52042
609.92        71.47791
610.35        70.97358
610.78        70.07699
611.21        70.34201
611.64         70.3236
612.07        70.78942
612.50        70.76021
612.94        70.83156
613.37        70.83253
613.80        70.44936
614.23        69.86144
614.66        69.62512
615.09        70.16284
615.52         70.3445
615.96        70.19496
616.39        70.31528
616.82        70.63367
617.25        70.07182
617.68        70.15517
618.11         70.1333
618.54        70.41722
618.97        70.61462
619.40        70.63786
619.84        70.60817
620.27        70.17712
620.70        70.15045
621.13        70.32187
621.56        70.11143
621.99         69.5648
622.42        69.19861
622.85         69.1428
623.28        69.25517
623.71        69.45056
624.14        69.70317
624.57        70.01687
625.00        69.69269
625.43        70.01167
625.86        69.97512
626.29        70.07498
626.72        69.37979
627.15        69.96247
627.58         69.9648
628.01        69.84955
628.44         70.2503
628.87         69.8212
629.30        69.62533
629.73        69.34859
630.16        69.40813
630.59        69.54504
631.02        69.76643
631.45        69.99864
631.88        70.10957
632.31        70.00941
632.74        70.66496
633.17        70.23339
633.60        70.20325
634.03        70.04396
634.46        69.79287
634.89        69.50044
635.32        69.30554
635.75        69.26072
636.18        69.24837
636.61        69.25965
637.04        69.31265
637.47        69.39026
637.89        69.47913
638.32        69.53564
638.75        69.55748
639.18        69.53918
639.61         69.4772
640.04        69.40562
640.47        69.36856
640.90        69.37618
641.33        69.45058
641.76        69.56457
642.18        69.52171
642.61        69.53563
643.04        69.43188
643.47        69.33173
643.90        69.30495
644.33        69.36533
644.76        69.48444
645.18        69.60081
645.61        69.60218
646.04        69.47663
646.47        69.27168
646.90        69.05726
647.33        68.93222
647.75        68.89902
648.18        68.98879
648.61         69.2048
649.04        69.28677
649.47        69.14184
649.89        69.88145
650.32         69.6143
650.75        69.60351
651.18         69.3807
651.61        69.38886
652.03        69.62856
652.46        69.68585
652.89        69.54779
653.32        69.52715
653.74        69.62947
654.17        69.21209
654.60        69.71922
655.03         69.4528
655.46        67.85716
655.88        68.16823
656.31        69.75502
656.74        66.59696
657.16        70.86491
657.59         76.3313
658.02        70.97523
658.45        70.75707
658.87        69.92117
659.30        69.56445
659.73        69.45556
660.15        70.84723
660.58        69.34863
661.01        69.31461
661.44        69.46984
661.86        69.18273
662.29        68.49098
662.72        68.90524
663.14        69.05827
663.57        69.08891
664.00        68.71044
664.42        68.74408
664.85        69.20663
665.27         69.6655
665.70        69.94774
666.13        70.03372
666.55         69.8951
666.98        69.47218
667.41         68.8903
667.83        68.80618
668.26        68.56257
668.69        68.67393
669.11        68.87476
669.54        69.06541
669.96        69.20763
670.39         69.3567
670.82        69.48706
671.24        69.48579
671.67        69.37504
672.09        69.21887
672.52          69.102
672.94        69.12398
673.37         69.2579
673.80        69.30038
674.22        69.24021
674.65        69.19381
675.07        69.17374
675.50        69.06906
675.92        68.90814
676.35         68.7863
676.77        68.72176
677.20        68.68019
677.62        68.66965
678.05        68.70358
678.47        68.77377
678.90        68.88598
679.32        68.99432
679.75        69.03713
680.17        69.00073
680.60         68.9033
681.02        68.80421
681.45        68.80775
681.87        68.94767
682.30        69.14408
682.72        69.34654
683.15        69.51728
683.57        69.59899
684.00        69.41185
684.42        69.07601
684.85        68.97319
685.27        69.14401
685.70         69.3965
686.12        69.60894
686.54        69.74514
686.97        69.78027
687.39        69.43657
687.82        69.34211
688.24         69.1688
688.66         69.1195
689.09        69.14096
689.51        69.22356
689.94        69.30844
690.36        69.37646
690.78        69.43443
691.21        69.48916
691.63           69.54
692.06        69.59037
692.48        69.64761
692.90        69.67327
693.33        69.61678
693.75         69.4734
694.17        69.22854
694.60        68.99361
695.02        68.96098
695.44        69.13322
695.87          69.453
696.29        69.75787
696.71        69.65713
697.14        69.24533
697.56        68.94833
697.98        68.81967
698.41        69.22564
698.83        68.97643
699.25        69.29842
699.68        69.69186
700.10        69.85944
700.52        69.71424
700.94        69.38041
701.37        69.02269
701.79        68.87728
702.21        69.00146
702.64        69.30171
703.06        69.65849
703.48        69.86224
703.90        69.85009
704.33        69.68623
704.75        69.45465
705.17        69.27888
705.59        69.20767
706.01         69.2043
706.44        69.23402
706.86        69.27827
707.28        69.31771
707.70        69.32559
708.12        69.33993
708.55        69.50314
708.97        69.76527
709.39        69.84726
709.81        69.75655
710.23        69.76302
710.66        69.87316
711.08        69.94032
711.50        69.91618
711.92        69.82165
712.34        69.66171
712.76        69.45129
713.19         69.2321
713.61        69.11317
714.03         69.1105
714.45         69.2046
714.87        69.38381
715.29        69.62794
715.71        69.90881
716.13        70.20584
716.56        70.45335
716.98        70.63795
717.40         70.7038
717.82        70.66574
718.24        70.51591
718.66        70.24865
719.08        69.90285
719.50        69.51834
719.92        69.19603
720.34        69.08147
720.76        69.19707
721.19        69.47025
721.61        69.85406
722.03        70.20922
722.45        70.46715
722.87        70.64933
723.29        70.70461
723.71        70.55161
724.13        70.20426
724.55        69.72033
724.97        69.24483
725.39        68.91993
725.81        68.96906
726.23        69.17625
726.65        69.48349
727.07        69.85899
727.49        69.99014
727.91        70.11784
728.33        70.19021
728.75        70.26084
729.17        70.34173
729.59        70.40336
730.01        70.43646
730.43         70.4352
730.85        70.39705
731.27        70.32677
731.69          70.241
732.10        70.15825
732.52        70.08324
732.94        70.03226
733.36        70.00392
733.78        69.85689
734.20         69.5787
734.62        69.46712
735.04        69.65424
735.46        69.04971
735.88        69.71754
736.30        69.95774
736.72        70.32441
737.13        70.66347
737.55        70.87994
737.97        71.12144
738.39        71.28244
738.81        70.98592
739.23        70.36357
739.65        70.11831
740.06        70.26826
740.48        70.32893
740.90         70.2728
741.32        70.44292
741.74        70.79438
742.16        71.04063
742.57        71.13369
742.99        71.13314
743.41        71.06024
743.83        70.93369
744.25         70.7763
744.67        70.56596
745.08        70.37158
745.50        70.32265
745.92         70.4549
746.34        70.66511
746.75        70.82827
747.17        71.11172
747.59        70.86007
748.01        70.61969
748.42        70.32391
748.84        70.17696
749.26        70.22068
749.68        70.40511
750.09        70.62842
750.51        70.70675
750.93        70.60491
751.35        70.41294
751.76        70.20036
752.18        70.06616
752.60        70.03491
753.01        70.09256
753.43         70.1796
753.85        70.22729
754.27        70.21903
754.68        70.19162
755.10        70.16816
755.52        70.17557
755.93        70.21459
756.35        70.26557
756.77         70.3739
757.18        70.47402
757.60        70.56229
758.02        70.85216
758.43        71.26437
758.85        70.58937
759.26        71.22311
759.68        70.18566
760.10        70.03627
760.51        70.40355
760.93         70.5759
761.34        70.04636
761.76        70.58506
762.18        70.72324
762.59        71.04564
763.01        71.12963
763.42        71.06001
763.84        71.02198
764.26        71.03114
764.67        71.00505
765.09        70.96434
765.50        70.73594
765.92        70.45658
766.33        70.49432
766.75        70.74516
767.16        70.85249
767.58        70.71825
768.00        70.51395
768.41        70.37289
768.83        70.48396
769.24        70.76719
769.66         70.9767
770.07        71.02087
770.49         70.6788
770.90        70.18642
771.32        70.52531
771.73        71.53469
772.15         71.9192
772.56        71.60361
772.97        71.28852
773.39        71.12008
773.80        71.02875
774.22        71.03639
774.63        71.20969
775.05        71.40652
775.46        71.47364
775.88        71.34081
776.29        71.08539
776.70        70.81166
777.12         70.7086
777.53        70.83382
777.95        71.09032
778.36        71.39607
778.77        71.57259
779.19        71.58283
779.60          71.495
780.02        71.35321
780.43        71.26998
780.84        71.29205
781.26        71.20807
781.67        71.09821
782.09        71.43099
782.50         72.0388
782.91         72.0706
783.33        71.56102
783.74        71.35051
784.15        71.47401
784.57        71.44131
784.98        71.29956
785.39        71.34167
785.81        71.57655
786.22        71.92271
786.63        72.27503
787.04        72.46524
787.46        72.46885
787.87        72.31532
788.28        72.11066
788.70        71.99706
789.11        71.99279
789.52        72.09181
789.93        72.22848
790.35        72.28607
790.76        72.24019
791.17        72.10471
791.58        71.97585
792.00        71.91861
792.41         71.9599
792.82        72.27364
793.23        72.67712
793.65        72.37196
794.06        71.56624
794.47        71.48474
794.88        72.06286
795.29        72.24655
795.71        71.97514
796.12        71.94886
796.53        72.19251
796.94         72.2848
797.35        72.25888
797.76        72.51585
798.18        72.94029
798.59        73.09692
799.00        72.92375
799.41        72.63695
799.82        72.36222
800.23        72.22898
800.64        72.28239
801.06        72.45261
801.47         72.6854
801.88        72.78341
802.29        72.69605
802.70        72.49239
803.11        72.23238
803.52        72.01274
803.93        71.88181
804.34        71.80656
804.75        71.82388
805.17         71.9996
805.58        72.36133
805.99        72.80556
806.40        73.22153
806.81        73.56542
807.22        73.71136
807.63        73.37178
808.04        72.72207
808.45        72.34515
808.86        72.33918
809.27        72.46568
809.68         72.6057
810.09        72.64161
810.50        72.52305
810.91        72.29292
811.32         72.0869
811.73        72.11449
812.14        72.41279
812.55        72.90585
812.96        73.41634
813.37        73.62043
813.78        73.42818
814.19        72.96556
814.60        72.40546
815.01        71.97879
815.42        71.74782
815.83        71.64331
816.24        71.65298
816.65        71.75085
817.05        71.91707
817.46        72.14149
817.87        72.37843
818.28        72.50004
818.69        72.48306
819.10        72.33212
819.51        72.16255
819.92        72.19561
820.33        72.47595
820.74        72.93102
821.14         73.3904
821.55        73.57375
821.96        73.42193
822.37        73.02602
822.78        72.54559
823.19        72.25153
823.60        72.23148
824.00        72.43161
824.41        72.70525
824.82        72.91187
825.23          72.983
825.64        72.97073
826.04        72.91268
826.45        72.82249
826.86        72.73479
827.27         72.6439
827.68        72.55516
828.08        72.51328
828.49        72.47713
828.90        72.45886
829.31        72.49338
829.72        72.63493
830.12        72.89954
830.53        73.19604
830.94        73.42101
831.35        73.35399
831.75        72.97403
832.16        72.35052
832.57        71.65388
832.97        71.12862
833.38        70.86064
833.79        70.76769
834.20        70.85561
834.60        71.12133
835.01        71.52998
835.42        72.12242
835.82        72.73051
836.23        72.97552
836.64        72.80878
837.04        72.28812
837.45        71.74936
837.86        71.81834
838.26        72.64259
838.67        73.99602
839.08        75.39784
839.48        75.93683
839.89        75.36796
840.29        74.02462
840.70        72.55337
841.11        71.69036
841.51        71.63429
841.92        72.13586
842.33        72.95267
842.73        73.65929
843.14        73.96989
843.54         74.0664
843.95        74.03381
844.35        74.05753
844.76         74.1714
845.17        74.29882
845.57         74.3577
845.98        74.20863
846.38        73.85941
846.79        73.36744
847.19        72.89503
847.60        72.66133
848.00         72.7305
848.41        73.01672
848.81        73.39285
849.22        73.55739
849.62        73.47062
850.03        73.19183
850.43         72.8737
850.84        72.69511
851.24         72.7586
851.65        72.94381
852.05        73.24436
852.46        73.52467
852.86        73.73225
853.27        73.90662
853.67        73.97938
854.07        73.97557
854.48        73.87891
854.88        73.71078
855.29        73.45446
855.69        73.23388
856.10        73.01958
856.50        72.87395
856.90        72.77145
857.31        72.68264
857.71        72.65485
858.12        72.62926
858.52        72.64574
858.92        72.65179
859.33        72.61086
859.73        72.56841
860.13        72.47627
860.54         72.2821
860.94        72.03307
861.34        71.74499
861.75        71.46738
862.15        71.32647
862.55        71.32922
862.96        71.39575
863.36        71.55605
863.76        71.76646
864.17        71.97285
864.57        72.20564
864.97        72.30394
865.38        72.02966
865.78        71.39199
866.18        70.46511
866.58        69.52138
866.99        69.04932
867.39        69.21156
867.79        69.85452
868.19        70.72013
868.60        71.38345
869.00         71.7424
869.40        71.87241
869.80        71.85635
870.21         71.8541
870.61        71.98476
871.01        72.13585
871.41        72.18912
871.81        71.99452
872.22         71.5338
872.62         70.8633
873.02        70.21577
873.42         69.9655
873.82        70.19675
874.22        70.79774
874.63        71.43856
875.03        71.61153
875.43        71.19034
875.83        70.33547
876.23        69.38345
876.63        68.85355
877.03        68.87697
877.44        69.27948
877.84        69.81344
878.24        70.06328
878.64        69.87019
879.04        69.25481
879.44        68.54221
879.84         68.3076
880.24        68.63202
880.64        69.30225
881.04        69.94846
881.44        69.99838
881.84        69.33624
882.24        68.17609
882.65        66.97368
883.05        66.42461
883.45        66.69665
883.85         67.5749
884.25        68.68591
884.65        69.39169
885.05          69.494
885.45        69.19495
885.85           68.74
886.25        68.50085
886.65        68.58879
887.05        68.87018
887.45        69.23534
887.85        69.52209
888.25        69.66142
888.65        69.70768
889.04        69.70049
889.44        69.71903
889.84        69.76507
890.24        69.80195
890.64           69.77
891.04        69.59133
891.44        69.26675
891.84        68.85445
892.24        68.45146
892.64        68.17779
893.04         68.0867
893.44         68.1888
893.83        68.44748
894.23        68.74187
894.63        69.04374
895.03        69.31115
895.43        69.65312
895.83        70.26155
896.23        71.10775
896.63        72.08535
897.02        72.80656
897.42        72.69759
897.82        71.70271
898.22        70.09695
898.62        68.38486
899.01         67.3082
899.41        67.06731
899.81        67.42025
900.21        68.12425
900.61         68.7644
901.00        69.16595
901.40        69.44393
901.80        69.55522
902.20        69.42118
902.59        69.07983
902.99        68.53407
903.39        67.95801
903.79        67.66584
904.18        67.72131
904.58        68.03316
904.98        68.51167
905.38        69.01162
905.77        69.46534
906.17         69.9322
906.57        70.26659
906.96        70.23283
907.36        69.80215
907.76          69.059
908.15        68.34748
908.55        68.20279
908.95         68.7388
909.34        69.80101
909.74        70.98778
910.14        71.70493
910.53        71.74894
910.93         71.3308
911.33        70.63531
911.72        69.94295
912.12        69.44244
912.52        69.04834
912.91        68.80844
913.31        68.82806
913.70        69.09863
914.10        69.56901
914.49        70.18076
914.89         70.7152
915.29        71.10463
915.68         71.3898
916.08        71.45818
916.47        71.22556
916.87        70.73807
917.26        70.02335
917.66         69.3744
918.05        69.09168
918.45        69.24035
918.84        69.78036
919.24        70.45219
919.64        70.91973
920.03        71.07272
920.42          70.952
920.82         70.7563
921.21        70.75455
921.61        70.98571
922.00        71.39148
922.40        71.74598
922.79        71.81774
923.19        71.52766
923.58        71.02311
923.98        70.49492
924.37        70.13893
924.77        70.03128
925.16        70.05824
925.55        70.21408
925.95        70.46677
926.34        70.77796
926.74        71.12321
927.13        71.32762
927.52        71.04706
927.92        70.30999
928.31        69.24727
928.70        68.18564
929.10        67.59429
929.49        67.57373
929.89         67.9282
930.28        68.60807
930.67        69.39139
931.07        70.11153
931.46        70.88799
931.85        71.41759
932.24        71.26799
932.64         70.4557
933.03        69.09221
933.42        67.75387
933.82         67.2914
934.21        67.87178
934.60        69.30283
934.99        71.04319
935.39        72.08794
935.78         72.1604
936.17        71.44189
936.56        70.39904
936.96        69.77223
937.35        69.76481
937.74        70.15759
938.13        70.56428
938.53        70.41521
938.92        69.61642
939.31        68.43269
939.70        67.29411
940.09          66.785
940.49        66.99407
940.88        67.75326
941.27        68.75496
941.66        69.43626
942.05        69.60294
942.44        69.44248
942.84        69.13596
943.23        68.95878
943.62        69.01751
944.01        69.17893
944.40        69.45628
944.79        69.90839
945.18        70.47951
945.57        71.12409
945.97        71.60062
946.36        71.59383
946.75        71.01286
947.14        70.05735
947.53        68.93205
947.92        67.91426
948.31        67.12744
948.70        66.51006
949.09        66.22807
949.48        66.55312
949.87        67.47869
950.26        68.88845
950.65        70.37415
951.04        71.24722
951.43         71.3059
951.82        70.71714
952.21        69.76244
952.60        68.94325
952.99        68.46873
953.38        68.24133
953.77        68.23568
954.16        68.40902
954.55        68.70362
954.94        69.10674
955.33        69.59355
955.72        70.08006
956.11        70.49659
956.50        70.84836
956.89        70.89293
957.28        70.28181
957.66        69.01608
958.05        67.29568
958.44        65.67329
958.83        64.91926
959.22        65.16593
959.61        66.23872
960.00        67.60653
960.39        68.25957
960.78        67.89293
961.16        66.78912
961.55        65.57227
961.94        65.08036
962.33        65.51572
962.72        66.66666
963.11        68.06345
963.49         68.8412
963.88        68.62666
964.27        67.69321
964.66         66.6731
965.04        66.52182
965.43        67.37894
965.82        69.01357
966.21        70.69868
966.60        71.04641
966.98        69.68657
967.37        67.25312
967.76        64.72121
968.15        63.28103
968.53        63.16578
968.92        64.04208
969.31        65.42181
969.69        66.33102
970.08        66.32945
970.47         65.7528
970.86        65.10395
971.24        65.09817
971.63        65.88895
972.02        67.21281
972.40        68.66409
972.79        69.22201
973.17          68.654
973.56         67.3531
973.95        65.85435
974.33        64.80386
974.72        64.36887
975.11        64.33537
975.49        64.60968
975.88        64.94745
976.26        65.27419
976.65        65.61189
977.04        65.90121
977.42        66.00112
977.81         65.8587
978.19        65.48116
978.58        65.07109
978.96        64.94038
979.35        65.14699
979.74        65.64416
980.12        66.32371
980.51        66.74559
980.89        66.90336
981.28        66.87082
981.66        66.84018
982.05         67.0752
982.43        67.64321
982.82        68.41869
983.20        69.36691
983.59        70.29783
983.97        71.17712
984.35        71.99849
984.74        72.51605
985.12        72.58526
985.51         72.1386
985.89        71.27679
986.28        70.37126
986.66        69.89783
987.04        70.02184
987.43        70.57324
987.81        71.32258
988.20        71.66585
988.58        71.43735
988.96        70.75467
989.35        69.83798
989.73        68.97837
990.12        68.25627
990.50         67.6282
990.88        67.00703
991.27        66.30146
991.65        65.54671
992.03        64.82619
992.42        64.35985
992.80         64.3819
993.18        64.93681
993.56        65.95012
993.95        67.03874
994.33         67.6927
994.71        67.61562
995.10        67.03043
995.48        66.27901
995.86        65.98505
996.24        66.29398
996.63        66.89117
997.01        67.72092
997.39        68.29646
997.77        68.40235
998.15        68.30198
998.54        67.92471
998.92        67.02125
999.30        65.73418
999.68        64.14253
1000.06        62.91293
1000.45        62.97483
1000.83        64.56456
1001.21        67.54393
1001.59        71.08144
1001.97         73.1048
1002.35        72.84544
1002.73        70.95977
1003.12        68.69315
1003.50          67.596
1003.88        68.10997
1004.26         69.5929
1004.64        71.73272
1005.02        73.78103
1005.40        75.21704
1005.78        76.45654
1006.16        76.72691
1006.54        74.80005
1006.92        70.87068
1007.30        65.47737
1007.69        60.63265
1008.07        59.08754
1008.45        61.54669
1008.83        67.48821
1009.21        75.15259
1009.59        80.00323
1009.97        79.86482
1010.35        76.00448
1010.73        70.35426
1011.11         65.7863
1011.49        63.23174
1011.86        61.84429
1012.24        61.43329
1012.62        61.78973
1013.00        62.73603
1013.38        64.51419
1013.76          66.832
1014.14        68.60677
1014.52        69.23278
1014.90        68.75758
1015.28        67.51672
1015.66        66.17551
1016.04        64.95879
1016.41        63.71495
1016.79        62.56799
1017.17        61.84573
1017.55        61.62283
1017.93        61.86441
1018.31        62.32889
1018.69        62.57891
1019.06        62.54645
1019.44        62.39564
1019.82        62.13238
1020.20         61.8628
1020.58        61.63403
1020.95        61.16897
1021.33        61.01176
1021.71        61.77919
1022.09         63.5812
1022.46        66.69386
1022.84        69.86819
1023.22        70.13017
1023.60        66.61835
1023.97        60.25293
1024.35          54.442
1024.73        53.04789
