SpectraSmart Spectrum 2.9.0.0
--------- Device Information -----------
Spectrum Name :  反射率_0
Saving Time :  2024/04/26 22:33:52
Spectro-Module Model Name : SE2030-DUVN
Spectro-Module Serial Number : OS361AC55029948
Wavelength Start : 200
Wavelength End : 1025
Wavelength Unit : Wavelength(nm)
Spectrum Unit : Reflectance(%)
-----------Spectrum Setting ------------
Integration Time : 20ms
Average : 10
Boxcar : 0
Background removal :  enabled
linearity correction :  enabled
SC :  disabled
Intensity correction :  disabled
DWT denoise :  enabled
savitzky-golay :  disabled
FFT :  disabled
Running average :  disabled
Kalman :  disabled
High pass :  disabled
---------------BEGIN--------------------
Wavelength(nm)             Reflectance(%)
200.29               0
200.75        41.73851
201.21        37.86543
201.67        35.10014
202.13        34.94244
202.58        37.45819
203.04        42.85762
203.50        51.03024
203.96        59.46714
204.42        65.70132
204.88        69.50921
205.34        70.57225
205.80         70.0368
206.26        68.58504
206.72         65.4369
207.18        62.33755
207.64        60.78278
208.10        60.74656
208.55        63.22948
209.01        65.63897
209.47        61.10158
209.93        50.44612
210.39        39.84043
210.85        33.73825
211.31        33.70032
211.77        40.10283
212.23        58.21989
212.69        105.0235
213.14        180.0585
213.60        169.8736
214.06        111.3829
214.52        74.44949
214.98        60.25015
215.44        57.04394
215.90        57.95422
216.36        60.97813
216.81        63.90272
217.27        66.31522
217.73        70.77815
218.19        76.29142
218.65        76.32121
219.11        70.26501
219.57        62.21724
220.02         57.9182
220.48        61.31923
220.94        72.29288
221.40        92.53697
221.86        120.6908
222.32        136.1238
222.77        123.3726
223.23        97.46022
223.69        73.72991
224.15        60.21473
224.61         54.7274
225.06         52.8179
225.52        52.98161
225.98         53.6727
226.44        54.37514
226.90        55.72356
227.36        56.68684
227.81        55.45354
228.27        52.22458
228.73        47.63399
229.19        43.75401
229.65        43.00644
230.10        45.32013
230.56        49.80645
231.02        54.33915
231.48        55.51216
231.93        52.82263
232.39        48.02774
232.85        43.17825
233.31        40.87185
233.77        41.40058
234.22        43.83393
234.68         46.9315
235.14        48.88513
235.60        49.11725
236.05        48.18988
236.51        46.66591
236.97         45.7306
237.43        45.92101
237.88        46.87589
238.34        48.20558
238.80        49.56678
239.26        50.91249
239.71        52.88599
240.17        55.40572
240.63        58.37706
241.08        61.72728
241.54        64.68748
242.00        68.30158
242.46         75.3538
242.91        88.53691
243.37        110.3188
243.83        141.2095
244.28        167.0238
244.74          167.01
245.20        141.0158
245.66        109.6486
246.11        91.42181
246.57        86.77596
247.03        90.14846
247.48        95.40527
247.94        92.77538
248.40        83.30365
248.85        73.09795
249.31        65.45858
249.77        61.21036
250.22         59.4826
250.68        59.03628
251.14        59.87725
251.59        62.09105
252.05        65.19418
252.51        68.98234
252.96        71.28541
253.42        70.73512
253.88        67.94624
254.33        63.65022
254.79         60.7448
255.25        61.36519
255.70        65.15002
256.16        71.18375
256.62         76.5423
257.07        76.87878
257.53         73.3289
257.99        68.41193
258.44        64.29355
258.90        63.11446
259.35        63.80893
259.81        65.62782
260.27        67.08569
260.72        66.46922
261.18        64.14935
261.63        60.81868
262.09        57.86724
262.55        56.18759
263.00        55.63027
263.46        55.84895
263.91        56.01019
264.37        55.39343
264.83        53.92763
265.28        51.95519
265.74        50.17395
266.19        49.13173
266.65        48.93871
267.11        49.23926
267.56        49.62485
268.02        49.47064
268.47        48.62332
268.93         47.3526
269.38         45.8848
269.84        44.61518
270.30        43.64693
270.75        42.83086
271.21        42.17714
271.66        41.64861
272.12        41.20386
272.57          40.839
273.03        40.41126
273.48        39.66806
273.94        38.64008
274.39        37.39063
274.85        36.18156
275.31         35.2395
275.76          34.587
276.22        34.17936
276.67        33.87204
277.13        33.54901
277.58        33.11626
278.04        32.63156
278.49        32.08442
278.95        31.57463
279.40        31.07094
279.86        30.61933
280.31        30.11274
280.77        29.51007
281.22        28.79014
281.68        28.04984
282.13        27.39178
282.59        27.03362
283.04        26.95959
283.50        27.11355
283.95        27.32929
284.41        27.35248
284.86        27.12513
285.32        26.76064
285.77        26.37987
286.22        26.21468
286.68        26.30475
287.13        26.52929
287.59        26.81012
288.04        26.98751
288.50        27.03469
288.95        26.97623
289.41        26.85518
289.86        26.66456
290.32        26.46224
290.77        26.24833
291.22        26.08456
291.68        26.04792
292.13        26.15731
292.59        26.42744
293.04        26.85545
293.50        27.44567
293.95        28.17557
294.40        29.03629
294.86         29.9997
295.31        31.01332
295.77        32.06394
296.22        33.14487
296.68        34.25789
297.13        35.39688
297.58        36.57942
298.04        37.81586
298.49        39.13055
298.95        40.57909
299.40        42.15174
299.85        43.82494
300.31        45.56243
300.76        47.28905
301.21        48.98706
301.67        50.68756
302.12        52.35736
302.58         54.0312
303.03        55.67764
303.48        57.31332
303.94        58.98644
304.39         60.7099
304.84        62.51334
305.30        64.40535
305.75        66.30644
306.20        68.17496
306.66        70.00784
307.11        71.77817
307.57        73.52715
308.02        75.22186
308.47        76.87659
308.93        78.48379
309.38        80.03033
309.83        81.61206
310.29        83.24392
310.74        84.90274
311.19        86.47667
311.65        87.75072
312.10        88.67127
312.55         89.3061
313.00        89.86285
313.46        90.67387
313.91         91.7881
314.36        93.12814
314.82        94.49796
315.27        95.58627
315.72        96.28074
316.18        96.69989
316.63        96.94976
317.08        97.24941
317.53        97.67361
317.99        98.14857
318.44        98.64674
318.89        99.09602
319.35        99.46772
319.80        99.80169
320.25        100.1119
320.70        100.4121
321.16        100.7084
321.61        101.0309
322.06        101.3552
322.51        101.6567
322.97        101.9139
323.42        102.1257
323.87        102.3683
324.32        102.7914
324.78        103.3746
325.23        104.1494
325.68        104.8468
326.13        105.0322
326.59        104.6328
327.04        103.8265
327.49        102.9933
327.94        102.7643
328.39        103.2846
328.85        104.3258
329.30        105.6681
329.75          106.65
330.20        107.0356
330.66        106.9848
331.11        106.7173
331.56        106.5189
332.01        106.5176
332.46        106.5978
332.92        106.7275
333.37        107.0334
333.82        107.4596
334.27        108.0447
334.72        108.6809
335.17        109.1509
335.63        109.4005
336.08        109.5346
336.53        109.6964
336.98        110.1823
337.43        111.0556
337.88        112.1939
338.34        113.4159
338.79        114.5376
339.24        115.4041
339.69        116.0736
340.14        116.5085
340.59        116.6648
341.05        116.6085
341.50        116.3609
341.95        116.1214
342.40        116.1998
342.85        116.6664
343.30        117.4374
343.75        118.3609
344.20        119.1634
344.66        119.7465
345.11        120.1763
345.56        120.4658
346.01        120.6477
346.46        120.7703
346.91        120.8377
347.36        120.9215
347.81        121.1534
348.26        121.5442
348.72        122.0306
349.17        122.5685
349.62        123.1172
350.07        123.6325
350.52        124.1443
350.97        124.4654
351.42        124.3052
351.87          123.66
352.32        122.6369
352.77        121.6421
353.22        121.2757
353.67        121.6327
354.13        122.5269
354.58        123.5373
355.03        123.9044
355.48        123.4351
355.93        122.3725
356.38        121.1342
356.83        120.3502
357.28        120.1619
357.73        120.3406
358.18         120.604
358.63        120.5095
359.08        119.9273
359.53        119.0264
359.98        117.9629
360.43        116.9402
360.88        116.0281
361.33        115.1625
361.78        114.3131
362.23        113.4533
362.68         112.587
363.13        111.7514
363.58        110.9785
364.03        110.2929
364.48        109.6817
364.93        109.1118
365.38        108.5364
365.83        107.8938
366.28         107.174
366.73        106.4081
367.18        105.6126
367.63        104.8108
368.08        104.0216
368.53        103.2448
368.98         102.526
369.43        101.9324
369.88        101.4681
370.33        101.1091
370.78        100.7781
371.23        100.3503
371.68        99.78759
372.13        99.11011
372.58        98.38071
373.03        97.70646
373.48        97.10667
373.93        96.54147
374.38        95.94633
374.83        95.22532
375.28        94.37065
375.72        93.42166
376.17        92.50124
376.62        91.66996
377.07        90.96903
377.52         90.4021
377.97        89.95905
378.42        89.63422
378.87        89.40711
379.32        89.22722
379.77        89.12753
380.22        89.16183
380.67        89.29607
381.11         89.5259
381.56        89.56765
382.01        89.06343
382.46        88.00852
382.91        86.60534
383.36        85.24116
383.81        84.43972
384.26        84.27694
384.71        84.56358
385.15        85.07657
385.60        85.40894
386.05        85.41444
386.50        85.21326
386.95        84.79993
387.40        84.17832
387.85        83.41919
388.29        82.49049
388.74        81.67989
389.19        81.18256
389.64        81.01751
390.09        81.10857
390.54        81.28979
390.98        81.25391
391.43         80.9656
391.88        80.51435
392.33        80.01112
392.78        79.58611
393.23        79.27506
393.67         79.0689
394.12        78.99977
394.57        78.78241
395.02         78.4817
395.47        78.52233
395.91        78.81866
396.36        78.80358
396.81        78.45969
397.26        78.08842
397.71        77.74758
398.15        77.41725
398.60         77.2155
399.05        76.96834
399.50        76.72636
399.95        76.83912
400.39        77.20001
400.84        77.08534
401.29         76.5229
401.74        76.26155
402.18        76.27628
402.63        75.83632
403.08        75.10402
403.53        74.79451
403.97        74.95078
404.42        75.26393
404.87        75.56308
405.32         75.6312
405.76        75.38331
406.21        75.02261
406.66        74.65182
407.11        74.19343
407.55        73.83476
408.00        74.05885
408.45        74.70362
408.90        74.90357
409.34        74.53809
409.79        74.06767
410.24        73.66439
410.68        73.39117
411.13         73.3126
411.58        73.39954
412.03        73.53271
412.47        73.51989
412.92        73.29549
413.37        72.95486
413.81        72.62794
414.26        72.57307
414.71        72.80421
415.15        73.26629
415.60        73.78353
416.05        74.13428
416.49        74.23879
416.94        74.14397
417.39        73.96212
417.83        73.85229
418.28        73.87314
418.73        73.98783
419.17        74.12683
419.62        74.18325
420.07        74.11381
420.51        73.92551
420.96        73.75726
421.41        73.67899
421.85        73.67168
422.30         73.9948
422.74        74.36752
423.19        73.99827
423.64        73.05589
424.08        72.77885
424.53        73.22083
424.98        73.44858
425.42        73.43608
425.87        73.87525
426.31        74.58489
426.76        74.60883
427.21        74.04001
427.65        73.79544
428.10        73.89733
428.54          73.853
428.99        73.71803
429.44        73.49046
429.88        73.36163
430.33        73.96672
430.77         74.9557
431.22        75.56583
431.66        75.58939
432.11        74.90352
432.56         73.8476
433.00        73.55701
433.45        74.31969
433.89        75.11755
434.34        75.48317
434.78        76.94861
435.23        75.67655
435.67        73.60332
436.12         74.0019
436.57         74.2846
437.01        75.30556
437.46        75.65924
437.90        75.32835
438.35        74.57529
438.79        74.64418
439.24        74.57459
439.68         74.6828
440.13        75.12251
440.57        75.77567
441.02        75.91096
441.46        75.59846
441.91        76.06176
442.35        76.94293
442.80         76.8371
443.24        75.91364
443.69        75.75924
444.13        76.36945
444.58        76.67919
445.02        76.64734
445.47        76.81969
445.91        77.17943
446.36        77.50542
446.80        77.75687
447.24        77.97558
447.69        78.14607
448.13        78.21366
448.58        78.21336
449.02        78.19511
449.47        78.19189
449.91         78.1588
450.36        78.12955
450.80         78.1219
451.25        78.15671
451.69        78.17408
452.13        78.18701
452.58          78.208
453.02        78.23102
453.47        78.25365
453.91        78.25396
454.36        78.23003
454.80        78.18567
455.24        77.99642
455.69        77.64754
456.13        77.47815
456.58        77.53362
457.02        76.65223
457.46        75.92184
457.91         76.2613
458.35        77.15331
458.79        77.24657
459.24        76.40153
459.68        75.43885
460.13        74.74452
460.57        74.41285
461.01        74.55496
461.46        75.12158
461.90        75.88884
462.34        76.22165
462.79        76.08837
463.23        76.12367
463.68         76.2235
464.12        75.99655
464.56        75.41824
465.01        74.42857
465.45        73.38081
465.89        73.34747
466.34        74.06123
466.78        74.52953
467.22        74.69492
467.67         73.5888
468.11        73.73737
468.55        73.75001
468.99        74.21198
469.44        74.24394
469.88        73.84138
470.32        73.55546
470.77        73.44372
471.21        73.36465
471.65        73.30827
472.10        73.31821
472.54        73.37582
472.98        73.36555
473.42        73.24559
473.87        73.32561
474.31        73.44495
474.75        72.80765
475.20         71.7426
475.64        71.68092
476.08        72.50411
476.52         72.7134
476.97        72.21376
477.41        72.11098
477.85        72.31316
478.29        71.98275
478.74        72.36732
479.18        72.70583
479.62          72.542
480.06        72.54554
480.50        72.44616
480.95        72.35328
481.39        72.30431
481.83        71.95481
482.27         71.7326
482.72        72.35101
483.16        71.89133
483.60        71.92149
484.04        71.85178
484.48        72.03468
484.93        72.15601
485.37         71.7374
485.81        71.46837
486.25        70.67842
486.69        70.41417
487.14        72.91429
487.58         73.2179
488.02        72.59564
488.46        71.26632
488.90        71.17831
489.34        72.71461
489.79        73.39327
490.23        72.90709
490.67        72.17222
491.11        71.45197
491.55        71.19699
491.99        71.39795
492.43        71.28594
492.88        70.85522
493.32        70.92877
493.76         71.1143
494.20        71.32509
494.64        71.39846
495.08        71.43455
495.52        71.44174
495.96        71.43179
496.41        71.42059
496.85        71.45802
497.29        71.37548
497.73        71.32175
498.17        70.48155
498.61        70.15011
499.05        70.15359
499.49        70.57648
499.93        70.98065
500.37        71.12592
500.82        70.93269
501.26        70.84094
501.70        70.89784
502.14        70.92892
502.58        70.93972
503.02        70.95293
503.46        70.97379
503.90        71.04816
504.34        71.15229
504.78         71.1087
505.22        70.90151
505.66        70.62183
506.10        70.37117
506.54        70.19579
506.98        70.10429
507.42        70.46941
507.86         70.4931
508.30        70.61689
508.74        70.59014
509.18        70.47389
509.62        70.31717
510.06        70.21343
510.50        70.19843
510.94        70.23521
511.38        70.30541
511.82        70.38145
512.26        70.45242
512.70        70.52566
513.14        70.58838
513.58        70.67207
514.02        70.78344
514.46        70.80633
514.90        70.71454
515.34        71.01421
515.78        70.84244
516.22        70.88522
516.66        70.87616
517.10        70.81926
517.54        70.71151
517.98        70.57777
518.42        70.44383
518.86        70.32484
519.30        70.23441
519.74        70.16938
520.18         70.1402
520.62        70.15925
521.06        70.22536
521.50        70.33739
521.93        70.46599
522.37        70.54089
522.81        70.55406
523.25        70.51284
523.69        70.46389
524.13        70.47592
524.57        70.55448
525.01        70.68643
525.45        70.81502
525.89        70.74904
526.32         70.6228
526.76          70.371
527.20        70.08868
527.64        69.85056
528.08        69.68879
528.52         69.5807
528.96        69.53529
529.40        69.56813
529.83         69.6664
530.27        69.83153
530.71        70.00168
531.15        70.08466
531.59        70.05923
532.03        69.94053
532.46        69.77663
532.90        69.69855
533.34        69.71952
533.78        69.76415
534.22        69.78072
534.66        69.77493
535.09         69.6832
535.53        69.38052
535.97        68.95096
536.41        68.70232
536.85        68.67562
537.28        68.72261
537.72        68.82385
538.16        68.99669
538.60        69.21274
539.04        69.46572
539.47        69.68504
539.91        69.79902
540.35        69.78436
540.79        69.67992
541.22        69.54124
541.66        69.46478
542.10        69.46907
542.54        69.54038
542.97        69.60644
543.41        69.57829
543.85        69.43097
544.29        69.21113
544.72         68.9763
545.16        68.85128
545.60        68.85088
546.04        68.94867
546.47        69.09715
546.91        69.22201
547.35        69.29408
547.79        69.30543
548.22        69.28636
548.66        69.33675
549.10        69.50325
549.53        69.57642
549.97        69.55663
550.41        69.40813
550.84        69.17258
551.28        69.10196
551.72        69.20873
552.15        69.10522
552.59        68.97583
553.03         69.2156
553.46        69.26372
553.90        69.32273
554.34        69.21624
554.77        69.18067
555.21        68.99877
555.65        69.01213
556.08        69.14033
556.52        69.33328
556.96        69.49392
557.39        69.55483
557.83        69.49531
558.27        69.21134
558.70        68.78673
559.14        68.57185
559.57        68.56036
560.01        68.47868
560.45        68.37162
560.88        68.53493
561.32        68.93201
561.75         69.2683
562.19        69.47944
562.63        69.45731
563.06        69.26456
563.50        69.25743
563.93         69.3542
564.37        69.28893
564.80        69.09805
565.24        68.85078
565.68        68.44563
566.11        69.09044
566.55        68.32691
566.98         68.2221
567.42        68.16251
567.85        68.36759
568.29        68.76913
568.72        69.06396
569.16        69.33332
569.60        69.39549
570.03        69.44865
570.47        69.68504
570.90        70.23895
571.34         68.9985
571.77        69.46578
572.21        69.74712
572.64        69.62642
573.08        69.79663
573.51        69.17506
573.95        69.02471
574.38        69.28576
574.82        69.57439
575.25        68.99741
575.69        69.56441
576.12        69.56432
576.56        69.35534
576.99        68.86372
577.42        68.90532
577.86        69.48361
578.29        69.74085
578.73        69.73937
579.16        70.37328
579.60        69.42719
580.03        69.34893
580.47        69.19531
580.90        69.98902
581.33        70.00635
581.77        69.70536
582.20        68.80273
582.64        70.18521
583.07        70.24518
583.51        70.12733
583.94        69.72913
584.37        69.64508
584.81        69.44909
585.24        69.24913
585.68        68.89571
586.11        69.14882
586.54        69.40105
586.98        69.02914
587.41        68.57983
587.85        68.81093
588.28        68.55746
588.71        68.89854
589.15        68.43285
589.58        68.97169
590.01        68.82076
590.45        68.29501
590.88        69.60857
591.31        69.58601
591.75        69.14024
592.18        68.55633
592.61        68.03832
593.05        68.97243
593.48        69.23139
593.91        69.13694
594.35        69.27875
594.78        68.55211
595.21        68.09363
595.65        68.38426
596.08        69.63792
596.51        69.77071
596.94        69.00991
597.38        68.74033
597.81        69.08119
598.24        69.09746
598.68        69.01763
599.11        68.52483
599.54        69.42188
599.97        69.05309
600.41        69.18204
600.84        68.27028
601.27        68.72215
601.70        68.79733
602.14        68.88148
602.57        68.77183
603.00        68.66181
603.43        67.75844
603.87        68.74157
604.30        68.93211
604.73        69.03297
605.16        68.62706
605.60        68.09144
606.03         67.7176
606.46        67.55009
606.89        68.11176
607.32        68.78053
607.76        68.08467
608.19        68.55694
608.62        68.63103
609.05        68.13274
609.48         68.1421
609.92        69.21719
610.35        68.77621
610.78        68.02791
611.21        68.10101
611.64        68.15518
612.07        68.48853
612.50        68.36146
612.94        68.34988
613.37        68.28227
613.80        68.23273
614.23        67.67001
614.66        67.48023
615.09         67.9784
615.52        68.16917
615.96        68.04432
616.39        68.16468
616.82        68.42422
617.25        67.71233
617.68        67.73612
618.11        67.77109
618.54        68.19694
618.97        68.30118
619.40        68.12884
619.84        67.78934
620.27        68.05766
620.70        68.08986
621.13        68.02525
621.56        67.59553
621.99        66.93658
622.42        66.69276
622.85        66.88053
623.28        66.94736
623.71        66.86237
624.14         66.9998
624.57        67.49223
625.00        67.37845
625.43         67.5424
625.86        67.51579
626.29        67.65068
626.72        67.03271
627.15        67.43317
627.58         67.3469
628.01        67.20119
628.44        67.29148
628.87        67.17811
629.30        66.76026
629.73        66.83843
630.16        67.03331
630.59        66.92201
631.02        67.09846
631.45        67.33098
631.88         67.4759
632.31         67.4767
632.74        67.60448
633.17        67.46302
633.60        67.37862
634.03        67.24731
634.46         67.0779
634.89        66.88963
635.32        66.73973
635.75         66.6522
636.18        66.54395
636.61        66.44849
637.04         66.4558
637.47        66.56548
637.89        66.74007
638.32        66.89493
638.75        66.95712
639.18        66.90279
639.61        66.75301
640.04        66.57111
640.47        66.45992
640.90        66.44995
641.33          66.521
641.76        66.62628
642.18        66.69463
642.61        66.68349
643.04         66.6188
643.47        66.55505
643.90        66.57932
644.33        66.70097
644.76        66.88475
645.18        67.04417
645.61        67.02576
646.04        66.81373
646.47         66.4691
646.90        66.10182
647.33        65.88776
647.75        65.85362
648.18        65.97872
648.61        66.23403
649.04         66.4099
649.47        66.37573
649.89        66.98704
650.32        66.48983
650.75        66.52048
651.18        66.57947
651.61        66.54059
652.03        66.46441
652.46        66.54607
652.89        66.75006
653.32        66.88213
653.74        66.95966
654.17        66.54054
654.60        67.19736
655.03         66.9883
655.46        65.62188
655.88        65.80622
656.31        66.87334
656.74        65.19274
657.16         70.0041
657.59        75.44945
658.02        69.09367
658.45        67.92094
658.87        67.22851
659.30        66.87753
659.73        66.72419
660.15         68.0931
660.58        66.85365
661.01        66.56764
661.44        66.19435
661.86        65.85232
662.29        65.53854
662.72        66.08577
663.14        66.14005
663.57        66.15041
664.00        65.85545
664.42        65.94065
664.85        66.41823
665.27        66.86685
665.70        67.12254
666.13        67.20164
666.55        67.08051
666.98         66.6791
667.41        66.11779
667.83        66.03546
668.26        65.80048
668.69        65.90787
669.11        66.09394
669.54        66.24332
669.96        66.31847
670.39        66.39378
670.82        66.46858
671.24        66.43803
671.67        66.34749
672.09        66.32284
672.52        66.39467
672.94        66.51553
673.37        66.64196
673.80        66.64032
674.22        66.53983
674.65        66.49842
675.07        66.54177
675.50        66.54416
675.92        66.49348
676.35        66.41814
676.77        66.32103
677.20        66.19799
677.62         66.0899
678.05        66.02741
678.47        66.00794
678.90        66.08587
679.32        66.23815
679.75        66.09348
680.17        66.14674
680.60        66.07265
681.02         66.0429
681.45        65.92838
681.87         65.8283
682.30        66.02084
682.72        66.42971
683.15        66.67687
683.57        66.68678
684.00        66.48917
684.42        66.20625
684.85        66.11512
685.27        66.24909
685.70        66.46815
686.12        66.66103
686.54        66.76148
686.97        66.73879
687.39        66.56219
687.82        66.27262
688.24        66.31468
688.66        66.15115
689.09        66.20551
689.51        66.29118
689.94        66.36314
690.36        66.40773
690.78        66.43573
691.21        66.47605
691.63        66.54803
692.06        66.65364
692.48        66.78368
692.90        66.88667
693.33        66.87473
693.75        66.73354
694.17        66.51368
694.60        66.30085
695.02         66.1449
695.44        66.11633
695.87        66.37276
696.29        66.77059
696.71        66.82242
697.14        66.56959
697.56        66.11266
697.98        66.23874
698.41        66.19553
698.83        66.19453
699.25        66.39567
699.68        66.66893
700.10        66.76091
700.52        66.59933
700.94        66.27576
701.37        65.94413
701.79        65.85969
702.21        66.06809
702.64        66.47028
703.06        66.91141
703.48        67.11981
703.90        67.01936
704.33         66.7173
704.75        66.34589
705.17        66.04632
705.59        65.87798
706.01        66.03298
706.44        66.04234
706.86        66.21101
707.28        66.37463
707.70         66.5154
708.12        66.64362
708.55        66.86604
708.97        67.13277
709.39        67.17901
709.81         67.0241
710.23        66.95437
710.66        66.99126
711.08          66.991
711.50        66.92581
711.92        66.84057
712.34        66.74046
712.76        66.63399
713.19        66.52611
713.61        66.45998
714.03        66.43542
714.45        66.45041
714.87        66.52785
715.29        66.70287
715.71        66.96436
716.13        67.27966
716.56        67.56538
716.98        67.77334
717.40        67.83759
717.82        67.78058
718.24        67.61445
718.66        67.36441
719.08        67.07121
719.50         66.7599
719.92        66.49612
720.34        66.37216
720.76        66.40427
721.19        66.54463
721.61        66.78489
722.03        67.05319
722.45        67.30254
722.87        67.53109
723.29        67.67178
723.71         67.6246
724.13        67.38774
724.55        67.00465
724.97        66.58469
725.39        66.31792
725.81         66.2596
726.23        66.33627
726.65        66.49578
727.07        66.79451
727.49        66.95203
727.91        67.18195
728.33         67.3801
728.75        67.49863
729.17        67.52306
729.59         67.4517
730.01        67.33623
730.43        67.26823
730.85        67.26988
731.27        67.31857
731.69        67.36834
732.10        67.34116
732.52        67.22311
732.94         67.0617
733.36        66.92312
733.78        66.78393
734.20        66.65224
734.62        66.76344
735.04        67.17267
735.46        66.71804
735.88        67.36143
736.30        67.49754
736.72        67.69222
737.13        67.84106
737.55        67.88014
737.97        67.97438
738.39         68.0425
738.81         67.6676
739.23        67.01524
739.65        66.94717
740.06        67.38596
740.48        67.56236
740.90        67.41982
741.32        67.41874
741.74         67.5834
742.16        67.71117
742.57        67.79262
742.99        67.86015
743.41        67.89152
743.83        67.83839
744.25        67.69982
744.67        67.47837
745.08        67.25961
745.50         67.1588
745.92        67.21159
746.34        67.38851
746.75         67.5911
747.17        67.63413
747.59        67.48543
748.01        67.22627
748.42        66.97365
748.84        66.85023
749.26        66.92345
749.68        67.26536
750.09        67.72346
750.51          67.925
750.93        67.80979
751.35        67.56664
751.76        67.27023
752.18        66.99014
752.60        66.76862
753.01        66.61072
753.43        66.50821
753.85        66.47281
754.27        66.50724
754.68        66.62423
755.10        66.79485
755.52        66.96235
755.93        67.09052
756.35        67.16656
756.77        67.24873
757.18        67.29032
757.60        67.29276
758.02        67.54101
758.43        67.94645
758.85        67.17336
759.26        67.26723
759.68        66.54459
760.10        66.84348
760.51        67.06007
760.93          67.447
761.34        67.39744
761.76        67.30621
762.18        67.47307
762.59        67.97184
763.01         68.1581
763.42        68.05846
763.84        67.99531
764.26        67.99373
764.67        67.93801
765.09        67.85555
765.50        67.51652
765.92        67.09137
766.33        67.12997
766.75        67.50462
767.16        67.58499
767.58        67.28632
768.00        67.07806
768.41        67.08334
768.83        67.20415
769.24        67.37052
769.66        67.60756
770.07        67.79294
770.49        67.42413
770.90        66.76665
771.32        67.08295
771.73        68.19253
772.15        68.56587
772.56        68.11736
772.97        67.67217
773.39        67.42153
773.80        67.31163
774.22        67.37801
774.63        67.68029
775.05        68.02726
775.46        68.17918
775.88        68.04343
776.29        67.71432
776.70        67.34402
777.12        67.20427
777.53         67.3705
777.95        67.71741
778.36        68.11919
778.77        68.32998
779.19        68.29816
779.60        68.12088
780.02          67.872
780.43         67.7269
780.84        67.75098
781.26        67.65888
781.67        67.53288
782.09        67.98424
782.50         68.7748
782.91        68.75217
783.33        67.99862
783.74        67.70718
784.15         67.9381
784.57        67.99238
784.98        67.89536
785.39        67.99232
785.81        68.28158
786.22        68.67775
786.63        69.04279
787.04        69.15407
787.46        68.99216
787.87        68.61395
788.28        68.21349
788.70        68.06812
789.11        68.21068
789.52        68.57717
789.93        69.00824
790.35        69.22923
790.76        69.17501
791.17        68.92065
791.58        68.59505
792.00        68.34949
792.41        68.25475
792.82        68.36499
793.23        68.58299
793.65        68.48915
794.06        68.17903
794.47          68.303
794.88        68.78622
795.29        68.99017
795.71        68.85298
796.12        68.80871
796.53        68.88741
796.94        68.83375
797.35        68.71491
797.76        68.89972
798.18        69.29172
798.59        69.46806
799.00         69.3652
799.41        69.20936
799.82        69.08197
800.23        69.02641
800.64        69.06818
801.06        69.15765
801.47        69.27987
801.88        69.31523
802.29        69.23392
802.70        69.07689
803.11        68.87622
803.52        68.68267
803.93        68.53304
804.34        68.41846
804.75        68.37573
805.17        68.48398
805.58        68.78159
805.99        69.11171
806.40         69.4096
806.81        69.83035
807.22        70.20225
807.63        69.94333
808.04        69.21797
808.45        68.83301
808.86        68.88855
809.27        68.99982
809.68        69.06013
810.09        69.05637
810.50        68.95412
810.91        68.76931
811.32        68.62608
811.73        68.71526
812.14        69.06775
812.55        69.61612
812.96        70.18757
813.37        70.46074
813.78        70.33846
814.19        69.93305
814.60        69.40878
815.01        68.98907
815.42        68.73512
815.83        68.58468
816.24        68.51841
816.65        68.50108
817.05         68.5239
817.46        68.59181
817.87        68.69701
818.28        68.76589
818.69        68.78278
819.10        68.73686
819.51        68.70405
819.92        68.82977
820.33        69.13309
820.74        69.56357
821.14        69.96902
821.55        70.10415
821.96        69.92284
822.37        69.49802
822.78        69.00769
823.19        68.75554
823.60        68.83101
824.00        69.17759
824.41        69.59219
824.82          69.828
825.23        69.79373
825.64        69.56689
826.04        69.27531
826.45        69.08334
826.86        69.06198
827.27        69.16785
827.68        69.30965
828.08        69.36648
828.49        69.25162
828.90        69.01936
829.31        68.80522
829.72        68.82626
830.12        69.14378
830.53        69.63271
830.94        70.08244
831.35        70.09013
831.75        69.59042
832.16        68.71095
832.57        67.76308
832.97        67.21455
833.38        67.18805
833.79        67.51247
834.20         68.0364
834.60         68.5151
835.01         68.8555
835.42        69.18061
835.82        69.42612
836.23         69.3985
836.64        69.11944
837.04        68.59187
837.45        68.12724
837.86        68.30817
838.26        69.25491
838.67        70.76553
839.08        72.31593
839.48        72.91083
839.89        72.28578
840.29        70.78703
840.70        69.12317
841.11        68.13073
841.51        68.02782
841.92        68.54865
842.33         69.3996
842.73        70.05798
843.14        70.22576
843.54         70.1254
843.95        69.92153
844.35        69.91748
844.76        70.17011
845.17        70.55147
845.57          70.911
845.98        70.99991
846.38        70.78334
846.79         70.3502
847.19        69.86457
847.60         69.5556
848.00         69.5003
848.41        69.60175
848.81         69.7897
849.22        69.86331
849.62        69.80573
850.03        69.67178
850.43        69.51675
850.84         69.3553
851.24        69.25164
851.65        69.12359
852.05        69.10735
852.46        69.32788
852.86        69.78329
853.27        70.41438
853.67        70.95405
854.07        71.15144
854.48        70.94436
854.88        70.43096
855.29         69.7579
855.69        69.33762
856.10        69.23269
856.50        69.41279
856.90        69.68995
857.31        69.76182
857.71        69.59365
858.12        69.21697
858.52         68.7989
858.92        68.50036
859.33         68.3597
859.73         68.3583
860.13         68.3766
860.54        68.24581
860.94        67.96962
861.34        67.60276
861.75        67.23907
862.15        67.06715
862.55        67.10889
862.96          67.257
863.36        67.48927
863.76        67.68723
864.17        67.78674
864.57        67.85979
864.97        67.80521
865.38        67.47247
865.78        66.89471
866.18          66.113
866.58        65.38536
866.99        65.17032
867.39        65.59036
867.79        66.48353
868.19        67.54187
868.60        68.27105
869.00        68.56748
869.40        68.53826
869.80        68.31031
870.21        68.14423
870.61        68.19705
871.01        68.31305
871.41        68.41019
871.81        68.38619
872.22        68.20775
872.62        67.93217
873.02        67.60947
873.42        67.29743
873.82        67.02956
874.22        66.79202
874.63        66.57132
875.03        66.36964
875.43        66.17011
875.83        65.97945
876.23         65.8151
876.63        65.69701
877.03         65.6317
877.44        65.59318
877.84        65.56699
878.24        65.54728
878.64        65.49341
879.04        65.27123
879.44        65.02624
879.84        65.09447
880.24        65.48859
880.64        66.06223
881.04        66.56992
881.44        66.63799
881.84        66.18832
882.24        65.35703
882.65         64.4368
883.05        63.87674
883.45        63.80667
883.85        64.11546
884.25        64.61719
884.65         64.9844
885.05        65.10635
885.45        65.07442
885.85        65.01279
886.25         65.1086
886.65        65.40164
887.05        65.81152
887.45        66.20105
887.85        66.36388
888.25        66.24294
888.65        65.89894
889.04        65.47812
889.44        65.23402
889.84        65.20718
890.24        65.32745
890.64        65.44324
891.04        65.30531
891.44        64.88147
891.84        64.30251
892.24         63.7327
892.64        63.39839
893.04        63.36676
893.44        63.56822
893.83        63.96873
894.23        64.45998
894.63        64.98995
895.03        65.53844
895.43        66.04723
895.83        66.43265
896.23         66.6501
896.63        66.68951
897.02        66.52246
897.42         66.1524
897.82        65.62564
898.22        65.01548
898.62        64.42718
899.01        63.99335
899.41        63.76981
899.81        63.70629
900.21        63.81269
900.61        64.09104
901.00        64.49625
901.40        65.00008
901.80        65.43983
902.20        65.55801
902.59        65.32481
902.99         64.8158
903.39        64.22655
903.79        63.88844
904.18        63.88126
904.58        64.09611
904.98        64.45557
905.38        64.84364
905.77         65.2034
906.17        65.59976
906.57         65.8911
906.96        65.83978
907.36        65.41701
907.76        64.70501
908.15        64.04395
908.55        63.96333
908.95        64.57115
909.34        65.70827
909.74        66.95786
910.14        67.70197
910.53        67.72746
910.93        67.24143
911.33        66.45779
911.72        65.70382
912.12        65.17957
912.52        64.80538
912.91        64.58157
913.31        64.53071
913.70        64.64304
914.10        64.89854
914.49        65.34054
914.89        65.93024
915.29         66.6282
915.68        67.39979
916.08        67.99536
916.47        68.09529
916.87        67.67062
917.26        66.82276
917.66        65.91338
918.05         65.3485
918.45         65.2386
918.84        65.51862
919.24        65.97382
919.64        66.34453
920.03        66.53787
920.42        66.58871
920.82        66.62807
921.21        66.80823
921.61        67.13733
922.00        67.57317
922.40        67.92193
922.79        68.01492
923.19        67.78037
923.58        67.31799
923.98        66.79795
924.37        66.39527
924.77        66.18021
925.16        66.07491
925.55        66.04166
925.95        65.99274
926.34         65.9107
926.74        65.80642
927.13        65.65553
927.52        65.34682
927.92         64.9288
928.31        64.43725
928.70        63.99889
929.10        63.78042
929.49        63.80369
929.89        63.95784
930.28         64.2981
930.67        64.80289
931.07        65.39137
931.46        66.12808
931.85        66.69941
932.24        66.65006
932.64        65.97494
933.03        64.80224
933.42        63.67759
933.82         63.3987
934.21         64.1164
934.60         65.6338
934.99        67.41766
935.39        68.48867
935.78        68.57298
936.17        67.84811
936.56        66.76631
936.96        66.04777
937.35        65.89767
937.74        66.11034
938.13        66.34251
938.53        66.08813
938.92        65.26734
939.31        64.12798
939.70        63.04779
940.09        62.52809
940.49        62.64708
940.88         63.2678
941.27        64.13437
941.66        64.77701
942.05         65.0299
942.44        65.03973
942.84        64.96085
943.23        65.03189
943.62        65.32987
944.01        65.71979
944.40        66.17152
944.79        66.67375
945.18        67.16518
945.57        67.63065
945.97        67.88088
946.36        67.69794
946.75        67.02997
947.14        66.04178
947.53        64.95616
947.92        64.06995
948.31        63.49404
948.70        63.17896
949.09        63.17708
949.48        63.55441
949.87        64.27821
950.26        65.29893
950.65         66.4109
951.04        67.27787
951.43        67.76124
951.82        67.86977
952.21        67.69124
952.60        67.41533
952.99        67.13802
953.38        66.87384
953.77        66.57984
954.16        66.17691
954.55        65.67033
954.94        65.08463
955.33        64.66073
955.72        64.78741
956.11        65.52048
956.50        66.74036
956.89        67.93969
957.28        68.26632
957.66        67.52366
958.05        66.02544
958.44        64.36808
958.83        63.41882
959.22        63.36242
959.61        63.94847
960.00        64.79201
960.39        65.18281
960.78        64.88971
961.16        64.15862
961.55        63.32492
961.94        62.77412
962.33        62.62947
962.72         62.7871
963.11        63.11555
963.49         63.4203
963.88        63.53813
964.27        63.51308
964.66        63.54944
965.04         63.9825
965.43        64.80527
965.82         65.9672
966.21        66.97453
966.60        66.91535
966.98          65.597
967.37        63.44988
967.76        61.31276
968.15        60.22633
968.53        60.36945
968.92        61.48695
969.31        63.00458
969.69        63.76145
970.08        63.30713
970.47        62.04727
970.86        60.70604
971.24        60.29936
971.63         61.0403
972.02        62.62007
972.40        64.50047
972.79        65.37086
973.17        64.88568
973.56        63.52305
973.95        61.95426
974.33        61.03056
974.72        60.95217
975.11          61.409
975.49        62.20834
975.88        62.91911
976.26        63.38124
976.65        63.70451
977.04        63.83006
977.42        63.61617
977.81        63.05343
978.19        62.14117
978.58        61.27822
978.96        61.09746
979.35        61.70119
979.74        62.94957
980.12        64.41451
980.51        65.06821
980.89        64.76344
981.28        63.80112
981.66         62.6908
982.05        62.13754
982.43        62.32751
982.82        62.99778
983.20        64.07482
983.59        65.30934
983.97        66.58891
984.35        67.94392
984.74        68.96471
985.12        69.21361
985.51        68.55956
985.89        67.15621
986.28        65.60127
986.66        64.72914
987.04        64.81071
987.43        65.64314
987.81        66.83012
988.20        67.44971
988.58        67.21867
988.96        66.31264
989.35        65.21691
989.73        64.62876
990.12         64.6693
990.50        65.16391
990.88        65.56845
991.27         64.9837
991.65        63.30208
992.03        60.96167
992.42        58.80463
992.80        57.91582
993.18        58.51898
993.56        60.30594
993.95        62.60759
994.33        64.26969
994.71        64.69972
995.10        64.28924
995.48        63.47822
995.86        63.05199
996.24        63.21472
996.63        63.52753
997.01        63.99279
997.39        64.32053
997.77        64.37115
998.15         64.4454
998.54        64.27069
998.92        63.25851
999.30        61.52106
999.68        59.24456
1000.06        57.42101
1000.45         57.4648
1000.83         59.7137
1001.21         63.9455
1001.59         68.9379
1001.97        71.72848
1002.35        71.17557
1002.73        68.14189
1003.12        64.51402
1003.50        62.72036
1003.88        63.40262
1004.26        65.80457
1004.64        69.05038
1005.02        71.25629
1005.40        71.56973
1005.78        70.72179
1006.16        69.03075
1006.54         66.9388
1006.92         64.8376
1007.30        62.61831
1007.69        60.92026
1008.07         60.5085
1008.45        61.60534
1008.83        64.09116
1009.21        67.24658
1009.59        69.16376
1009.97        68.91488
1010.35        67.00246
1010.73        64.16128
1011.11        61.51096
1011.49          59.516
1011.86        57.95351
1012.24        56.96593
1012.62        56.70594
1013.00        57.15741
1013.38        58.41031
1013.76        60.23577
1014.14        61.84824
1014.52         62.7631
1014.90        62.94039
1015.28        62.73047
1015.66        62.81709
1016.04        63.34515
1016.41        64.12968
1016.79        64.69883
1017.17        64.31213
1017.55        62.87068
1017.93        60.76236
1018.31          58.679
1018.69        57.48021
1019.06        57.36635
1019.44        58.20095
1019.82        59.53284
1020.20         60.2833
1020.58        59.95394
1020.95        58.73096
1021.33        57.45933
1021.71          57.029
1022.09        57.60816
1022.46        59.21914
1022.84        60.91956
1023.22        60.61931
1023.60        57.78431
1023.97        53.09918
1024.35        49.13682
1024.73        48.75476
