SpectraSmart Spectrum 2.9.0.0
--------- Device Information -----------
Spectrum Name :  反射率_0
Saving Time :  2024/04/26 22:38:27
Spectro-Module Model Name : SE2030-DUVN
Spectro-Module Serial Number : OS361AC55029948
Wavelength Start : 200
Wavelength End : 1025
Wavelength Unit : Wavelength(nm)
Spectrum Unit : Reflectance(%)
-----------Spectrum Setting ------------
Integration Time : 20ms
Average : 10
Boxcar : 0
Background removal :  enabled
linearity correction :  enabled
SC :  disabled
Intensity correction :  disabled
DWT denoise :  enabled
savitzky-golay :  disabled
FFT :  disabled
Running average :  disabled
Kalman :  disabled
High pass :  disabled
---------------BEGIN--------------------
Wavelength(nm)             Reflectance(%)
200.29               0
200.75         50.8227
201.21        49.21741
201.67        48.31954
202.13        47.53629
202.58        46.59925
203.04        45.91936
203.50        45.97497
203.96        47.67888
204.42        51.48145
204.88        56.95139
205.34        62.57776
205.80         66.0183
206.26        66.39766
206.72        64.09968
207.18        60.94534
207.64        58.43734
208.10        56.60598
208.55        55.54737
209.01        53.63497
209.47         49.1567
209.93        43.92431
210.39        40.13853
210.85        38.91824
211.31        40.77253
211.77         46.5279
212.23        60.65329
212.69        96.04236
213.14        153.3139
213.60        146.5162
214.06        102.8528
214.52        75.27444
214.98         65.1825
215.44        63.66083
215.90        65.16733
216.36        68.44112
216.81        72.16615
217.27        76.07442
217.73        82.63848
218.19        89.25542
218.65        85.07515
219.11        70.94079
219.57        55.93233
220.02        47.17218
220.48        47.54056
220.94        55.88955
221.40        73.06656
221.86        98.70702
222.32        116.4148
222.77        111.0777
223.23         93.3039
223.69        74.39217
224.15        60.63897
224.61        51.63857
225.06        44.97751
225.52        40.73093
225.98        38.91322
226.44        39.01141
226.90        40.80294
227.36        43.18931
227.81        44.20002
228.27        43.54149
228.73        41.72959
229.19        39.95404
229.65        39.67069
230.10        40.89686
230.56         43.0506
231.02        45.07011
231.48        45.31073
231.93        43.57733
232.39        40.96739
232.85        38.42882
233.31        37.15557
233.77         37.3206
234.22        38.50406
234.68        40.35066
235.14        42.47741
235.60        44.69981
236.05        47.23132
236.51        49.81444
236.97        51.79469
237.43        52.87975
237.88         53.0629
238.34        52.81842
238.80        53.42807
239.26        55.46265
239.71        59.30394
240.17        64.51814
240.63        69.65912
241.08        73.66541
241.54        76.05332
242.00        78.18369
242.46        83.45973
242.91        94.87649
243.37        114.0497
243.83        142.1971
244.28        168.8302
244.74        175.4884
245.20        159.9479
245.66        136.5822
246.11        119.4874
246.57        110.2056
247.03        105.0882
247.48        100.8425
247.94        93.72911
248.40        85.55117
248.85        78.85121
249.31        75.07899
249.77        74.24132
250.22        75.72455
250.68         79.1055
251.14        83.87619
251.59        87.44259
252.05        88.11662
252.51        87.29119
252.96        85.00363
253.42        81.97678
253.88        78.75633
254.33        75.15725
254.79        73.68676
255.25        76.16153
255.70        81.93056
256.16        89.96879
256.62        96.69942
257.07        96.79353
257.53        91.82623
257.99         85.1322
258.44        79.25329
258.90        76.59271
259.35        75.99097
259.81        76.71174
260.27        77.41768
260.72        76.65446
261.18        74.73618
261.63        72.04121
262.09        69.76627
262.55        68.54272
263.00        68.15952
263.46        68.38838
263.91        68.35772
264.37        67.37817
264.83        65.41863
265.28        62.86105
265.74        60.51193
266.19        58.99319
266.65        58.44311
267.11        58.46602
267.56        58.65196
268.02        58.37934
268.47        57.46981
268.93        56.18098
269.38        54.66469
269.84        53.21432
270.30        51.91081
270.75        50.63714
271.21        49.46505
271.66        48.44221
272.12         47.5625
272.57        46.80494
273.03        46.03438
273.48         45.0044
273.94        43.75384
274.39        42.34549
274.85        41.03086
275.31         40.0015
275.76        39.26102
276.22        38.76584
276.67        38.36404
277.13         37.9474
277.58          37.418
278.04        36.84062
278.49        36.19307
278.95        35.57182
279.40        34.94612
279.86        34.37098
280.31        33.76409
280.77        33.13209
281.22        32.44351
281.68        31.77692
282.13         31.1843
282.59        30.82431
283.04         30.6725
283.50        30.70926
283.95        30.79904
284.41        30.74173
284.86        30.50027
285.32        30.17218
285.77        29.88396
286.22        29.88571
286.68         30.2038
287.13        30.69486
287.59        31.23191
288.04        31.57209
288.50        31.67586
288.95        31.59561
289.41        31.41265
289.86        31.16757
290.32        30.95011
290.77        30.75368
291.22        30.66182
291.68        30.78107
292.13        31.12793
292.59        31.70914
293.04        32.50056
293.50         33.4662
293.95         34.5717
294.40        35.82995
294.86        37.19833
295.31        38.60318
295.77        40.03676
296.22        41.48164
296.68        43.01607
297.13        44.75196
297.58        46.71354
298.04         48.8671
298.49        51.08535
298.95         53.1903
299.40        55.12063
299.85        56.92418
300.31        58.72862
300.76        60.70539
301.21         62.8972
301.67        65.26151
302.12        67.62445
302.58        69.82482
303.03        71.77988
303.48        73.59008
303.94         75.4183
304.39        77.42222
304.84        79.66731
305.30        82.09665
305.75        84.54079
306.20        86.84882
306.66        88.98798
307.11        90.95959
307.57        92.84426
308.02        94.63551
308.47        96.37641
308.93        98.06055
309.38        99.67439
309.83        101.3405
310.29        103.0784
310.74        104.8531
311.19         106.555
311.65        107.9651
312.10          109.01
312.55        109.7469
313.00        110.3488
313.46        111.0964
313.91        112.0332
314.36        113.1177
314.82        114.1962
315.27         115.037
315.72        115.5597
316.18        115.8707
316.63         116.084
317.08        116.4333
317.53        116.9817
317.99        117.6474
318.44        118.3395
318.89        118.8771
319.35        119.2043
319.80        119.3817
320.25        119.4976
320.70        119.6933
321.16        120.0067
321.61         120.444
322.06        120.9072
322.51        121.2493
322.97        121.4204
323.42        121.4658
323.87        121.5496
324.32        121.9641
324.78        122.7138
325.23        123.7931
325.68        124.8286
326.13        125.2133
326.59        124.8174
327.04        123.8673
327.49         122.823
327.94        122.4491
328.39        122.9296
328.85        123.9946
329.30        125.3872
329.75        126.3375
330.20        126.5856
330.66        126.3297
331.11        125.8766
331.56        125.6277
332.01        125.7363
332.46        126.0428
332.92        126.4208
333.37         126.864
333.82        127.2631
334.27        127.7052
334.72        128.1456
335.17        128.4721
335.63         128.669
336.08        128.8199
336.53        129.0586
336.98        129.6748
337.43        130.7129
337.88        132.0417
338.34        133.4417
338.79         134.683
339.24        135.5824
339.69        136.2121
340.14        136.5257
340.59        136.4756
341.05        136.1546
341.50        135.5999
341.95        135.0964
342.40        135.0764
342.85        135.6319
343.30        136.6483
343.75        137.8792
344.20        138.8878
344.66        139.5277
345.11        139.9007
345.56        140.0897
346.01        140.2493
346.46          140.45
346.91         140.641
347.36        140.8293
347.81        141.0532
348.26        141.3012
348.72        141.5537
349.17        141.8013
349.62        142.0578
350.07         142.308
350.52        142.5759
350.97         142.687
351.42        142.3721
351.87        141.6259
352.32        140.5431
352.77        139.5139
353.22         139.107
353.67        139.4029
354.13        140.2234
354.58        141.1197
355.03        141.2876
355.48        140.5392
355.93        139.1327
356.38        137.5741
356.83         136.626
357.28        136.4416
357.73        136.7442
358.18        137.1372
358.63        136.9877
359.08        136.1257
359.53         134.792
359.98        133.2377
360.43        131.8073
360.88        130.6091
361.33        129.5283
361.78        128.5181
362.23        127.5263
362.68        126.5408
363.13        125.6203
363.58        124.7483
364.03        123.8663
364.48        122.9513
364.93        121.9829
365.38        121.0088
365.83        120.1325
366.28        119.3711
366.73        118.6966
367.18        118.0015
367.63        117.1111
368.08        116.0024
368.53         114.749
368.98        113.4917
369.43        112.4472
369.88        111.6723
370.33         111.101
370.78        110.6391
371.23        110.1335
371.68        109.5258
372.13        108.8476
372.58        108.1326
373.03        107.4349
373.48        106.7582
373.93        106.0643
374.38        105.3087
374.83        104.4399
375.28        103.4628
375.72        102.4014
376.17        101.3725
376.62        100.4168
377.07         99.5695
377.52        98.84232
377.97        98.22965
378.42        97.73339
378.87        97.33984
379.32        97.00075
379.77        96.75068
380.22        96.63904
380.67        96.63393
381.11        96.74259
381.56        96.68217
382.01        96.10899
382.46        95.01923
382.91        93.59535
383.36        92.23656
383.81        91.48546
384.26        91.40958
384.71        91.81602
385.15        92.40723
385.60        92.65301
386.05        92.39684
386.50        91.80402
386.95        91.00364
387.40        90.20733
387.85        89.51397
388.29        88.80486
388.74        88.24216
389.19        87.82698
389.64        87.54308
390.09        87.38618
390.54        87.25891
390.98         86.9688
391.43        86.52737
391.88        85.98099
392.33        85.44296
392.78        85.03421
393.23        84.76973
393.67        84.68066
394.12        84.73936
394.57        84.45674
395.02        83.93147
395.47        83.83823
395.91        84.10555
396.36        83.99245
396.81        83.49111
397.26        83.02347
397.71        82.64914
398.15        82.26653
398.60         81.9856
399.05        81.70683
399.50        81.45823
399.95        81.40363
400.39        81.48415
400.84        81.34489
401.29        80.96423
401.74         80.5721
402.18        80.19232
402.63        79.65543
403.08        79.08952
403.53        78.74424
403.97        78.64545
404.42        78.71584
404.87        78.85972
405.32        78.88495
405.76        78.72902
406.21        78.58329
406.66        78.44417
407.11        78.11836
407.55        77.77096
408.00        77.77709
408.45        78.09955
408.90        78.43245
409.34        78.54942
409.79        78.09866
410.24        77.29851
410.68        76.90023
411.13        76.97739
411.58        77.09949
412.03         77.1294
412.47        77.04559
412.92         76.7865
413.37        76.40661
413.81        76.01659
414.26        75.84793
414.71        75.91161
415.15        76.16943
415.60        76.49628
416.05        76.75957
416.49        76.90347
416.94        76.94792
417.39        76.93302
417.83        76.90623
418.28        76.89268
418.73         76.8752
419.17        76.84388
419.62        76.79247
420.07        76.71161
420.51        76.58582
420.96        76.47995
421.41        76.39019
421.85        76.28809
422.30        76.35011
422.74         76.4192
423.19        76.14169
423.64        75.57874
424.08         75.3371
424.53        75.42242
424.98        75.45164
425.42        75.41286
425.87        75.70673
426.31        76.18831
426.76        76.05857
427.21        75.45411
427.65        75.36643
428.10        75.75844
428.54        75.88905
428.99        75.79059
429.44        75.64452
429.88        75.56243
430.33        75.98617
430.77        76.63181
431.22        76.78378
431.66        76.41028
432.11        75.93127
432.56        75.53948
433.00        75.56411
433.45        76.17275
433.89        76.82671
434.34        76.72074
434.78        78.34169
435.23        76.70732
435.67        74.41962
436.12        75.45023
436.57         75.7172
437.01        76.39736
437.46        76.69237
437.90        76.65559
438.35        75.66845
438.79        75.64526
439.24        75.77753
439.68         75.5881
440.13        75.90182
440.57        76.40974
441.02        76.63716
441.46        76.57245
441.91        77.32246
442.35        78.39678
442.80        78.00681
443.24        76.51873
443.69        76.35484
444.13        77.45144
444.58        77.98793
445.02        77.83015
445.47        77.78524
445.91         77.9475
446.36        78.14683
446.80        78.34378
447.24        78.71079
447.69         79.1734
448.13        78.77607
448.58        78.57378
449.02        78.63879
449.47        79.14079
449.91        79.19717
450.36        78.81409
450.80        78.45197
451.25        78.24591
451.69        78.15575
452.13          78.223
452.58        78.43286
453.02         78.6983
453.47        78.88681
453.91        78.94131
454.36         78.9006
454.80        78.75437
455.24        78.44543
455.69        77.99065
456.13        77.54342
456.58        77.24309
457.02        76.70898
457.46        76.12296
457.91        76.79641
458.35        77.32403
458.79        77.41968
459.24        76.74816
459.68        75.84035
460.13        75.04778
460.57         74.6897
461.01        74.92041
461.46         75.2891
461.90        75.70341
462.34        76.66813
462.79        76.49564
463.23        76.55804
463.68        76.32988
464.12        76.01714
464.56        75.58601
465.01        74.70911
465.45        73.68618
465.89        73.54653
466.34        74.07888
466.78        74.62693
467.22        74.52763
467.67        73.99688
468.11        73.96266
468.55        73.98991
468.99        74.28316
469.44         74.2356
469.88        73.85261
470.32        73.53946
470.77        73.35421
471.21        73.19598
471.65         73.0674
472.10        73.00816
472.54        73.00438
472.98        72.99142
473.42        72.94023
473.87        73.01582
474.31        73.08723
474.75        72.70498
475.20        72.03323
475.64        71.80813
476.08        72.12135
476.52         72.0451
476.97         71.5218
477.41        71.66508
477.85        72.17633
478.29        71.10925
478.74        71.77106
479.18        71.85989
479.62        71.97721
480.06        72.04505
480.50        71.97344
480.95        71.88711
481.39        71.74508
481.83        71.76167
482.27        71.54405
482.72        71.63306
483.16        71.43657
483.60        71.38545
484.04         71.5217
484.48        71.90606
484.93        72.03854
485.37        71.94598
485.81        71.09056
486.25        70.18137
486.69        69.83424
487.14        73.44423
487.58        73.28233
488.02        71.92963
488.46        70.44581
488.90        70.69628
489.34        71.67812
489.79        72.56197
490.23        71.77269
490.67        71.07099
491.11        70.46918
491.55        70.33789
491.99        70.63563
492.43        70.61592
492.88        70.27047
493.32        70.18406
493.76        70.37624
494.20        70.52028
494.64        70.59305
495.08        70.72453
495.52        70.82579
495.96        70.75509
496.41        70.53585
496.85        70.16682
497.29        69.71275
497.73        69.94701
498.17         69.8872
498.61        69.90721
499.05        69.73273
499.49        69.78706
499.93        69.82034
500.37        70.05804
500.82        70.32851
501.26        70.20117
501.70        69.78886
502.14        69.82598
502.58        70.27158
503.02        70.43521
503.46         70.2884
503.90        70.24129
504.34        70.28558
504.78         70.2205
505.22        70.03423
505.66         69.7872
506.10        69.59352
506.54        69.51431
506.98        69.47221
507.42        69.89721
507.86        69.86141
508.30        69.42135
508.74        69.77414
509.18        69.62284
509.62        69.44749
510.06        69.36378
510.50        69.40976
510.94        69.51465
511.38        69.61829
511.82        69.66465
512.26         69.6333
512.70         69.5523
513.14        69.45613
513.58        69.40701
514.02        69.43792
514.46        69.47149
514.90        69.47538
515.34        69.58062
515.78        69.81116
516.22        69.44149
516.66        69.72015
517.10        69.61665
517.54        69.50814
517.98        69.37524
518.42        69.24806
518.86        69.15126
519.30        69.08505
519.74        69.05354
520.18        69.05827
520.62        69.09883
521.06        69.17101
521.50        69.27876
521.93        69.39186
522.37        69.43887
522.81        69.41626
523.25         69.3343
523.69        69.24966
524.13        69.25633
524.57        69.36389
525.01        69.53126
525.45          69.686
525.89        69.71098
526.32        69.57337
526.76        69.33992
527.20        69.05423
527.64        68.79015
528.08         68.5811
528.52        68.40707
528.96        68.29585
529.40        68.28827
529.83        68.37749
530.27        68.56036
530.71        68.75445
531.15         68.8324
531.59        68.76665
532.03        68.58453
532.46        68.36096
532.90        68.26708
533.34        68.32521
533.78        68.44732
534.22         68.5543
534.66        68.61034
535.09        68.54106
535.53        68.23133
535.97        67.78848
536.41         67.5538
536.85        67.57532
537.28         67.6968
537.72        67.86216
538.16        68.03297
538.60         68.1721
539.04        68.28672
539.47        68.36375
539.91        68.42798
540.35        68.46716
540.79        68.47276
541.22        68.44084
541.66        68.39239
542.10        68.32961
542.54        68.26009
542.97         68.1797
543.41        68.11304
543.85        68.05049
544.29        67.98885
544.72        67.92993
545.16        67.89822
545.60        67.88661
546.04        67.95972
546.47        68.07275
546.91         68.0587
547.35        67.97729
547.79        67.99687
548.22        68.12273
548.66         68.4232
549.10        68.80154
549.53        68.63748
549.97        68.05375
550.41        67.69956
550.84        67.71109
551.28        67.79802
551.72        67.86361
552.15        68.05671
552.59        68.40047
553.03        67.78431
553.46        68.26203
553.90        68.10482
554.34         67.9097
554.77        67.89859
555.21        67.62623
555.65        67.71873
556.08         67.9677
556.52        68.16022
556.96        68.22124
557.39        68.34538
557.83         68.4696
558.27        68.16587
558.70        67.54617
559.14        67.25697
559.57        67.30524
560.01        67.23697
560.45        67.09317
560.88        67.27554
561.32        67.71287
561.75        67.99564
562.19        68.07554
562.63        67.93499
563.06        67.68144
563.50         67.7009
563.93        67.89882
564.37        67.95837
564.80        67.87392
565.24        67.65726
565.68        67.22755
566.11        67.85205
566.55        67.10357
566.98        66.98042
567.42        66.90219
567.85        66.88611
568.29        67.35503
568.72        67.67206
569.16        67.98413
569.60        68.20397
570.03        68.16994
570.47        68.30171
570.90        68.68439
571.34        67.76439
571.77        68.06201
572.21        68.83502
572.64        68.41627
573.08        68.60388
573.51        68.11274
573.95        67.99771
574.38        68.25658
574.82        68.57265
575.25         68.3412
575.69         68.4678
576.12        68.64593
576.56        67.70779
576.99         67.5995
577.42        67.77314
577.86         67.9962
578.29        68.57761
578.73        68.72913
579.16        68.83529
579.60        68.23251
580.03        68.13694
580.47        67.82292
580.90         69.1319
581.33        69.21619
581.77        68.72289
582.20        68.24361
582.64        69.34148
583.07        68.92276
583.51         68.7335
583.94        68.41412
584.37        68.25636
584.81        68.49605
585.24         68.3307
585.68        67.85784
586.11        67.93382
586.54        68.70042
586.98        67.52382
587.41        67.27516
587.85        67.76081
588.28        67.85311
588.71        67.64979
589.15        67.34103
589.58        67.75379
590.01         67.5041
590.45        66.98181
590.88        68.28701
591.31        68.24174
591.75        67.67253
592.18        67.19609
592.61        67.07021
593.05        67.40141
593.48        67.83131
593.91        68.08909
594.35        68.44924
594.78        67.80158
595.21        66.97148
595.65        67.07246
596.08        68.34431
596.51        68.25535
596.94        67.72964
597.38        67.35101
597.81        67.41673
598.24        67.85632
598.68        67.37567
599.11        67.12979
599.54        68.24191
599.97        67.73273
600.41        67.73907
600.84        67.19989
601.27        67.61209
601.70        67.51379
602.14        67.51804
602.57        67.26969
603.00        67.13126
603.43        66.36363
603.87        67.49815
604.30         67.5331
604.73        67.31389
605.16        66.64901
605.60        67.04121
606.03        66.65666
606.46        66.14538
606.89        66.70204
607.32        67.08067
607.76        66.68009
608.19        67.06759
608.62        67.06263
609.05        66.92515
609.48        66.81149
609.92        67.58736
610.35        66.95076
610.78         66.6046
611.21        66.77402
611.64        66.65149
612.07        66.90713
612.50        66.78379
612.94        66.78886
613.37        66.76998
613.80        66.52724
614.23        65.99698
614.66        65.94601
615.09        66.52158
615.52        66.77873
615.96        66.66279
616.39        66.77127
616.82        67.16332
617.25        66.34357
617.68        66.39943
618.11        66.37879
618.54        66.78418
618.97        66.83458
619.40         66.5347
619.84        66.42215
620.27        66.27016
620.70        66.42479
621.13        66.65064
621.56        66.19856
621.99        65.24197
622.42        65.00418
622.85         65.4911
623.28        65.58707
623.71        65.47839
624.14        65.57097
624.57        65.97647
625.00        66.15449
625.43        66.13142
625.86        65.95859
626.29        65.68827
626.72        65.66686
627.15        65.62186
627.58        65.67616
628.01        65.60239
628.44        65.82056
628.87        65.61858
629.30        65.16815
629.73        65.19112
630.16        65.57049
630.59        65.35692
631.02        65.58939
631.45        65.85962
631.88        66.03848
632.31        66.07313
632.74        66.02476
633.17        65.91706
633.60        65.76022
634.03        65.58034
634.46        65.37133
634.89        65.16646
635.32        65.03735
635.75        65.00196
636.18        64.97566
636.61        64.96185
637.04        65.00133
637.47        65.08498
637.89        65.19248
638.32        65.26598
638.75        65.27744
639.18        65.21896
639.61        65.09702
640.04        64.96819
640.47        64.92624
640.90        64.98952
641.33        65.13313
641.76         65.2941
642.18        65.37237
642.61        65.32243
643.04        65.18814
643.47          65.028
643.90        64.93694
644.33        64.93793
644.76        64.99657
645.18        65.07838
645.61        65.10771
646.04        65.07601
646.47        65.02267
646.90        64.95668
647.33        64.88278
647.75        64.77963
648.18        64.68002
648.61        64.66756
649.04        64.63791
649.47        64.51196
649.89        65.30637
650.32        65.17471
650.75         65.0387
651.18        64.54202
651.61        64.53296
652.03        65.01358
652.46        65.25548
652.89        65.20525
653.32        65.23215
653.74        65.37169
654.17        64.92518
654.60        65.48589
655.03        64.86285
655.46         64.1606
655.88        64.24663
656.31         65.6413
656.74        65.48959
657.16        69.91234
657.59        74.09062
658.02         68.0529
658.45         66.6649
658.87        65.33068
659.30        65.50351
659.73        65.29228
660.15        66.46133
660.58        64.88309
661.01        64.74057
661.44        64.96414
661.86         64.7732
662.29        64.17003
662.72        64.54626
663.14        64.62338
663.57        64.61301
664.00        64.26334
664.42        64.30163
664.85        64.74415
665.27        65.20848
665.70        65.51975
666.13        65.62714
666.55        65.49699
666.98        65.08079
667.41        64.50393
667.83        64.39583
668.26        64.14577
668.69        64.23111
669.11        64.40586
669.54        64.57037
669.96        64.68302
670.39        64.82976
670.82        64.98132
671.24        64.92297
671.67        64.71191
672.09        64.64616
672.52        64.74599
672.94        64.75599
673.37        64.68266
673.80         64.6777
674.22        64.74278
674.65        64.76149
675.07        64.73868
675.50        64.69277
675.92        64.63261
676.35        64.55957
676.77        64.48082
677.20         64.3907
677.62        64.30407
678.05        64.24661
678.47        64.22166
678.90          64.231
679.32        64.25201
679.75        64.25948
680.17        64.24377
680.60         64.2149
681.02         64.1981
681.45        64.23206
681.87        64.33518
682.30        64.47124
682.72        64.62084
683.15        64.74088
683.57        64.81514
684.00        64.78113
684.42        64.69662
684.85        64.71923
685.27        64.85656
685.70        65.04706
686.12        65.21021
686.54        65.26146
686.97        65.17771
687.39        64.98441
687.82        64.74429
688.24        64.61533
688.66        64.61271
689.09        64.61794
689.51        64.62991
689.94        64.69246
690.36        64.79749
690.78        64.88567
691.21        64.96098
691.63        65.04425
692.06         65.1337
692.48        65.22884
692.90        65.27534
693.33        65.19692
693.75        64.98657
694.17         64.6441
694.60        64.30518
695.02        64.19034
695.44        64.31199
695.87        64.63313
696.29        64.99658
696.71        64.90106
697.14        64.43254
697.56        64.25153
697.98        64.41588
698.41        64.49577
698.83        64.48646
699.25         64.7041
699.68        65.03275
700.10        65.17498
700.52        65.06588
700.94         64.8103
701.37        64.52716
701.79        64.41302
702.21        64.51054
702.64        64.73899
703.06        65.01892
703.48        65.19982
703.90        65.22241
704.33        65.16792
704.75        65.08153
705.17        64.91099
705.59        64.66617
706.01        64.80065
706.44        64.53679
706.86        64.59013
707.28        64.71884
707.70        64.87512
708.12        65.04063
708.55        65.28432
708.97        65.54761
709.39        65.59239
709.81        65.42418
710.23        65.29402
710.66        65.22633
711.08        65.08681
711.50        64.90575
711.92         64.8187
712.34        64.84243
712.76        64.95467
713.19        65.08398
713.61        65.14146
714.03        65.09284
714.45        64.97912
714.87        64.88315
715.29        64.93455
715.71        65.15131
716.13        65.46999
716.56        65.79457
716.98        66.05225
717.40        66.16345
717.82        66.16364
718.24        66.04443
718.66         65.7936
719.08        65.44887
719.50        65.04373
719.92        64.68188
720.34        64.51884
720.76        64.58472
721.19        64.81537
721.61          65.168
722.03        65.51102
722.45        65.78028
722.87        65.99323
723.29        66.10662
723.71        66.06013
724.13        65.86173
724.55        65.53677
724.97        65.18872
725.39        64.97998
725.81        64.95428
726.23        65.08566
726.65        65.31883
727.07        65.49575
727.49        65.66608
727.91        65.78271
728.33        65.87186
728.75        65.93122
729.17        65.96273
729.59        65.94975
730.01         65.9042
730.43        65.86082
730.85        65.82584
731.27        65.79211
731.69        65.74873
732.10        65.67471
732.52        65.57013
732.94         65.4523
733.36        65.34749
733.78        65.20541
734.20        65.03139
734.62         64.9403
735.04        65.26527
735.46        64.73506
735.88        65.34225
736.30        65.50533
736.72        65.76429
737.13        66.00017
737.55        66.13515
737.97         66.3204
738.39        66.45848
738.81        66.15378
739.23        65.55614
739.65        65.41299
740.06         65.6853
740.48        65.81458
740.90        65.77753
741.32        65.67126
741.74        66.01389
742.16        66.17709
742.57        66.28996
742.99         66.3726
743.41        66.40645
743.83        66.33768
744.25        66.16537
744.67        65.90439
745.08        65.63931
745.50          65.491
745.92        65.49841
746.34        65.62067
746.75        65.79302
747.17        65.89243
747.59        65.89635
748.01        65.84683
748.42        65.76607
748.84        65.73096
749.26        65.76395
749.68         65.7076
750.09        65.60067
750.51        65.80003
750.93        66.16471
751.35        66.05669
751.76        65.52452
752.18        65.19666
752.60        65.10524
753.01        64.92786
753.43        64.68086
753.85        64.55009
754.27        64.55168
754.68        64.80551
755.10        64.97744
755.52        65.23663
755.93        65.44657
756.35        65.60973
756.77        65.77306
757.18        65.85529
757.60        65.85346
758.02        66.09406
758.43         66.4999
758.85        65.62229
759.26        65.67405
759.68        64.93256
760.10        65.06598
760.51        65.30521
760.93        65.79999
761.34        65.89411
761.76        65.93528
762.18        65.98763
762.59         66.1815
763.01        66.17365
763.42        66.03963
763.84        65.93478
764.26        65.91425
764.67         65.8791
765.09        65.85908
765.50        65.84928
765.92        65.85906
766.33        65.78783
766.75        65.60953
767.16        65.53671
767.58        65.54493
768.00        65.51568
768.41        65.47523
768.83        65.56022
769.24        65.70339
769.66        65.70009
770.07        65.57413
770.49        65.39651
770.90        65.30798
771.32        65.75348
771.73        66.54726
772.15        66.83574
772.56        66.55185
772.97        66.10934
773.39        65.69982
773.80        65.48582
774.22         65.5226
774.63        65.80759
775.05        66.16638
775.46        66.38495
775.88        66.36558
776.29        66.19798
776.70        65.98574
777.12        65.91594
777.53        66.04324
777.95        66.26379
778.36        66.49776
778.77        66.58018
779.19        66.49219
779.60        66.32048
780.02        66.10785
780.43        65.98961
780.84        66.02139
781.26         65.8931
781.67        65.73198
782.09         66.3089
782.50        67.34532
782.91        67.46225
783.33        66.70918
783.74        66.39184
784.15        66.56878
784.57        66.48157
784.98        66.19066
785.39        66.11578
785.81        66.29847
786.22        66.69844
786.63          67.176
787.04        67.42935
787.46        67.41471
787.87        67.23106
788.28        67.00452
788.70        66.88819
789.11        66.90269
789.52         67.0196
789.93        67.16526
790.35        67.21265
790.76         67.1378
791.17        66.97751
791.58        66.79384
792.00        66.62237
792.41        66.49903
792.82         66.5276
793.23        66.65405
793.65        66.49344
794.06        66.18277
794.47        66.42455
794.88        67.08418
795.29        67.39342
795.71        67.27795
796.12        67.17984
796.53        67.17771
796.94        67.21463
797.35        67.31895
797.76        67.52521
798.18        67.74321
798.59        67.85478
799.00          67.812
799.41        67.66177
799.82        67.48126
800.23        67.39471
800.64        67.43218
801.06        67.52363
801.47        67.64848
801.88        67.68635
802.29        67.59801
802.70        67.40958
803.11        67.17126
803.52        66.96503
803.93        66.84711
804.34        66.81821
804.75        66.83787
805.17        66.95162
805.58        67.20618
805.99        67.17596
806.40         66.9843
806.81        67.80359
807.22        69.19054
807.63        68.88695
808.04        67.17938
808.45        66.48916
808.86        67.00077
809.27        67.39561
809.68        67.47202
810.09        67.52309
810.50        67.49225
810.91        67.30038
811.32        67.10332
811.73        67.14822
812.14        67.47666
812.55        68.02267
812.96        68.57894
813.37        68.75066
813.78        68.43975
814.19        67.80783
814.60        67.07872
815.01        66.54544
815.42         66.2816
815.83        66.20052
816.24        66.25919
816.65        66.37289
817.05        66.50171
817.46        66.65813
817.87        66.81879
818.28        66.89155
818.69        66.86566
819.10        66.73679
819.51        66.61132
819.92        66.69595
820.33        67.02744
820.74         67.5332
821.14        68.05188
821.55        68.31948
821.96         68.2754
822.37        68.00153
822.78         67.6263
823.19        67.37119
823.60        67.31328
824.00         67.4117
824.41        67.56459
824.82         67.7002
825.23        67.77325
825.64        67.81973
826.04        67.84607
826.45        67.81449
826.86        67.74323
827.27        67.64352
827.68         67.5374
828.08        67.49677
828.49        67.48911
828.90        67.50704
829.31        67.57813
829.72        67.74657
830.12        68.02438
830.53        68.33905
830.94        68.56984
831.35        68.46809
831.75        68.01347
832.16         67.2819
832.57        66.50668
832.97        66.03399
833.38        65.95823
833.79        66.16028
834.20        66.54037
834.60        66.93031
835.01        67.25958
835.42        67.61558
835.82        67.92796
836.23        67.99706
836.64        67.82917
837.04        67.43391
837.45          67.071
837.86        67.23793
838.26        68.04197
838.67        69.29973
839.08        70.58126
839.48        71.06367
839.89        70.53041
840.29        69.27975
840.70        67.90401
841.11        67.07893
841.51        66.98722
841.92         67.3987
842.33        68.11008
842.73        68.76156
843.14        69.09649
843.54        69.28083
843.95        69.34669
844.35        69.39229
844.76        69.43514
845.17         69.4188
845.57        69.34035
845.98        69.19279
846.38        69.00342
846.79        68.78207
847.19        68.57554
847.60         68.4223
848.00        68.34395
848.41        68.31403
848.81        68.31355
849.22        68.22552
849.62        68.07182
850.03        67.87545
850.43        67.71387
850.84        67.64619
851.24        67.73333
851.65        67.88669
852.05        68.16566
852.46        68.55185
852.86        69.00091
853.27        69.49051
853.67        69.83479
854.07        69.89851
854.48        69.64871
854.88        69.15637
855.29        68.52712
855.69         68.0985
856.10        67.91244
856.50        67.96024
856.90        68.10813
857.31        68.13838
857.71        68.03219
858.12        67.79546
858.52        67.51778
858.92        67.23351
859.33        66.95737
859.73        66.72122
860.13        66.49794
860.54        66.26973
860.94        66.08737
861.34        65.96156
861.75        65.93575
862.15        66.11446
862.55        66.47752
862.96        66.92651
863.36        67.42022
863.76        67.81277
864.17         68.0238
864.57        68.11058
864.97        67.98224
865.38        67.51633
865.78         66.7623
866.18        65.77441
866.58        64.81534
866.99        64.34822
867.39        64.51917
867.79        65.18777
868.19        66.08435
868.60         66.7624
869.00        67.11375
869.40        67.21688
869.80        67.15537
870.21        67.09857
870.61        67.17409
871.01        67.27538
871.41        67.30809
871.81        67.15627
872.22        66.80158
872.62        66.28132
873.02        65.79023
873.42        65.63773
873.82        65.87955
874.22        66.41451
874.63        66.92552
875.03        66.92814
875.43        66.31998
875.83        65.27956
876.23        64.15498
876.63        63.47796
877.03        63.39193
877.44        63.72126
877.84        64.26344
878.24         64.6833
878.64        64.80809
879.04        64.59418
879.44        64.25793
879.84        64.23821
880.24        64.58025
880.64        65.09004
881.04        65.48978
881.44        65.37238
881.84        64.67381
882.24        63.58221
882.65        62.45775
883.05        61.83827
883.45        61.87008
883.85        62.39828
884.25        63.20382
884.65        63.89827
885.05        64.32314
885.45        64.57083
885.85        64.69261
886.25        64.77608
886.65        64.85824
887.05        64.88615
887.45        64.85463
887.85        64.78538
888.25        64.68277
888.65        64.55453
889.04        64.41476
889.44        64.29877
889.84        64.19456
890.24        64.09827
890.64        63.96741
891.04        63.73186
891.44        63.40243
891.84        63.03971
892.24         62.7141
892.64        62.51794
893.04        62.48843
893.44         62.6097
893.83        62.90871
894.23        63.36987
894.63        63.97663
895.03        64.68291
895.43        65.40095
895.83        66.00517
896.23        66.42097
896.63         66.6222
897.02        66.59061
897.42        66.34998
897.82        65.93478
898.22        65.40839
898.62        64.79714
899.01        64.11333
899.41        63.42522
899.81        62.75933
900.21        62.28144
900.61        62.24168
901.00        62.66145
901.40        63.43203
901.80        64.29361
902.20        64.82771
902.59        64.92205
902.99        64.66982
903.39        64.22534
903.79        63.86064
904.18        63.66465
904.58         63.5645
904.98        63.55079
905.38        63.61469
905.77        63.74972
906.17        64.01363
906.57        64.31133
906.96        64.46814
907.36        64.43597
907.76        64.24442
908.15        64.11608
908.55        64.39764
908.95        65.13761
909.34        66.21443
909.74        67.22938
910.14        67.62266
910.53        67.23302
910.93        66.26865
911.33        65.05084
911.72        64.06194
912.12        63.52975
912.52        63.35225
912.91         63.3889
913.31        63.43542
913.70        63.42533
914.10        63.37403
914.49        63.47626
914.89        63.95969
915.29        64.85229
915.68        66.05777
916.08        67.09216
916.47        67.25086
916.87        66.43266
917.26        64.86568
917.66        63.24776
918.05        62.46553
918.45        62.70638
918.84        63.76727
919.24        65.07648
919.64        65.74271
920.03        65.51392
920.42        64.63578
920.82        63.65631
921.21        63.36417
921.61        63.93058
922.00        65.13055
922.40        66.46082
922.79        67.18335
923.19        67.04277
923.58        66.32777
923.98        65.45086
924.37        64.94323
924.77        64.95695
925.16        65.26228
925.55        65.69251
925.95        65.95805
926.34        65.95794
926.74        65.78695
927.13        65.43559
927.52         64.8013
927.92         63.9805
928.31        63.03073
928.70        62.17886
929.10        61.74512
929.49         61.7834
929.89        62.14671
930.28        62.82069
930.67        63.64871
931.07        64.48173
931.46        65.39391
931.85        66.05592
932.24        66.00277
932.64         65.2354
933.03        63.88214
933.42        62.51937
933.82        61.99549
934.21        62.48453
934.60        63.79723
934.99        65.42088
935.39         66.4017
935.78        66.47633
936.17        65.82446
936.56          64.881
936.96        64.33413
937.35        64.36636
937.74          64.759
938.13        65.15677
938.53        65.03804
938.92        64.31993
939.31        63.26028
939.70        62.22007
940.09         61.6847
940.49        61.73032
940.88        62.20049
941.27        62.91642
941.66        63.54419
942.05        63.93759
942.44        64.21875
942.84        64.35065
943.23        64.26205
943.62        63.99231
944.01        63.51907
944.40        63.10357
944.79         63.2072
945.18        63.89253
945.57         65.0114
945.97        66.11698
946.36        66.52724
946.75        66.02592
947.14         64.8944
947.53        63.51517
947.92        62.43059
948.31        61.81152
948.70        61.51312
949.09         61.4939
949.48        61.68073
949.87        62.01199
950.26        62.52123
950.65        63.10236
951.04         63.5579
951.43        63.81156
951.82        63.85361
952.21        63.74225
952.60         63.6091
952.99        63.51934
953.38        63.48502
953.77        63.46061
954.16        63.37697
954.55        63.21225
954.94        62.93624
955.33        62.73464
955.72        62.91291
956.11        63.50985
956.50        64.47355
956.89        65.28767
957.28        65.09125
957.66         63.7608
958.05        61.65451
958.44         59.5985
958.83        58.77864
959.22        59.40213
959.61        61.11865
960.00        63.21579
960.39         64.3454
960.78        64.06772
961.16        62.81204
961.55        61.22531
961.94        60.15933
962.33        59.86243
962.72        60.09164
963.11        60.62472
963.49        61.09474
963.88        61.25792
964.27        61.23358
964.66        61.22809
965.04        61.54962
965.43        62.20117
965.82        63.13352
966.21        63.89246
966.60        63.66925
966.98        62.32888
967.37        60.28541
967.76        58.37422
968.15        57.64196
968.53        58.25588
968.92        59.94519
969.31        62.07777
969.69        63.34151
970.08        63.19083
970.47        62.04685
970.86        60.64379
971.24        60.02611
971.63        60.44143
972.02        61.58532
972.40        63.01182
972.79        63.61864
973.17         63.1325
973.56        61.96513
973.95        60.69228
974.33        60.02705
974.72        60.12217
975.11        60.70355
975.49        61.51165
975.88        62.00867
976.26        62.02941
976.65        61.71526
977.04        61.18711
977.42        60.57731
977.81        59.94828
978.19        59.26999
978.58        58.76473
978.96        58.75574
979.35        59.26782
979.74        60.21792
980.12        61.40825
980.51        62.22405
980.89        62.57566
981.28        62.58388
981.66        62.39197
982.05        62.20141
982.43        62.11111
982.82        62.00953
983.20        62.13228
983.59        62.82056
983.97        64.17599
984.35         66.0775
984.74        67.87248
985.12        68.68313
985.51        68.22273
985.89        66.78211
986.28        65.07235
986.66         64.0961
987.04         64.1779
987.43        65.02964
987.81         66.2322
988.20        66.85275
988.58        66.59253
988.96        65.66269
989.35        64.52238
989.73        63.79906
990.12        63.62921
990.50        63.89039
990.88        64.10981
991.27        63.52685
991.65        62.04874
992.03        59.99701
992.42        58.21593
992.80        57.82019
993.18        59.00842
993.56        61.50244
993.95         64.3355
994.33        65.78974
994.71        65.19704
995.10        63.18824
995.48        60.82754
995.86        59.77327
996.24         60.4238
996.63        62.16997
997.01        64.55489
997.39        66.27039
997.77        66.69131
998.15        66.31551
998.54        65.27222
998.92        63.60175
999.30        61.60423
999.68        59.32202
1000.06        57.45044
1000.45        56.96298
1000.83         58.1227
1001.21        60.82525
1001.59        64.41216
1001.97        67.08665
1002.35        68.04528
1002.73        67.69478
1003.12        66.91173
1003.50        66.85774
1003.88        67.92153
1004.26        69.57972
1004.64        71.50689
1005.02        73.00324
1005.40        73.65314
1005.78        73.85538
1006.16        73.24953
1006.54         71.2171
1006.92         67.9977
1007.30        63.97125
1007.69         60.4805
1008.07        59.24927
1008.45        60.74168
1008.83        64.58549
1009.21        69.67759
1009.59        73.12194
1009.97        73.44785
1010.35        71.43166
1010.73        68.03565
1011.11        64.74602
1011.49        62.22595
1011.86        60.13366
1012.24          58.788
1012.62          58.632
1013.00         59.6461
1013.38         61.8419
1013.76        64.74598
1014.14        66.88987
1014.52        67.45983
1014.90        66.66734
1015.28        65.00069
1015.66        63.27794
1016.04        61.80513
1016.41        60.42712
1016.79        59.25425
1017.17        58.60559
1017.55        58.54379
1017.93         58.9725
1018.31        59.78979
1018.69        60.80814
1019.06        61.96965
1019.44         63.3989
1019.82        64.59653
1020.20         64.5084
1020.58        62.90934
1020.95        60.13955
1021.33        57.60588
1021.71        56.82627
1022.09        58.01646
1022.46        61.10223
1022.84        64.95302
1023.22         66.6396
1023.60         64.9966
1023.97        60.80402
1024.35        56.65347
1024.73        55.46619
