SpectraSmart Spectrum 2.9.0.0
--------- Device Information -----------
Spectrum Name :  反射率_0
Saving Time :  2024/04/26 22:44:10
Spectro-Module Model Name : SE2030-DUVN
Spectro-Module Serial Number : OS361AC55029948
Wavelength Start : 200
Wavelength End : 1025
Wavelength Unit : Wavelength(nm)
Spectrum Unit : Reflectance(%)
-----------Spectrum Setting ------------
Integration Time : 20ms
Average : 10
Boxcar : 0
Background removal :  enabled
linearity correction :  enabled
SC :  disabled
Intensity correction :  disabled
DWT denoise :  enabled
savitzky-golay :  disabled
FFT :  disabled
Running average :  disabled
Kalman :  disabled
High pass :  disabled
---------------BEGIN--------------------
Wavelength(nm)             Reflectance(%)
200.29               0
200.75        50.33759
201.21        54.48861
201.67         58.6265
202.13         60.8837
202.58         61.1151
203.04        60.24576
203.50        58.84109
203.96        58.22718
204.42         59.4303
204.88        62.16931
205.34        65.31274
205.80        66.99101
206.26        66.60199
206.72        64.61077
207.18        62.74708
207.64        62.58968
208.10        64.37617
208.55         68.8929
209.01        74.08974
209.47        73.16651
209.93         65.3139
210.39        56.27456
210.85        50.66024
211.31        50.39647
211.77         55.8921
212.23        71.38047
212.69        112.2358
213.14        182.3325
213.60        180.9341
214.06        133.3636
214.52        100.6721
214.98        85.68107
215.44         78.9509
215.90         74.4107
216.36        72.02789
216.81        72.92839
217.27        77.78369
217.73        89.04459
218.19        104.5238
218.65        108.8676
219.11        97.52969
219.57        80.97238
220.02        69.62368
220.48        68.48374
220.94        76.15638
221.40        93.05257
221.86        117.5006
222.32        130.5329
222.77        118.2883
223.23        94.60386
223.69         73.5573
224.15        62.42015
224.61        58.88196
225.06        58.66711
225.52        59.76295
225.98        60.01517
226.44        59.09653
226.90        57.90174
227.36        56.43121
227.81           54.66
228.27        52.93313
228.73        51.00023
229.19        49.58899
229.65        49.60646
230.10        50.89923
230.56        53.20817
231.02        55.20753
231.48        54.80297
231.93        51.86231
232.39        47.65098
232.85        43.73701
233.31        42.14893
233.77        43.04962
234.22        45.70167
234.68        49.03898
235.14        51.49558
235.60        52.56077
236.05         52.7229
236.51        52.31207
236.97        52.05894
237.43        52.33529
237.88        52.90299
238.34        53.74701
238.80         55.2162
239.26        57.55269
239.71        61.42843
240.17        66.69125
240.63        72.58558
241.08        78.44903
241.54         83.4379
242.00        88.54065
242.46        96.88553
242.91        111.5943
243.37        134.6127
243.83        167.0728
244.28        196.4455
244.74        201.6085
245.20        180.9794
245.66        152.1466
246.11        131.6243
246.57        120.7707
247.03        114.9847
247.48        110.9016
247.94        104.5986
248.40        97.24946
248.85        91.27509
249.31         87.4127
249.77        84.68517
250.22        82.23599
250.68        79.19707
251.14         75.7021
251.59        73.49667
252.05        73.94414
252.51        76.75369
252.96        79.11465
253.42        78.80299
253.88        76.17085
254.33        72.13252
254.79        69.64273
255.25        70.86699
255.70        75.26167
256.16        81.60822
256.62        86.76745
257.07        86.21638
257.53        81.44668
257.99        75.41151
258.44        70.12299
258.90        67.51521
259.35        66.55151
259.81        66.59204
260.27        66.67928
260.72        65.83208
261.18        64.27681
261.63        62.21213
262.09        60.35814
262.55        58.91418
263.00        57.77377
263.46        56.93788
263.91         56.0082
264.37         54.8355
264.83        53.39689
265.28        51.78262
265.74        50.39143
266.19        49.39817
266.65        48.86464
267.11        48.58739
267.56        48.34865
268.02        47.82091
268.47        46.92708
268.93        45.81611
269.38        44.58443
269.84          43.436
270.30        42.42069
270.75        41.46832
271.21        40.63167
271.66        39.92789
272.12        39.34799
272.57        38.87189
273.03        38.38923
273.48        37.70853
273.94        36.85171
274.39        35.84328
274.85        34.88738
275.31        34.13676
275.76        33.58865
276.22        33.21412
276.67        32.86617
277.13        32.42113
277.58        31.81093
278.04        31.12298
278.49        30.39168
278.95        29.77966
279.40        29.27083
279.86        28.87606
280.31        28.50025
280.77        28.10785
281.22         27.6556
281.68        27.22701
282.13        26.82973
282.59        26.55065
283.04        26.36857
283.50        26.26447
283.95        26.20923
284.41        26.17303
284.86        26.13511
285.32        26.12575
285.77        26.10455
286.22        26.07338
286.68        26.03657
287.13        25.95911
287.59        25.89559
288.04        25.88728
288.50        25.95764
288.95        26.06694
289.41        26.16455
289.86        26.11115
290.32        25.93312
290.77        25.67459
291.22        25.46589
291.68        25.48303
292.13        25.76036
292.59        26.27261
293.04        26.94274
293.50        27.66094
293.95        28.38801
294.40        29.16864
294.86        30.05482
295.31        31.11467
295.77         32.3687
296.22        33.76918
296.68         35.2799
297.13        36.83639
297.58         38.4274
298.04        40.07306
298.49        41.78232
298.95        43.58653
299.40        45.47085
299.85        47.41362
300.31        49.39305
300.76        51.36244
301.21        53.31489
301.67        55.27504
302.12         57.2174
302.58        59.18985
303.03        61.15791
303.48        63.14543
303.94        65.17133
304.39        67.19492
304.84        69.24604
305.30        71.34717
305.75        73.47102
306.20         75.6668
306.66        77.93465
307.11        80.19675
307.57        82.41926
308.02        84.44235
308.47         86.2634
308.93        87.93298
309.38        89.48298
309.83        91.09068
310.29         92.8007
310.74        94.55481
311.19        96.26743
311.65        97.76395
312.10        98.97053
312.55         99.9325
313.00        100.7573
313.46        101.6232
313.91        102.5594
314.36        103.5507
314.82          104.51
315.27        105.3152
315.72        105.9141
316.18        106.3737
316.63        106.7571
317.08         107.214
317.53        107.7864
317.99        108.4244
318.44        109.0633
318.89        109.5649
319.35        109.8902
319.80         110.084
320.25         110.233
320.70        110.4781
321.16        110.8531
321.61        111.3626
322.06        111.8958
322.51        112.2819
322.97        112.4636
323.42        112.4851
323.87        112.5218
324.32        112.8828
324.78        113.5857
325.23        114.6253
325.68         115.623
326.13        115.9605
326.59        115.5083
327.04        114.4908
327.49        113.4084
327.94        113.0817
328.39        113.7038
328.85         115.005
329.30        116.6339
329.75         117.671
330.20        117.8173
330.66        117.3038
331.11          116.58
331.56        116.2894
332.01        116.6373
332.46        117.4034
332.92        118.2805
333.37        118.9326
333.82         119.167
334.27        119.1658
334.72        119.0888
335.17        119.1635
335.63        119.4697
336.08        119.9839
336.53        120.6733
336.98        121.5477
337.43        122.5675
337.88        123.6928
338.34        124.8174
338.79        125.8908
339.24        126.7946
339.69        127.5292
340.14        127.9944
340.59        128.0639
341.05        127.7952
341.50        127.2603
341.95        126.7409
342.40        126.6541
342.85        127.1029
343.30        127.9828
343.75        129.0804
344.20        130.0207
344.66        130.6692
345.11        131.0969
345.56        131.3808
346.01        131.6611
346.46        131.9893
346.91        132.3215
347.36        132.5927
347.81        132.7299
348.26        132.7198
348.72        132.5829
349.17        132.4512
349.62        132.5624
350.07        132.9454
350.52        133.5522
350.97        134.0701
351.42        133.9967
351.87        133.2667
352.32        132.0603
352.77        130.8545
353.22        130.3463
353.67        130.6632
354.13        131.5848
354.58        132.6598
355.03         133.089
355.48        132.6535
355.93        131.5847
356.38        130.3387
356.83        129.6033
357.28        129.5157
357.73        129.8317
358.18        130.1404
358.63        129.7956
359.08        128.6594
359.53         126.995
359.98        125.1842
360.43        123.7631
360.88        122.8599
361.33        122.2969
361.78        121.8554
362.23        121.1989
362.68        120.2426
363.13        119.1267
363.58        117.9727
364.03        116.9445
364.48        116.0831
364.93        115.3025
365.38        114.5703
365.83        113.8612
366.28        113.1525
366.73        112.4596
367.18        111.7334
367.63        110.8831
368.08        109.9024
368.53        108.8308
368.98        107.7427
369.43        106.7561
369.88        105.9097
370.33        105.1744
370.78        104.5331
371.23        103.9588
371.68        103.4266
372.13         102.928
372.58        102.4319
373.03        101.8869
373.48        101.2664
373.93        100.5682
374.38        99.77969
374.83        98.89973
375.28        97.95171
375.72        96.93983
376.17        95.97874
376.62        95.11504
377.07        94.38052
377.52        93.79011
377.97        93.31428
378.42        92.91202
378.87        92.55916
379.32        92.21382
379.77        91.94405
380.22         91.8536
380.67         91.9202
381.11        92.13493
381.56        92.17695
382.01        91.62861
382.46        90.47407
382.91        88.93119
383.36        87.45004
383.81        86.64162
384.26        86.58975
384.71        87.07896
385.15        87.78992
385.60        88.15702
386.05         88.0018
386.50        87.49232
386.95        86.75074
387.40        85.97922
387.85        85.27705
388.29        84.53361
388.74        83.91241
389.19        83.42516
389.64         83.0663
390.09        82.84191
390.54        82.66682
390.98         82.3672
391.43        81.94682
391.88        81.43509
392.33        80.94817
392.78        80.57786
393.23        80.32623
393.67        80.32906
394.12        80.49378
394.57         80.0284
395.02        79.13332
395.47        78.99951
395.91        79.53981
396.36        79.53865
396.81        78.97364
397.26        78.55678
397.71        78.32317
398.15        78.04438
398.60        77.82513
399.05        77.49762
399.50        77.15334
399.95        77.27718
400.39        77.71676
400.84        77.56456
401.29        76.83646
401.74        76.32037
402.18        76.07629
402.63        75.62053
403.08        75.07124
403.53        74.80345
403.97        74.83572
404.42        75.06422
404.87        75.33858
405.32        75.36897
405.76        75.08005
406.21         74.7163
406.66        74.36613
407.11        73.91481
407.55        73.57469
408.00        73.83138
408.45        74.52319
408.90        74.93179
409.34        74.80437
409.79        74.10891
410.24        73.14547
410.68        72.60123
411.13        72.58027
411.58        72.71921
412.03        72.85113
412.47        72.85326
412.92        72.64046
413.37        72.29383
413.81        71.94587
414.26        71.85661
414.71        72.03961
415.15        72.43165
415.60        72.87453
416.05        73.17806
416.49        73.27274
416.94        73.20714
417.39        73.04989
417.83        72.89396
418.28        72.78181
418.73        72.67925
419.17        72.60252
419.62        72.58517
420.07        72.61794
420.51        72.67631
420.96        72.74412
421.41        72.71727
421.85         72.5629
422.30        72.42407
422.74        72.25723
423.19        72.04524
423.64        71.80195
424.08        71.66914
424.53        71.69572
424.98        71.85519
425.42        72.13963
425.87        72.67889
426.31        73.25677
426.76        73.15054
427.21        72.47372
427.65        72.08805
428.10        72.06423
428.54        72.03671
428.99        72.09502
429.44        72.02348
429.88        71.97119
430.33        73.00211
430.77        74.57715
431.22         74.6298
431.66        73.92123
432.11        73.01891
432.56        72.47536
433.00        72.28704
433.45        72.67165
433.89        73.43626
434.34        73.69619
434.78        75.39474
435.23        73.59103
435.67        71.59301
436.12        72.39142
436.57        72.59435
437.01        73.18856
437.46        73.34884
437.90        73.07222
438.35        72.83829
438.79        72.75979
439.24        72.78526
439.68        72.88548
440.13        73.32906
440.57        73.99828
441.02        73.90749
441.46        73.26169
441.91        73.90002
442.35        75.32319
442.80        75.21854
443.24        73.99936
443.69        73.88163
444.13        74.85751
444.58        75.21135
445.02        74.90309
445.47        74.86872
445.91        75.12144
446.36        75.30753
446.80        75.40524
447.24        75.49648
447.69        75.60523
448.13        75.75185
448.58        75.94871
449.02        76.14748
449.47        76.30279
449.91        76.31565
450.36        76.20021
450.80        75.97326
451.25        75.74282
451.69        75.61208
452.13        75.62746
452.58        75.74713
453.02        75.91267
453.47        76.03818
453.91        76.07643
454.36        76.05141
454.80         75.9575
455.24        75.73167
455.69        75.39082
456.13        75.08349
456.58        74.86763
457.02        74.31039
457.46        73.66048
457.91        73.83818
458.35        74.55083
458.79        74.59777
459.24        73.97841
459.68        73.21943
460.13        72.57568
460.57        72.36413
461.01        72.74152
461.46         72.7247
461.90        72.94723
462.34        74.26241
462.79        73.42156
463.23        73.73407
463.68        74.00756
464.12        73.85169
464.56        73.20734
465.01        72.22862
465.45        71.26794
465.89        71.11091
466.34        71.59552
466.78        72.10339
467.22         72.4857
467.67        71.71394
468.11        71.43798
468.55        71.42176
468.99        72.00124
469.44        72.05531
469.88        71.56555
470.32        71.21209
470.77        71.06283
471.21        70.91743
471.65        70.78157
472.10        70.73087
472.54        70.73021
472.98        70.68965
473.42        70.58237
473.87         70.5511
474.31        70.52827
474.75        70.21795
475.20        69.75446
475.64         69.7357
476.08        70.13325
476.52        70.11976
476.97        69.57614
477.41         69.6773
477.85        69.91098
478.29        69.03538
478.74        69.06155
479.18        70.05278
479.62        69.74519
480.06        69.97759
480.50        69.87378
480.95        69.78944
481.39        69.76088
481.83        69.55694
482.27        69.37854
482.72        70.09942
483.16        69.79433
483.60        69.91994
484.04        69.85498
484.48        70.04221
484.93        70.20575
485.37        69.52755
485.81        68.97211
486.25        68.75481
486.69        69.38319
487.14         71.9024
487.58        70.80058
488.02        69.67976
488.46        68.85781
488.90        68.71639
489.34        70.31891
489.79        70.90266
490.23        70.21986
490.67        69.48189
491.11        68.89513
491.55        68.74814
491.99        68.97475
492.43        68.88469
492.88        68.47626
493.32        68.35259
493.76        68.53453
494.20        68.67992
494.64        68.75343
495.08        68.89384
495.52        69.04543
495.96        69.02066
496.41        68.84978
496.85        68.77779
497.29        68.70914
497.73        68.75142
498.17        68.07735
498.61        67.95424
499.05        68.12742
499.49        68.33759
499.93        68.28777
500.37        68.45509
500.82        68.70818
501.26        68.67063
501.70        68.40705
502.14        68.50407
502.58        68.75915
503.02        68.88667
503.46        68.81569
503.90        68.81692
504.34        68.85705
504.78        68.76004
505.22        68.52527
505.66        68.20055
506.10        67.88963
506.54        67.75375
506.98        67.80043
507.42         67.9633
507.86        68.17675
508.30        68.10487
508.74        68.18418
509.18        68.03206
509.62        67.84599
510.06           67.73
510.50        67.71603
510.94        67.75996
511.38        67.82901
511.82        67.88555
512.26        67.91405
512.70        67.93448
513.14        67.95042
513.58        67.96317
514.02        67.97463
514.46        67.97476
514.90        67.97545
515.34        68.00064
515.78        68.04919
516.22        68.11202
516.66        68.15602
517.10        68.12731
517.54        68.01903
517.98        67.85546
518.42        67.67708
518.86        67.54529
519.30         67.4812
519.74        67.47571
520.18        67.51414
520.62        67.55679
521.06        67.59894
521.50        67.67831
521.93        67.78542
522.37        67.85483
522.81        67.88476
523.25        67.89116
523.69        67.88479
524.13        67.88191
524.57        67.88288
525.01        67.87376
525.45        67.84649
525.89         67.7873
526.32        67.69019
526.76        67.59115
527.20        67.47344
527.64        67.32208
528.08        67.14697
528.52        66.93526
528.96        66.76156
529.40        66.78294
529.83        66.98535
530.27           67.24
530.71        67.44398
531.15        67.52432
531.59        67.44933
532.03        67.21314
532.46        66.90658
532.90        66.74786
533.34        66.76984
533.78        66.86961
534.22        66.97697
534.66        67.06699
535.09        67.06386
535.53        66.85535
535.97         66.5125
536.41        66.31628
536.85        66.30433
537.28        66.33282
537.72         66.3963
538.16         66.5402
538.60        66.74203
539.04        66.98164
539.47        67.18119
539.91        67.26349
540.35        67.20167
540.79        67.02895
541.22        66.80403
541.66        66.65611
542.10        66.61491
542.54        66.62936
542.97        66.65915
543.41        66.76528
543.85        66.76475
544.29        66.79665
544.72        66.79517
545.16        66.75657
545.60        66.66917
546.04        66.58656
546.47         66.5319
546.91        66.45029
547.35        66.40004
547.79        66.55138
548.22        66.82915
548.66        67.00966
549.10        67.08766
549.53        66.95993
549.97        66.71783
550.41         66.5005
550.84        66.39583
551.28        66.49438
551.72        66.72476
552.15        66.84792
552.59         66.8337
553.03        66.73625
553.46        66.89392
553.90         66.7438
554.34        66.40678
554.77        66.69852
555.21        66.50579
555.65          66.177
556.08        66.58315
556.52        66.68419
556.96        66.77254
557.39        66.90238
557.83        67.02346
558.27        66.76126
558.70        66.21757
559.14        66.00477
559.57         66.1226
560.01        66.14806
560.45        66.08762
560.88         66.2664
561.32        66.63335
561.75        66.82529
562.19        66.82796
562.63        66.73343
563.06        66.58655
563.50        66.51521
563.93        66.47221
564.37         66.4068
564.80        66.35877
565.24        66.28048
565.68        66.01788
566.11        66.72374
566.55        66.00156
566.98         65.7832
567.42        65.55246
567.85        65.74807
568.29        66.29647
568.72        66.69797
569.16        67.00368
569.60        67.12882
570.03         67.2424
570.47        67.47649
570.90        68.00495
571.34        66.80633
571.77        67.46497
572.21        68.01125
572.64        67.48357
573.08        68.11796
573.51        67.10033
573.95        67.05711
574.38        67.49836
574.82        67.53022
575.25        67.19697
575.69        67.46042
576.12        67.88786
576.56        66.76235
576.99        66.63911
577.42        66.92084
577.86         67.5069
578.29        68.00517
578.73        67.85977
579.16        68.17497
579.60        67.54185
580.03        67.52501
580.47        67.32351
580.90        68.12817
581.33        68.10798
581.77         67.9233
582.20        67.43816
582.64        68.33777
583.07        68.07015
583.51        67.83727
583.94        67.29662
584.37        67.31347
584.81         67.2775
585.24        67.32833
585.68        67.15826
586.11         67.4563
586.54        67.71246
586.98        66.85809
587.41        66.46217
587.85        67.11269
588.28        66.89719
588.71        67.23112
589.15        66.71351
589.58        66.80241
590.01        66.68391
590.45        66.38386
590.88        67.46336
591.31        67.38809
591.75        66.75714
592.18        66.28462
592.61        66.27873
593.05        66.45306
593.48        67.09463
593.91        67.40298
594.35        67.67576
594.78         66.5408
595.21         66.1983
595.65        66.26492
596.08        67.33624
596.51        67.50742
596.94        66.55732
597.38        66.25643
597.81        66.57481
598.24        66.87024
598.68        66.77896
599.11        66.42655
599.54        67.66377
599.97        67.01225
600.41        66.95971
600.84        66.33561
601.27        66.72152
601.70        66.93307
602.14        67.23408
602.57          66.823
603.00        66.32302
603.43        66.32098
603.87        66.89728
604.30        67.20187
604.73         67.2429
605.16        66.38082
605.60        66.24816
606.03         65.8888
606.46        65.68246
606.89        66.28185
607.32        66.65682
607.76        65.86501
608.19        66.64243
608.62        66.49912
609.05        66.44335
609.48         66.2635
609.92        66.88627
610.35        66.68399
610.78        66.19495
611.21        66.19325
611.64        66.30449
612.07        66.55032
612.50        66.40398
612.94        66.39996
613.37        66.40797
613.80        66.11953
614.23        65.67014
614.66        65.46223
615.09        65.69606
615.52        65.87834
615.96        65.93914
616.39        66.06121
616.82        66.26503
617.25        65.84154
617.68        65.57787
618.11        65.99975
618.54         66.2872
618.97        66.31989
619.40        65.84179
619.84        65.85727
620.27        65.76743
620.70         65.8815
621.13        65.92888
621.56        65.41015
621.99         64.4538
622.42        64.36095
622.85        65.08213
623.28        64.72346
623.71        64.57892
624.14        65.23524
624.57        65.09902
625.00        65.31277
625.43        65.31717
625.86         65.3474
626.29        65.45837
626.72        64.83511
627.15        65.38122
627.58        64.89244
628.01        65.02309
628.44        64.95374
628.87        64.76948
629.30        64.65105
629.73        64.50944
630.16        64.76026
630.59        64.68673
631.02        64.86707
631.45        65.06605
631.88        65.23743
632.31        65.35048
632.74        65.42133
633.17        65.42645
633.60        65.31509
634.03        65.09642
634.46        64.78799
634.89        64.46503
635.32        64.26543
635.75        64.22544
636.18         64.2394
636.61        64.28403
637.04        64.35765
637.47        64.43649
637.89        64.51389
638.32        64.53973
638.75        64.49657
639.18        64.38491
639.61        64.21121
640.04        64.03468
640.47        63.95377
640.90        63.98963
641.33        64.11735
641.76        64.28294
642.18        64.39924
642.61        64.41735
643.04        64.37069
643.47        64.29295
643.90        64.24023
644.33        64.22813
644.76        64.23798
645.18        64.25166
645.61        64.22208
646.04         64.1526
646.47        64.07374
646.90        64.00921
647.33        63.97979
647.75        63.96059
648.18         63.9962
648.61         64.1256
649.04        64.13299
649.47        63.95382
649.89         64.7004
650.32        64.55411
650.75        64.43172
651.18        63.96438
651.61        63.84067
652.03        64.08009
652.46        64.33646
652.89        64.51747
653.32        64.43982
653.74        64.22285
654.17        64.32313
654.60          64.399
655.03        64.79164
655.46        64.01618
655.88        63.61702
656.31        65.15026
656.74        66.71603
657.16        70.23243
657.59        73.73641
658.02        67.32496
658.45        65.65943
658.87        64.33264
659.30        64.65225
659.73        64.45017
660.15        65.24036
660.58        64.30413
661.01        64.10752
661.44        64.07716
661.86        63.89739
662.29        63.54221
662.72        63.93525
663.14        63.80795
663.57        63.72189
664.00        63.44189
664.42        63.50416
664.85        63.92455
665.27        64.40728
665.70        64.77145
666.13        64.92328
666.55        64.81958
666.98        64.41217
667.41         63.8311
667.83        63.71375
668.26        63.46375
668.69        63.55639
669.11        63.73081
669.54        63.87643
669.96        63.95649
670.39        64.01555
670.82        64.08329
671.24        64.15213
671.67        64.23517
672.09        64.33772
672.52        64.44646
672.94        64.49879
673.37        64.47514
673.80        64.33369
674.22        64.13347
674.65        63.99683
675.07        63.96647
675.50         63.9725
675.92        63.98676
676.35        63.97166
676.77        63.91634
677.20        63.83292
677.62        63.75697
678.05        63.73798
678.47        63.78229
678.90        63.88313
679.32        64.00149
679.75        64.04332
680.17        64.06641
680.60        64.02905
681.02        63.98398
681.45        63.97769
681.87        64.03551
682.30         64.1142
682.72        64.20329
683.15           64.29
683.57        64.35611
684.00        64.30737
684.42        64.20004
684.85         64.2149
685.27        64.35683
685.70        64.54523
686.12        64.70431
686.54        64.76184
686.97        64.69598
687.39        64.54152
687.82        64.34509
688.24         64.2166
688.66        64.18353
689.09        64.17643
689.51        64.20563
689.94         64.3315
690.36        64.51682
690.78        64.59912
691.21        64.59396
691.63        64.64169
692.06        64.74991
692.48        64.84917
692.90        64.88333
693.33        64.80902
693.75        64.61607
694.17        64.29042
694.60        63.97764
695.02        63.89183
695.44          64.039
695.87        64.45094
696.29        64.93025
696.71        64.74438
697.14        64.04871
697.56         63.8932
697.98        64.29406
698.41        64.44308
698.83        64.32271
699.25        64.46465
699.68        64.77054
700.10        64.87079
700.52        64.70721
700.94        64.40524
701.37        64.09219
701.79        63.97744
702.21        64.10222
702.64        64.37521
703.06         64.6966
703.48        64.88981
703.90        64.90136
704.33        64.79441
704.75        64.61237
705.17        64.41551
705.59        64.24368
706.01        64.07713
706.44        63.96912
706.86        64.02344
707.28         64.2337
707.70         64.5769
708.12        64.95603
708.55        65.17807
708.97        65.21497
709.39        65.15788
709.81        65.05028
710.23        64.93628
710.66        64.84722
711.08        64.80445
711.50         64.7748
711.92        64.70969
712.34        64.60711
712.76        64.50099
713.19        64.41262
713.61        64.40663
714.03        64.48125
714.45        64.61635
714.87         64.7957
715.29        65.00098
715.71         65.2113
716.13        65.40942
716.56        65.55512
716.98        65.67424
717.40        65.72742
717.82        65.72117
718.24        65.63572
718.66        65.44083
719.08        65.16192
719.50        64.84158
719.92        64.56854
720.34        64.47119
720.76        64.57119
721.19        64.80157
721.61        65.13107
722.03        65.45336
722.45        65.71154
722.87        65.92004
723.29         66.0183
723.71        65.91744
724.13        65.62514
724.55         65.1801
724.97        64.71918
725.39        64.47324
725.81        64.50156
726.23        64.72408
726.65         65.0334
727.07        65.39276
727.49        65.50633
727.91        65.60075
728.33        65.64732
728.75        65.72482
729.17        65.84763
729.59        65.97845
730.01        66.07061
730.43        66.05757
730.85        65.92886
731.27        65.71465
731.69        65.47997
732.10        65.31667
732.52        65.25053
732.94        65.27853
733.36        65.36894
733.78        65.33639
734.20        65.14595
734.62        65.08245
735.04        65.28624
735.46        64.76194
735.88        65.44634
736.30        65.73481
736.72        66.11189
737.13        66.36275
737.55        66.39057
737.97         66.4084
738.39        66.37992
738.81        65.93698
739.23        65.27657
739.65        65.27204
740.06        65.81999
740.48        66.09253
740.90        66.02302
741.32        66.05704
741.74        66.28133
742.16        66.38311
742.57        66.37421
742.99        66.30071
743.41        66.17941
743.83        66.02204
744.25        65.84445
744.67        65.63625
745.08        65.46093
745.50          65.401
745.92        65.47248
746.34        65.63882
746.75        65.81744
747.17        65.85822
747.59        65.74442
748.01        65.54495
748.42        65.32104
748.84        65.20759
749.26        65.24491
749.68        65.30873
750.09        65.19757
750.51        65.67223
750.93        66.40282
751.35        66.29035
751.76        65.45305
752.18        65.04089
752.60        65.12178
753.01        65.06572
753.43        64.85046
753.85        64.76175
754.27        64.81466
754.68        64.97523
755.10        65.14564
755.52        65.30007
755.93        65.38291
756.35        65.40022
756.77        65.43919
757.18        65.49087
757.60          65.557
758.02        65.92274
758.43        66.47681
758.85         65.7802
759.26        65.94598
759.68        65.34721
760.10        64.76449
760.51        65.14144
760.93        66.41411
761.34        65.68684
761.76        66.12317
762.18        66.03525
762.59        66.39011
763.01        66.46223
763.42         66.2991
763.84        66.15099
764.26        66.03621
764.67        65.85264
765.09        65.68775
765.50        65.59361
765.92        65.61313
766.33        65.74287
766.75        65.86558
767.16        65.87569
767.58          65.735
768.00        65.55131
768.41        65.44189
768.83        65.60955
769.24         65.9351
769.66        66.03747
770.07        65.89356
770.49        65.56299
770.90        65.25749
771.32        65.66882
771.73        66.60246
772.15        66.92982
772.56        66.57289
772.97        66.13239
773.39        65.79923
773.80         65.6287
774.22          65.666
774.63        65.94028
775.05        66.27258
775.46        66.43924
775.88        66.34731
776.29        66.09064
776.70        65.79081
777.12        65.66634
777.53        65.78072
777.95        66.02154
778.36        66.30182
778.77        66.44414
779.19        66.41955
779.60        66.30978
780.02        66.14683
780.43         66.0631
780.84        66.11603
781.26        65.96347
781.67        65.73457
782.09        66.30364
782.50        67.35264
782.91        67.28266
783.33         66.2305
783.74        65.83232
784.15        66.17603
784.57        66.37262
784.98        66.36308
785.39        66.35162
785.81        66.37777
786.22        66.62515
786.63        67.02106
787.04        67.21445
787.46        67.18412
787.87        67.08558
788.28        67.00381
788.70        66.96152
789.11        66.95432
789.52        67.06734
789.93        67.22333
790.35        67.11684
790.76        66.81468
791.17        66.73279
791.58        66.87873
792.00        66.87526
792.41        66.72922
792.82        66.74361
793.23        66.88186
793.65        66.81323
794.06        66.66298
794.47         66.8675
794.88        67.26093
795.29        67.85363
795.71        67.39281
796.12        67.23032
796.53        67.10255
796.94        66.98418
797.35        66.93614
797.76        67.11796
798.18        67.43642
798.59        67.61084
799.00        67.57518
799.41        67.45541
799.82        67.32342
800.23        67.25967
800.64        67.29157
801.06         67.3589
801.47        67.44946
801.88        67.46053
802.29        67.36195
802.70        67.17822
803.11        66.96235
803.52        66.79848
803.93        66.73899
804.34        66.78175
804.75        66.87762
805.17        67.04625
805.58        67.32218
805.99         67.3167
806.40        67.14977
806.81        67.89095
807.22        69.14617
807.63        68.89082
808.04        67.35204
808.45        66.65352
808.86        66.95844
809.27        67.10046
809.68        66.97007
810.09        66.95295
810.50        67.02781
810.91        67.08827
811.32        67.18051
811.73        67.37537
812.14        67.66898
812.55        68.03944
812.96         68.3698
813.37        68.43967
813.78        68.20515
814.19        67.76291
814.60        67.25825
815.01        66.88196
815.42         66.6796
815.83        66.59567
816.24        66.61047
816.65        66.67813
817.05        66.77747
817.46        66.90983
817.87        67.03738
818.28        67.04794
818.69        66.92972
819.10         66.6908
819.51        66.47424
819.92        66.54537
820.33        66.95293
820.74        67.60291
821.14        68.28077
821.55        68.63972
821.96         68.5967
822.37        68.25366
822.78        67.77771
823.19        67.45911
823.60        67.39809
824.00        67.53602
824.41         67.7468
824.82        67.91602
825.23        67.98664
825.64        68.01318
826.04        68.02232
826.45        68.00619
826.86        67.98926
827.27        67.96535
827.68        67.94128
828.08         67.9677
828.49         67.9985
828.90         68.0291
829.31        68.08174
829.72        68.19063
830.12        68.37454
830.53        68.57643
830.94        68.69131
831.35          68.498
831.75        67.99057
832.16        67.23428
832.57        66.48858
832.97        66.13743
833.38        66.26364
833.79        66.72517
834.20        67.33429
834.60        67.78712
835.01        67.98886
835.42        68.06733
835.82        68.04568
836.23        67.89329
836.64        67.67223
837.04          67.348
837.45        67.12157
837.86        67.38816
838.26        68.22107
838.67        69.47361
839.08        70.72537
839.48          71.169
839.89        70.59814
840.29        69.29331
840.70        67.87309
841.11        67.05556
841.51        67.03066
841.92        67.57256
842.33        68.42377
842.73        69.12199
843.14        69.38339
843.54        69.38978
843.95        69.27998
844.35        69.32593
844.76        69.57233
845.17        69.91042
845.57        70.17747
845.98        70.10148
846.38        69.66078
846.79        68.96407
847.19        68.24029
847.60        67.82099
848.00        67.80322
848.41        68.05951
848.81        68.46061
849.22        68.70116
849.62        68.72903
850.03        68.63142
850.43        68.47779
850.84         68.3117
851.24        68.21395
851.65         68.0855
852.05         68.0954
852.46        68.43137
852.86          69.084
853.27        69.95673
853.67        70.70739
854.07        70.98362
854.48        70.70331
854.88         69.9914
855.29        69.03544
855.69        68.32637
856.10        67.97566
856.50        67.95874
856.90        68.08432
857.31        68.03398
857.71        67.77237
858.12        67.34074
858.52        66.95826
858.92        66.86319
859.33        67.09093
859.73        67.58325
860.13        68.08037
860.54        68.19019
860.94        67.86038
861.34        67.19725
861.75        66.45477
862.15        66.09263
862.55        66.21115
862.96        66.64205
863.36        67.22372
863.76        67.59126
864.17        67.61544
864.57        67.45047
864.97        67.13544
865.38        66.73714
865.78         66.3314
866.18        65.86964
866.58        65.48703
866.99         65.4306
867.39        65.76204
867.79        66.41398
868.19        67.14163
868.60        67.53504
869.00        67.52887
869.40        67.18777
869.80        66.73412
870.21        66.60651
870.61        66.97718
871.01        67.63387
871.41        68.26083
871.81        68.42096
872.22        68.03119
872.62        67.23828
873.02          66.316
873.42        65.72726
873.82        65.61703
874.22        65.83944
874.63        66.17731
875.03        66.30247
875.43        66.10915
875.83        65.72748
876.23        65.28648
876.63        64.96953
877.03        64.84373
877.44        64.82008
877.84        64.88591
878.24        65.04946
878.64        65.23887
879.04        65.30074
879.44        65.30746
879.84        65.48164
880.24        65.81149
880.64        66.17984
881.04        66.38358
881.44        66.13039
881.84        65.39207
882.24         64.3111
882.65        63.19596
883.05        62.51019
883.45        62.38517
883.85        62.70425
884.25        63.29345
884.65        63.83491
885.05        64.19183
885.45         64.4261
885.85        64.57153
886.25        64.68977
886.65        64.80267
887.05        64.86922
887.45        64.85209
887.85        64.71979
888.25        64.47559
888.65        64.14565
889.04        63.82153
889.44        63.65646
889.84        63.66848
890.24        63.83284
890.64        64.02062
891.04        64.01684
891.44        63.78401
891.84        63.39681
892.24        63.02748
892.64        62.92867
893.04        63.15877
893.44        63.65646
893.83        64.27393
894.23        64.71215
894.63        64.90543
895.03        64.90104
895.43        64.87486
895.83        65.12888
896.23        65.69489
896.63        66.42885
897.02        67.04536
897.42        67.12651
897.82        66.60089
898.22        65.68099
898.62        64.61545
899.01        63.75354
899.41        63.23673
899.81        62.95553
900.21        62.93116
900.61        63.19183
901.00        63.68287
901.40        64.37607
901.80        65.05981
902.20        65.38109
902.59        65.27435
902.99        64.82508
903.39         64.2213
903.79        63.79834
904.18         63.6516
904.58        63.67589
904.98        63.84504
905.38        64.12148
905.77        64.46398
906.17        64.92221
906.57        65.31045
906.96        65.30879
907.36        64.86497
907.76        64.08632
908.15        63.34427
908.55        63.21762
908.95        63.83357
909.34        65.02162
909.74        66.35064
910.14         67.1806
910.53        67.28472
910.93        66.86372
911.33        66.14916
911.72        65.49525
912.12        65.09749
912.52        64.86365
912.91        64.72824
913.31        64.61985
913.70         64.5119
914.10        64.40123
914.49        64.43441
914.89         64.7513
915.29        65.36477
915.68        66.21449
916.08        66.91366
916.47        66.90498
916.87        66.12286
917.26        64.76143
917.66        63.38277
918.05        62.67464
918.45        62.79502
918.84        63.59473
919.24        64.66199
919.64        65.38789
920.03        65.57016
920.42        65.32881
920.82        65.00432
921.21         65.0817
921.61        65.64462
922.00        66.55027
922.40        67.38727
922.79        67.60431
923.19        67.04447
923.58        65.96843
923.98        64.79642
924.37        64.05308
924.77         63.8865
925.16        64.10387
925.55        64.53262
925.95        64.84946
926.34        64.94761
926.74        64.91792
927.13        64.76936
927.52        64.44225
927.92        64.01344
928.31        63.48043
928.70        63.01511
929.10        62.87193
929.49        63.07699
929.89        63.49938
930.28        64.09988
930.67        64.68121
931.07        65.12063
931.46        65.54388
931.85        65.73311
932.24        65.39755
932.64        64.58718
933.03         63.3783
933.42        62.29747
933.82        62.11021
934.21        62.94518
934.60        64.63007
934.99         66.5692
935.39         67.6618
935.78        67.61734
936.17        66.64764
936.56        65.33045
936.96        64.59928
937.35        64.69272
937.74        65.31358
938.13         66.0016
938.53        66.05548
938.92        65.33221
939.31          64.157
939.70         62.9105
940.09        62.09432
940.49        61.81524
940.88        61.92424
941.27        62.31563
941.66        62.79473
942.05        63.25813
942.44         63.7874
942.84        64.29078
943.23        64.60492
943.62        64.70922
944.01        64.56821
944.40        64.38639
944.79        64.54672
945.18        65.09829
945.57        65.92232
945.97        66.61913
946.36         66.6019
946.75        65.73496
947.14        64.33022
947.53        62.82948
947.92        61.84321
948.31        61.53474
948.70        61.71229
949.09         62.2772
949.48        63.04738
949.87        63.88504
950.26        64.81764
950.65        65.63795
951.04        66.01053
951.43        65.85372
951.82        65.20578
952.21         64.3216
952.60        63.65551
952.99         63.3663
953.38        63.40509
953.77        63.58258
954.16        63.57666
954.55        63.29956
954.94        62.80109
955.33        62.36419
955.72        62.46602
956.11        63.18971
956.50        64.39378
956.89        65.49225
957.28        65.51746
957.66        64.29996
958.05        62.24945
958.44        60.16463
958.83        59.18367
959.22        59.53033
959.61        60.85994
960.00        62.60715
960.39        63.70235
960.78        63.75092
961.16        63.06864
961.55        62.07846
961.94        61.31112
962.33        60.95156
962.72        60.86538
963.11        60.93193
963.49        60.99793
963.88        60.94184
964.27        60.82928
964.66        60.90543
965.04        61.54578
965.43        62.72946
965.82        64.37463
966.21        65.86649
966.60        66.04664
966.98        64.64973
967.37        62.21077
967.76        59.68623
968.15        58.26198
968.53        58.17016
968.92        59.11948
969.31        60.62246
969.69        61.67355
970.08         61.8047
970.47        61.30976
970.86        60.71354
971.24         60.7761
971.63        61.66101
972.02        63.13342
972.40        64.65903
972.79        64.99236
973.17        63.90213
973.56        61.89585
973.95        59.84718
974.33        58.85711
974.72        59.13594
975.11        60.32446
975.49         61.9769
975.88        63.14177
976.26        63.47281
976.65        63.20354
977.04        62.53613
977.42        61.75949
977.81        60.98809
978.19        60.10608
978.58        59.36715
978.96        59.16006
979.35        59.53046
979.74        60.44965
980.12        61.61689
980.51        62.21357
980.89        62.14078
981.28        61.58397
981.66        60.96026
982.05        60.86908
982.43         61.4599
982.82        62.51176
983.20         63.8909
983.59        65.23145
983.97        66.40164
984.35        67.45146
984.74         68.1367
985.12        68.31068
985.51        67.91371
985.89        67.01864
986.28        66.03114
986.66         65.4975
987.04        65.60265
987.43        66.18718
987.81        66.97943
988.20        67.30587
988.58        66.97453
988.96        66.11955
989.35        65.04401
989.73        64.15676
990.12        63.56256
990.50        63.21699
990.88        62.88519
991.27        62.21611
991.65        61.19548
992.03        59.97561
992.42        59.07078
992.80        59.14965
993.18        60.31915
993.56        62.41719
993.95        64.67922
994.33        65.80181
994.71         65.2767
995.10         63.6116
995.48        61.69497
995.86        60.94151
996.24        61.68365
996.63        63.37626
997.01        65.66521
997.39        67.42294
997.77        68.06488
998.15        68.00342
998.54        67.20662
998.92        65.48602
999.30         63.1415
999.68        60.35328
1000.06        57.97751
1000.45        57.21295
1000.83        58.37263
1001.21        61.24278
1001.59        65.18152
1001.97        68.38211
1002.35        69.93284
1002.73        70.21758
1003.12        69.81386
1003.50         69.4683
1003.88        69.54113
1004.26         69.5959
1004.64        69.76563
1005.02        70.35972
1005.40        71.34384
1005.78        72.82401
1006.16         73.9345
1006.54          73.228
1006.92        70.66206
1007.30        66.83479
1007.69        63.21537
1008.07        61.71505
1008.45        62.88528
1008.83         66.2491
1009.21        70.75868
1009.59        73.75652
1009.97        73.87067
1010.35        71.83234
1010.73        68.55433
1011.11        65.38158
1011.49        62.92173
1011.86        60.92272
1012.24        59.52855
1012.62        58.90385
1013.00        59.01654
1013.38        59.89787
1013.76        61.52845
1014.14        63.52846
1014.52        65.46821
1014.90        67.15995
1015.28        68.23446
1015.66        68.41547
1016.04        67.74852
1016.41        66.30144
1016.79        64.46597
1017.17        63.11609
1017.55        62.58455
1017.93        62.72262
1018.31        63.24222
1018.69        63.65364
1019.06        63.84051
1019.44         63.9636
1019.82        64.08537
1020.20         64.3019
1020.58        64.56863
1020.95        64.60184
1021.33        64.58189
1021.71        64.66262
1022.09        64.90374
1022.46        65.52926
1022.84         66.0037
1023.22        65.26211
1023.60        63.15616
1023.97        59.97215
1024.35        57.51982
1024.73        57.75136
