SpectraSmart Spectrum 2.9.0.0
--------- Device Information -----------
Spectrum Name :  反射率_0
Saving Time :  2024/04/26 22:45:54
Spectro-Module Model Name : SE2030-DUVN
Spectro-Module Serial Number : OS361AC55029948
Wavelength Start : 200
Wavelength End : 1025
Wavelength Unit : Wavelength(nm)
Spectrum Unit : Reflectance(%)
-----------Spectrum Setting ------------
Integration Time : 20ms
Average : 10
Boxcar : 0
Background removal :  enabled
linearity correction :  enabled
SC :  disabled
Intensity correction :  disabled
DWT denoise :  enabled
savitzky-golay :  disabled
FFT :  disabled
Running average :  disabled
Kalman :  disabled
High pass :  disabled
---------------BEGIN--------------------
Wavelength(nm)             Reflectance(%)
200.29               0
200.75        44.78323
201.21        46.06639
201.67        47.47226
202.13         48.6192
202.58        49.48197
203.04        50.56457
203.50        51.96262
203.96         53.3531
204.42        54.44215
204.88        55.06054
205.34        55.17218
205.80        55.17217
206.26        55.08528
206.72         54.5736
207.18        54.02028
207.64        53.70061
208.10         53.6818
208.55        54.68653
209.01         55.4202
209.47        53.35981
209.93         49.1255
210.39        45.00604
210.85         43.2721
211.31        45.42635
211.77        52.63897
212.23        70.30348
212.69        114.2073
213.14        183.3808
213.60        171.7027
214.06        115.9608
214.52        81.02489
214.98        67.18049
215.44        63.22918
215.90        62.83299
216.36        64.12557
216.81        64.92648
217.27        64.74188
217.73         65.5963
218.19        66.22997
218.65        62.47785
219.11        55.92229
219.57        49.52523
220.02        47.31087
220.48        52.36565
220.94        64.91628
221.40        87.23614
221.86        117.8889
222.32        134.6474
222.77         120.688
223.23        91.88774
223.69        65.45236
224.15        50.45632
224.61        44.48052
225.06        42.86221
225.52        43.21307
225.98        43.13287
226.44        42.19487
226.90        41.28544
227.36        40.58158
227.81         40.2496
228.27         40.4096
228.73        40.53212
229.19        40.86031
229.65        41.86624
230.10        43.45721
230.56        45.52858
231.02        47.14965
231.48        46.86041
231.93        44.58257
232.39        41.25159
232.85        38.11724
233.31        36.79229
233.77        37.42022
234.22        39.52584
234.68        42.13432
235.14        43.79525
235.60         44.1181
236.05        43.54487
236.51        42.78866
236.97        43.28247
237.43        45.56084
237.88         49.1671
238.34         53.4069
238.80        57.59789
239.26        61.66094
239.71        66.34377
240.17        71.58401
240.63        77.18645
241.08        82.84904
241.54        87.63486
242.00        92.32389
242.46        99.47945
242.91        111.8898
243.37        131.2598
243.83        159.5957
244.28         188.783
244.74        200.9859
245.20        191.3895
245.66        171.5487
246.11        154.3513
246.57        141.9264
247.03        131.5907
247.48        120.1286
247.94        105.4387
248.40        91.64433
248.85        81.35335
249.31        75.72921
249.77        74.37375
250.22        76.28874
250.68        81.00184
251.14        88.02879
251.59         93.9869
252.05         96.0957
252.51        95.68114
252.96        92.44782
253.42        87.06974
253.88        80.66534
254.33         73.6282
254.79        69.33559
255.25        70.33546
255.70         75.8063
256.16        84.22533
256.62        91.72421
257.07        92.44147
257.53        87.79913
257.99        81.42431
258.44        75.73711
258.90        73.02381
259.35         72.2302
259.81        72.58815
260.27        73.15663
260.72         72.9812
261.18        72.18636
261.63        70.82373
262.09        69.52028
262.55        68.31998
263.00         67.1325
263.46        66.09721
263.91        64.83401
264.37        63.27859
264.83        61.45335
265.28        59.44664
265.74        57.76368
266.19        56.67499
266.65        56.24269
267.11        56.20809
267.56        56.23472
268.02        55.80498
268.47        54.78805
268.93        53.39221
269.38        51.79335
269.84        50.33081
270.30        49.09505
270.75        47.98233
271.21        47.01621
271.66        46.16012
272.12        45.39576
272.57         44.7234
273.03        44.07344
273.48        43.30555
273.94        42.45227
274.39        41.50776
274.85        40.62363
275.31        39.86714
275.76        39.22291
276.22        38.69669
276.67        38.18922
277.13         37.6683
277.58        37.06006
278.04        36.40477
278.49        35.68367
278.95        34.99646
279.40        34.31229
279.86         33.6991
280.31        33.05099
280.77         32.3307
281.22         31.5149
281.68        30.70476
282.13        30.00007
282.59        29.62354
283.04        29.55532
283.50        29.73963
283.95        30.00179
284.41        30.07836
284.86        29.90253
285.32        29.58255
285.77        29.24496
286.22        29.13878
286.68        29.30411
287.13        29.61415
287.59        29.96534
288.04        30.15366
288.50        30.15583
288.95        30.01758
289.41         29.8331
289.86        29.66127
290.32        29.57621
290.77        29.55314
291.22        29.61748
291.68        29.79192
292.13        30.07641
292.59        30.49789
293.04        31.07582
293.50         31.8502
293.95        32.80585
294.40        33.92808
294.86        35.15192
295.31        36.36775
295.77        37.55893
296.22        38.73431
296.68        39.96828
297.13        41.36321
297.58        42.95006
298.04        44.69598
298.49        46.52134
298.95        48.32383
299.40        50.05142
299.85        51.72556
300.31        53.40198
300.76        55.14188
301.21        56.96921
301.67        58.88608
302.12        60.78646
302.58        62.60389
303.03        64.28735
303.48        65.89857
303.94        67.57413
304.39        69.44494
304.84         71.5508
305.30        73.83582
305.75        76.11565
306.20        78.20415
306.66        80.06935
307.11        81.73976
307.57        83.31217
308.02        84.82217
308.47        86.32545
308.93         87.8009
309.38        89.26834
309.83        90.88344
310.29        92.66219
310.74        94.56547
311.19        96.40501
311.65        97.83467
312.10        98.76244
312.55        99.28119
313.00        99.67302
313.46        100.3893
313.91        101.5036
314.36        102.9111
314.82        104.3425
315.27        105.3716
315.72         105.867
316.18        105.9971
316.63        105.9684
317.08         106.151
317.53        106.6508
317.99        107.3472
318.44        108.1099
318.89        108.6979
319.35        109.0355
319.80        109.2077
320.25        109.3214
320.70        109.5424
321.16        109.9103
321.61        110.4055
322.06        110.9122
322.51        111.2594
322.97         111.392
323.42        111.3717
323.87        111.3593
324.32        111.6361
324.78         112.221
325.23        113.1095
325.68        113.9911
326.13        114.3633
326.59        114.1101
327.04         113.414
327.49        112.6485
327.94        112.4382
328.39        112.9341
328.85        113.9192
329.30         115.162
329.75        115.9705
330.20        116.1247
330.66        115.7957
331.11        115.3358
331.56        115.2293
332.01        115.6289
332.46        116.3586
332.92        117.1608
333.37        117.7806
333.82        118.0497
334.27        118.1135
334.72         118.088
335.17        118.1383
335.63        118.3326
336.08        118.6813
336.53        119.1952
336.98        119.9486
337.43        120.9245
337.88        122.0625
338.34        123.2467
338.79        124.4055
339.24         125.405
339.69        126.2513
340.14        126.8126
340.59        126.9119
341.05        126.6003
341.50        125.9592
341.95        125.3182
342.40        125.1761
342.85        125.6448
343.30         126.584
343.75        127.7384
344.20        128.6595
344.66        129.2012
345.11        129.4895
345.56        129.6042
346.01        129.6838
346.46        129.8073
346.91        129.9321
347.36        130.1064
347.81        130.4331
348.26        130.9012
348.72        131.4521
349.17         132.016
349.62        132.5122
350.07        132.8912
350.52        133.1959
350.97         133.266
351.42        132.8613
351.87        132.0009
352.32        130.7873
352.77        129.6347
353.22        129.1425
353.67        129.4061
354.13        130.2527
354.58        131.2371
355.03        131.5572
355.48        131.0074
355.93        129.8195
356.38        128.4745
356.83         127.704
357.28        127.6517
357.73        128.0578
358.18        128.4971
358.63        128.2941
359.08         127.294
359.53        125.7656
359.98        124.0684
360.43        122.7098
360.88        121.8171
361.33        121.2148
361.78        120.7292
362.23        120.0992
362.68        119.2508
363.13        118.2999
363.58        117.3069
364.03        116.3366
364.48        115.4147
364.93        114.4965
365.38        113.6087
365.83         112.822
366.28        112.1437
366.73        111.5564
367.18          110.99
367.63        110.3205
368.08        109.5193
368.53        108.6294
368.98        107.6993
369.43        106.8065
369.88        105.9826
370.33        105.2069
370.78         104.489
371.23        103.8526
371.68        103.2935
372.13         102.797
372.58        102.3291
373.03        101.8273
373.48        101.2617
373.93        100.6375
374.38        99.93671
374.83        99.14735
375.28        98.28429
375.72        97.34061
376.17        96.43725
376.62        95.63471
377.07        94.96535
377.52         94.4446
377.97        94.01221
378.42        93.57813
378.87        93.11839
379.32         92.6132
379.77         92.1965
380.22         92.0675
380.67        92.22015
381.11        92.61923
381.56        92.87547
382.01        92.44633
382.46        91.28268
382.91         89.6468
383.36        88.05288
383.81        87.20415
384.26        87.20682
384.71        87.81253
385.15         88.6745
385.60        89.18199
386.05        89.13312
386.50        88.70606
386.95         88.0202
387.40        87.27187
387.85        86.56577
388.29        85.79629
388.74        85.13683
389.19        84.61349
389.64        84.22594
390.09        83.97414
390.54        83.79443
390.98        83.54504
391.43        83.23438
391.88        82.88086
392.33        82.54404
392.78        82.26746
393.23        82.05062
393.67         81.9552
394.12        81.97295
394.57        81.64231
395.02        81.08109
395.47        80.97392
395.91        81.25959
396.36        81.19702
396.81        80.77968
397.26        80.43447
397.71        80.18616
398.15        79.91108
398.60         79.7164
399.05        79.41396
399.50        79.07597
399.95        79.17472
400.39         79.5691
400.84         79.3019
401.29        78.43588
401.74        78.01247
402.18        78.00915
402.63          77.463
403.08         76.5569
403.53        76.18401
403.97         76.3805
404.42        76.77265
404.87        77.17012
405.32        77.27528
405.76        76.98651
406.21        76.84934
406.66         76.3289
407.11        75.99281
407.55        75.81642
408.00        75.90028
408.45        76.19672
408.90        76.67437
409.34        77.05554
409.79         76.6692
410.24        75.73575
410.68        75.22501
411.13        75.22446
411.58        75.19273
412.03        75.03584
412.47        74.87177
412.92          74.663
413.37        74.41506
413.81        74.20271
414.26        74.20161
414.71        74.40359
415.15        74.79356
415.60        75.21056
416.05        75.45554
416.49        75.47086
416.94        75.29711
417.39        75.07332
417.83        75.00463
418.28        75.14323
418.73        75.42131
419.17        75.72202
419.62        75.86167
420.07        75.78146
420.51        75.52174
420.96        75.21523
421.41        74.96774
421.85        74.79205
422.30        74.82827
422.74         74.9031
423.19        74.66088
423.64        74.15217
424.08        73.93461
424.53        74.07056
424.98        74.24134
425.42        74.44765
425.87         74.9628
426.31        75.58533
426.76        75.63565
427.21        75.15754
427.65        74.75139
428.10        74.55338
428.54        74.47318
428.99        74.59417
429.44        74.74295
429.88        74.96861
430.33        75.72986
430.77        76.64717
431.22        77.03146
431.66        76.80639
432.11        76.05047
432.56        75.10246
433.00        74.97569
433.45        75.86141
433.89         76.2057
434.34        76.26382
434.78        77.09804
435.23        76.87399
435.67        74.04903
436.12          74.792
436.57        74.89663
437.01        75.87117
437.46         76.3518
437.90         76.3913
438.35        74.74576
438.79        75.36904
439.24        75.16082
439.68        75.22492
440.13        75.65015
440.57        76.35737
441.02        76.46984
441.46        76.05171
441.91         76.7605
442.35        78.05013
442.80        77.64521
443.24         75.9299
443.69        75.74522
444.13        77.01485
444.58        77.52976
445.02        77.22466
445.47        77.34083
445.91        77.85461
446.36        78.19841
446.80        78.32707
447.24        78.37466
447.69        78.39328
448.13        78.45434
448.58        78.59214
449.02         78.7413
449.47        78.85921
449.91        78.85122
450.36        78.72828
450.80        78.51371
451.25        78.30943
451.69        78.17836
452.13        78.17408
452.58        78.31668
453.02        78.52075
453.47        78.60732
453.91        78.52794
454.36         78.3644
454.80         78.1759
455.24        77.92562
455.69        77.62858
456.13        77.52319
456.58        77.65102
457.02        76.97083
457.46        76.57008
457.91         76.8639
458.35         77.5554
458.79        77.54649
459.24        76.80536
459.68         75.8393
460.13        74.97549
460.57        74.74258
461.01        75.34477
461.46          75.116
461.90        76.14957
462.34        77.01562
462.79        76.81097
463.23        76.81371
463.68        76.90604
464.12         76.5579
464.56        75.88054
465.01        75.04837
465.45        74.28477
465.89        74.02346
466.34        74.15498
466.78        74.58463
467.22        75.19722
467.67        74.30981
468.11        74.06918
468.55        74.17929
468.99        75.06639
469.44        75.29308
469.88        74.81491
470.32        74.43475
470.77        74.24451
471.21        74.06319
471.65        73.90749
472.10         73.8331
472.54        73.81982
472.98         73.7833
473.42        73.68802
473.87        73.74896
474.31        73.83131
474.75        73.37295
475.20        72.60265
475.64         72.5021
476.08        73.02123
476.52        73.10442
476.97        72.66687
477.41        72.56902
477.85        72.99295
478.29        72.34396
478.74        72.85818
479.18        73.48802
479.62        73.22559
480.06        73.29583
480.50         73.2373
480.95        72.98186
481.39        72.54804
481.83         72.6058
482.27        72.48955
482.72        72.63002
483.16         72.8027
483.60        72.83348
484.04        72.72351
484.48        72.89297
484.93        73.04396
485.37        72.48318
485.81        72.23811
486.25        71.40043
486.69        70.97194
487.14        73.85271
487.58        73.63115
488.02        72.91856
488.46        71.45118
488.90        71.18844
489.34        72.92647
489.79        73.90672
490.23        73.68314
490.67        72.90897
491.11        71.88781
491.55        71.52927
491.99        71.84347
492.43        71.77895
492.88        71.34544
493.32        71.37621
493.76        71.81718
494.20        72.09206
494.64        72.12519
495.08        72.10799
495.52        72.06119
495.96         71.9065
496.41        71.68986
496.85        71.69334
497.29         71.7489
497.73        71.64986
498.17        70.62579
498.61        70.63628
499.05        71.24767
499.49        71.61526
499.93        71.37904
500.37        71.39569
500.82        71.58906
501.26        71.58174
501.70        71.42414
502.14        71.46291
502.58        71.68439
503.02        71.79601
503.46        71.79521
503.90           71.84
504.34        71.89654
504.78        71.80853
505.22        71.54755
505.66        71.24327
506.10          71.049
506.54        70.82038
506.98        70.51249
507.42        71.27432
507.86         71.5989
508.30        70.98131
508.74        71.60569
509.18        71.40195
509.62        71.21535
510.06        71.09104
510.50        71.09007
510.94        71.13383
511.38        71.16696
511.82        71.17611
512.26        71.14454
512.70         71.0936
513.14        71.04364
513.58         71.0191
514.02        71.03001
514.46        71.06664
514.90        71.12215
515.34        71.18917
515.78        71.25787
516.22        71.32006
516.66        71.37239
517.10        71.41038
517.54        71.43013
517.98        71.43546
518.42        71.40594
518.86         71.3109
519.30        71.15577
519.74        70.95834
520.18         70.7781
520.62        70.70364
521.06        70.75442
521.50        70.90945
521.93        71.10999
522.37        71.23408
522.81        71.25691
523.25        71.20161
523.69        71.12384
524.13        71.11584
524.57        71.19027
525.01        71.30438
525.45        71.39636
525.89        71.36987
526.32        71.20052
526.76         70.9557
527.20        70.67743
527.64        70.43377
528.08        70.25654
528.52        70.12473
528.96        70.06332
529.40        70.11718
529.83        70.27576
530.27         70.4978
530.71         70.7491
531.15        70.85818
531.59        70.81017
532.03        70.63389
532.46        70.39323
532.90        70.24287
533.34         70.2092
533.78        70.21586
534.22        70.21786
534.66        70.23129
535.09        70.18953
535.53        69.95701
535.97        69.60745
536.41        69.43557
536.85        69.47157
537.28        69.56329
537.72        69.67535
538.16        69.80528
538.60        69.92902
539.04        70.05167
539.47        70.13105
539.91        70.15485
540.35        70.11115
540.79        69.98712
541.22        69.84509
541.66        69.85703
542.10        70.01077
542.54        70.16534
542.97        70.25211
543.41        70.28432
543.85        70.23625
544.29         70.0943
544.72        69.89727
545.16        69.77221
545.60        69.73237
546.04        69.75027
546.47        69.82047
546.91        69.92559
547.35        70.04505
547.79        70.18535
548.22         70.3119
548.66        70.35085
549.10        70.36961
549.53           70.35
549.97        70.31158
550.41        70.13891
550.84        69.92364
551.28         69.8549
551.72         69.8829
552.15        69.98237
552.59        70.23242
553.03        69.62083
553.46         70.2342
553.90        70.21968
554.34         70.1779
554.77        70.10449
555.21        70.08953
555.65        70.05318
556.08        70.39283
556.52        70.35754
556.96        70.09774
557.39        69.99984
557.83        70.06742
558.27        69.90061
558.70        69.53943
559.14        69.43318
559.57        69.55163
560.01        69.54841
560.45        69.45651
560.88        69.62893
561.32        70.01414
561.75        70.19421
562.19        70.15453
562.63        70.02901
563.06        69.87529
563.50        69.80235
563.93        69.76598
564.37        69.77292
564.80        69.82998
565.24        69.74979
565.68        69.39584
566.11        70.12516
566.55        69.41969
566.98        69.24258
567.42        69.02489
567.85        69.14983
568.29        69.62337
568.72        69.93584
569.16        70.13866
569.60        70.15533
570.03        70.18592
570.47        70.23408
570.90        70.47023
571.34        69.65353
571.77        69.77597
572.21        70.63146
572.64        69.96561
573.08        70.41604
573.51        70.01532
573.95        69.95445
574.38        70.07588
574.82        70.17717
575.25        69.99843
575.69        69.97523
576.12        70.08301
576.56        69.69308
576.99        69.49091
577.42        69.80804
577.86        69.97263
578.29        70.42673
578.73        70.50121
579.16         70.4731
579.60        70.02961
580.03        69.91221
580.47        69.74555
580.90        70.52097
581.33        70.28989
581.77        70.48257
582.20        69.91285
582.64        70.57065
583.07        70.36998
583.51        70.23554
583.94        70.05409
584.37        70.22417
584.81        70.45242
585.24        70.45435
585.68        70.13975
586.11        70.20552
586.54        70.22694
586.98        69.68523
587.41        69.07013
587.85        69.75298
588.28        69.57878
588.71        69.63816
589.15        69.37431
589.58        69.57848
590.01        69.31804
590.45         69.2947
590.88        70.15161
591.31         70.0941
591.75        69.49221
592.18        69.15536
592.61        69.17921
593.05        69.73192
593.48        69.86195
593.91        69.80959
594.35        69.80202
594.78        69.37734
595.21        68.87386
595.65        69.08468
596.08        70.05625
596.51        70.30602
596.94         69.8358
597.38        69.54853
597.81        69.37254
598.24        70.31486
598.68        69.99722
599.11        69.05683
599.54        69.99006
599.97        69.37314
600.41        69.84483
600.84        69.30569
601.27         69.7364
601.70        69.52349
602.14        69.65224
602.57        69.51151
603.00        69.47343
603.43        68.65163
603.87        69.21858
604.30         69.3756
604.73        69.79759
605.16        68.90519
605.60        69.05491
606.03        68.76299
606.46        68.69761
606.89        68.90194
607.32        69.33826
607.76        68.99481
608.19        69.38956
608.62        69.27194
609.05        69.19359
609.48        69.14991
609.92        70.04539
610.35        69.53539
610.78        68.70084
611.21        68.83102
611.64        68.80581
612.07        69.17292
612.50        69.09717
612.94        69.16946
613.37        69.22376
613.80        69.08569
614.23        68.60396
614.66        68.51308
615.09        68.77561
615.52        68.99452
615.96        69.04099
616.39        69.18732
616.82         69.4736
617.25        68.67516
617.68        68.80205
618.11        68.76743
618.54        69.09832
618.97        69.25611
619.40         69.1615
619.84        69.20934
620.27        68.80941
620.70         68.8108
621.13        68.95866
621.56        68.66714
621.99        67.99903
622.42        67.76033
622.85        68.03323
623.28        67.76276
623.71        67.88074
624.14        67.99519
624.57        68.50294
625.00         68.3452
625.43        68.44844
625.86        68.36311
626.29         68.4681
626.72        67.75034
627.15        68.23118
627.58        68.16222
628.01         68.0317
628.44        68.27136
628.87        68.11382
629.30        67.82611
629.73        67.59165
630.16         67.9386
630.59        67.77759
631.02        68.04921
631.45        68.34322
631.88        68.50288
632.31        68.46619
632.74        68.52377
633.17         68.3037
633.60        68.18134
634.03         68.0597
634.46        67.95532
634.89        67.86486
635.32        67.74992
635.75        67.64855
636.18        67.62012
636.61        67.66048
637.04        67.68063
637.47        67.67171
637.89        67.69292
638.32        67.70712
638.75        67.68532
639.18        67.62711
639.61        67.54089
640.04        67.46713
640.47        67.47133
640.90        67.56337
641.33        67.72354
641.76        67.89248
642.18        67.98027
642.61        67.94065
643.04        67.80601
643.47        67.63668
643.90        67.53358
644.33        67.51939
644.76        67.56408
645.18        67.61562
645.61        67.56718
646.04        67.41486
646.47        67.21593
646.90        67.02608
647.33        66.93208
647.75        66.92864
648.18        66.99495
648.61        67.17271
649.04        67.35005
649.47        67.38845
649.89         68.2047
650.32        67.91604
650.75        67.74054
651.18        67.31228
651.61        67.29264
652.03        67.66525
652.46        67.87022
652.89        67.84514
653.32        67.75892
653.74        67.68706
654.17        67.52036
654.60         67.9579
655.03        67.86121
655.46         66.9305
655.88        66.74576
656.31        67.94852
656.74        66.75709
657.16         70.6263
657.59        74.40388
658.02        69.51021
658.45        68.91405
658.87        67.74613
659.30        68.25016
659.73        67.40494
660.15        68.77818
660.58        67.64835
661.01        67.64965
661.44        67.62698
661.86        67.30981
662.29        66.76669
662.72        66.96754
663.14        67.02374
663.57        67.07125
664.00          66.911
664.42        67.03301
664.85        67.43739
665.27        67.84924
665.70        68.11785
666.13        68.20118
666.55        68.07738
666.98        67.68865
667.41        67.14661
667.83        67.07813
668.26        66.83562
668.69        66.92393
669.11        67.08945
669.54        67.22645
669.96        67.29824
670.39        67.41572
670.82        67.55128
671.24        67.46007
671.67        67.22959
672.09        67.21041
672.52        67.40974
672.94        67.57629
673.37        67.64644
673.80        67.56087
674.22        67.37431
674.65        67.28166
675.07        67.32095
675.50        67.33239
675.92        67.30482
676.35        67.28654
676.77        67.27263
677.20        67.24352
677.62        67.20384
678.05        67.15578
678.47        67.10173
678.90        67.06689
679.32         67.0418
679.75        66.97694
680.17        66.94094
680.60        66.87248
681.02         66.8377
681.45        66.88538
681.87        67.02771
682.30        67.27357
682.72        67.53551
683.15        67.53619
683.57        67.30346
684.00         67.0911
684.42         66.9901
684.85        66.96523
685.27        67.03295
685.70         67.2642
686.12        67.55803
686.54        67.71783
686.97        67.69936
687.39        67.57171
687.82        67.38538
688.24        67.24245
688.66        67.17492
689.09        67.14682
689.51        67.16143
689.94        67.19706
690.36         67.2489
690.78        67.30976
691.21        67.37614
691.63        67.42896
692.06        67.46613
692.48        67.50205
692.90        67.50572
693.33         67.4369
693.75        67.29308
694.17        67.05694
694.60        66.83544
695.02        66.80414
695.44        66.96048
695.87        67.28312
696.29        67.62818
696.71        67.49931
697.14        67.00134
697.56        66.83083
697.98        67.03339
698.41        67.12048
698.83        67.08129
699.25        67.26871
699.68        67.56152
700.10        67.64091
700.52        67.44459
700.94        67.08675
701.37        66.71134
701.79        66.55419
702.21        66.66518
702.64        66.95103
703.06        67.30531
703.48        67.53609
703.90        67.58401
704.33        67.51359
704.75        67.37315
705.17        67.23037
705.59         67.1244
706.01         67.0302
706.44        66.98293
706.86        67.06271
707.28        67.25967
707.70        67.55169
708.12        67.86983
708.55        68.08263
708.97        68.16294
709.39        68.14575
709.81        68.06149
710.23        67.97703
710.66        67.91499
711.08        67.86864
711.50        67.81857
711.92         67.7532
712.34          67.674
712.76        67.60709
713.19         67.5379
713.61        67.47513
714.03        67.41309
714.45        67.35748
714.87        67.35759
715.29         67.4932
715.71        67.76289
716.13        68.11883
716.56        68.45799
716.98        68.70198
717.40        68.77391
717.82        68.69822
718.24        68.49457
718.66        68.22617
719.08        67.92981
719.50        67.56904
719.92        67.23708
720.34        67.12394
720.76        67.25112
721.19        67.51792
721.61        67.88847
722.03        68.25921
722.45        68.56469
722.87        68.81159
723.29        68.92702
723.71        68.80511
724.13        68.45477
724.55        67.92757
724.97        67.37671
725.39        67.05921
725.81         67.0434
726.23        67.23865
726.65        67.54764
727.07        67.95287
727.49         68.1459
727.91        68.35946
728.33          68.517
728.75        68.62154
729.17        68.67413
729.59        68.65857
730.01        68.59782
730.43        68.54037
730.85        68.49976
731.27        68.46686
731.69        68.43622
732.10        68.39076
732.52        68.32529
732.94        68.26617
733.36        68.22523
733.78        68.08736
734.20        67.84232
734.62         67.7649
735.04        67.97176
735.46         67.3819
735.88        68.00949
736.30        68.21026
736.72        68.52186
737.13        68.80525
737.55        68.97838
737.97        69.13126
738.39        69.20689
738.81        69.03053
739.23        68.68119
739.65         68.5388
740.06        68.60655
740.48        68.64072
740.90         68.6143
741.32        68.71513
741.74        68.91843
742.16        69.06389
742.57        69.12591
742.99        69.13376
743.41        69.09025
743.83        68.98232
744.25        68.82154
744.67        68.60213
745.08        68.40971
745.50        68.35921
745.92        68.47881
746.34        68.73042
746.75         68.9995
747.17        69.08337
747.59        68.94321
748.01        68.64063
748.42        68.28888
748.84        68.07368
749.26        68.04568
749.68         68.1375
750.09        68.27516
750.51         68.3615
750.93        68.35013
751.35        68.25235
751.76        68.09207
752.18        67.94358
752.60        67.81906
753.01        67.70268
753.43        67.57963
753.85        67.46899
754.27        67.38719
754.68        67.35528
755.10        67.38374
755.52        67.47858
755.93        67.62001
756.35        67.78098
756.77        68.01458
757.18        68.22981
757.60        68.38648
758.02        68.84066
758.43        69.49192
758.85        68.63029
759.26        68.65243
759.68        68.03941
760.10        67.69817
760.51        67.76357
760.93        68.20181
761.34        68.24743
761.76        68.44926
762.18        68.54234
762.59        68.74812
763.01        68.93476
763.42        69.11868
763.84        69.14371
764.26        69.01869
764.67        68.84058
765.09        68.69347
765.50        68.48901
765.92        68.31895
766.33        68.32817
766.75        68.43044
767.16        68.48724
767.58          68.429
768.00        68.34644
768.41        68.31499
768.83         68.4305
769.24        68.61877
769.66        68.71383
770.07        68.67821
770.49        68.37175
770.90        67.99963
771.32        68.36977
771.73        69.29826
772.15        69.61886
772.56        69.25581
772.97         68.8129
773.39        68.48856
773.80        68.35452
774.22        68.45497
774.63        68.81419
775.05         69.2244
775.46        69.42046
775.88        69.29985
776.29        68.96841
776.70        68.58911
777.12        68.44844
777.53        68.62663
777.95        68.99208
778.36        69.41144
778.77        69.62659
779.19        69.58418
779.60        69.38615
780.02        69.11205
780.43        68.95534
780.84        68.98824
781.26        68.88999
781.67        68.74182
782.09        69.23768
782.50         70.0975
782.91        69.97681
783.33        69.01434
783.74        68.66685
784.15        69.01858
784.57        69.24054
784.98        69.28173
785.39        69.41625
785.81        69.61999
786.22        69.82961
786.63        69.99879
787.04         70.0545
787.46        70.00484
787.87        69.85325
788.28        69.69758
788.70        69.66546
789.11        69.76379
789.52        69.99455
789.93        70.25961
790.35        70.38225
790.76        70.32405
791.17        70.11155
791.58         69.8848
792.00        69.77398
792.41        69.82003
792.82        70.21279
793.23        70.73289
793.65        70.42117
794.06         69.5166
794.47        69.48169
794.88         70.2056
795.29        70.40258
795.71        70.00948
796.12        69.79888
796.53        69.85388
796.94        69.94506
797.35         70.0738
797.76        70.30325
798.18        70.53911
798.59        70.67583
799.00         70.6629
799.41         70.5233
799.82        70.32483
800.23        70.19727
800.64         70.1736
801.06        70.18217
801.47        70.23627
801.88        70.26378
802.29        70.24116
802.70        70.19533
803.11        70.12309
803.52         70.0127
803.93        69.88788
804.34        69.76044
804.75        69.67726
805.17        69.76744
805.58         70.0866
805.99        70.36745
806.40        70.57806
806.81        71.15164
807.22        71.81824
807.63        71.48876
808.04        70.37198
808.45        69.79135
808.86        69.88416
809.27        69.96707
809.68        69.94143
810.09        69.95803
810.50         69.9851
810.91        69.98653
811.32        70.02854
811.73        70.21102
812.14        70.53815
812.55        70.96636
812.96        71.36169
813.37        71.48027
813.78        71.26507
814.19        70.81953
814.60        70.29066
815.01        69.87164
815.42        69.61337
815.83         69.4601
816.24         69.4116
816.65        69.46147
817.05        69.59769
817.46        69.80515
817.87        70.02184
818.28        70.09537
818.69        70.00116
819.10        69.75895
819.51        69.50894
819.92        69.51496
820.33        69.83417
820.74         70.3746
821.14        70.95355
821.55         71.2738
821.96        71.26077
822.37        71.00439
822.78        70.63382
823.19        70.37044
823.60        70.29494
824.00        70.36896
824.41        70.48991
824.82        70.59486
825.23        70.64091
825.64        70.65788
826.04        70.67024
826.45        70.66443
826.86        70.66145
827.27        70.67373
827.68        70.66985
828.08        70.63232
828.49        70.51208
828.90        70.32532
829.31        70.19862
829.72        70.33907
830.12        70.79698
830.53        71.45644
830.94        72.07109
831.35        72.17105
831.75        71.67059
832.16        70.69904
832.57        69.62154
832.97        68.99793
833.38        68.97342
833.79        69.36182
834.20        69.94256
834.60        70.35777
835.01        70.49816
835.42        70.52495
835.82        70.48062
836.23        70.35284
836.64         70.2056
837.04        69.97976
837.45         69.8602
837.86         70.2284
838.26        71.14819
838.67        72.47443
839.08        73.76195
839.48        74.16203
839.89        73.47146
840.29        71.99466
840.70         70.4146
841.11        69.53284
841.51        69.55253
841.92         70.2215
842.33        71.23966
842.73        72.05964
843.14        72.36243
843.54        72.36105
843.95        72.20472
844.35        72.18822
844.76        72.36902
845.17        72.62173
845.57        72.82388
845.98        72.77122
846.38        72.44839
846.79        71.94809
847.19        71.41251
847.60        71.02801
848.00        70.86525
848.41        70.83841
848.81        70.92526
849.22        71.00072
849.62        71.06102
850.03        71.13595
850.43        71.20239
850.84        71.14923
851.24        71.01141
851.65        70.73473
852.05        70.54099
852.46        70.70869
852.86        71.27074
853.27        72.10572
853.67        72.85719
854.07        73.15643
854.48        72.91729
854.88        72.28468
855.29        71.44154
855.69        70.86873
856.10        70.66148
856.50        70.77122
856.90         71.0227
857.31        71.13493
857.71        71.07079
858.12        70.85999
858.52         70.6245
858.92        70.44047
859.33        70.32404
859.73        70.27599
860.13        70.21924
860.54        70.06507
860.94        69.83994
861.34        69.56853
861.75        69.32083
862.15        69.24719
862.55          69.354
862.96        69.55264
863.36        69.80765
863.76        69.97305
864.17        69.98671
864.57        69.92426
864.97        69.73966
865.38        69.37168
865.78        68.86748
866.18        68.24514
866.58        67.68768
866.99        67.51608
867.39        67.82424
867.79        68.50329
868.19        69.32322
868.60        69.90547
869.00        70.17507
869.40        70.19244
869.80        70.06789
870.21         70.0264
870.61        70.19334
871.01         70.4246
871.41        70.57649
871.81        70.45574
872.22        70.02805
872.62        69.37735
873.02        68.67339
873.42        68.18756
873.82        68.01488
874.22        68.08937
874.63        68.27156
875.03        68.35231
875.43        68.25629
875.83        68.04546
876.23        67.83019
876.63        67.78142
877.03        67.93369
877.44        68.19268
877.84        68.45501
878.24        68.56458
878.64        68.43893
879.04        68.01344
879.44        67.48776
879.84        67.26115
880.24         67.3812
880.64        67.69714
881.04        67.97995
881.44        67.88339
881.84        67.34035
882.24        66.48917
882.65        65.61155
883.05        65.12999
883.45        65.15829
883.85        65.58181
884.25        66.19717
884.65        66.65001
885.05        66.82523
885.45        66.82253
885.85        66.77405
886.25        66.89057
886.65        67.21072
887.05        67.62231
887.45        68.01534
887.85        68.22621
888.25        68.19714
888.65        67.99968
889.04        67.66029
889.44        67.23837
889.84        66.77192
890.24        66.27065
890.64        65.83177
891.04        65.61398
891.44        65.65179
891.84        65.90579
892.24        66.27094
892.64          66.574
893.04        66.77164
893.44        66.91372
893.83        67.05776
894.23        67.25096
894.63        67.52372
895.03        67.81535
895.43        68.12177
895.83        68.45459
896.23        68.78164
896.63        69.07859
897.02        69.23907
897.42        69.12007
897.82        68.71275
898.22        68.11169
898.62        67.44088
899.01        66.86938
899.41        66.48145
899.81        66.23351
900.21        66.14869
900.61        66.25462
901.00        66.52393
901.40        66.92553
901.80        67.34599
902.20        67.59647
902.59        67.63933
902.99         67.5154
903.39         67.2873
903.79        67.07333
904.18        66.90828
904.58        66.74997
904.98        66.66629
905.38        66.76574
905.77        67.05434
906.17        67.54647
906.57        68.01288
906.96        68.06316
907.36        67.62467
907.76        66.82858
908.15        66.09737
908.55        66.08694
908.95         66.9268
909.34        68.40074
909.74        69.98377
910.14        70.88981
910.53        70.85847
910.93        70.15242
911.33        69.07704
911.72        68.10107
912.12        67.47131
912.52        67.07037
912.91        66.85725
913.31        66.79264
913.70        66.84582
914.10        67.01801
914.49        67.37836
914.89         67.9202
915.29        68.61868
915.68        69.43545
916.08        70.08039
916.47        70.17766
916.87        69.68365
917.26        68.70126
917.66        67.67638
918.05        67.13163
918.45        67.19441
918.84        67.78588
919.24        68.53882
919.64        68.93085
920.03        68.81921
920.42        68.31189
920.82        67.80483
921.21        67.85992
921.61        68.56306
922.00        69.75999
922.40        70.94279
922.79        71.37887
923.19         70.8521
923.58        69.66505
923.98        68.31831
924.37        67.46387
924.77        67.27955
925.16        67.51997
925.55        67.98424
925.95        68.30116
926.34        68.34963
926.74        68.25884
927.13        68.01461
927.52        67.51173
927.92        66.83824
928.31        66.00471
928.70        65.28619
929.10        65.09527
929.49        65.48044
929.89        66.26644
930.28        67.27403
930.67        68.05234
931.07        68.40749
931.46        68.53957
931.85         68.3765
932.24        67.87527
932.64        67.15543
933.03        66.21041
933.42        65.46104
933.82        65.52016
934.21        66.46634
934.60        68.16373
934.99        70.05984
935.39        71.12597
935.78        71.09423
936.17         70.1479
936.56        68.80151
936.96        67.89326
937.35         67.6622
937.74        67.87107
938.13        68.17704
938.53        68.05918
938.92        67.41312
939.31        66.49464
939.70         65.5941
940.09        65.08129
940.49        65.01837
940.88        65.29305
941.27        65.79111
941.66        66.30684
942.05        66.73927
942.44        67.15466
942.84        67.51995
943.23        67.77426
943.62        67.91911
944.01        67.90836
944.40         67.8637
944.79        68.02145
945.18        68.40245
945.57        68.93108
945.97         69.3232
946.36        69.19858
946.75        68.46029
947.14        67.33479
947.53         66.1405
947.92        65.30583
948.31        64.96181
948.70        65.00371
949.09        65.37518
949.48        65.96724
949.87        66.68638
950.26        67.51603
950.65        68.35194
951.04        69.03182
951.43        69.46975
951.82        69.64123
952.21        69.52414
952.60        69.12529
952.99         68.5218
953.38        67.81088
953.77        67.11041
954.16        66.58755
954.55        66.29041
954.94        66.14137
955.33        66.23555
955.72        66.70667
956.11        67.51134
956.50        68.61015
956.89        69.51918
957.28        69.43714
957.66        68.25004
958.05        66.30032
958.44        64.32106
958.83        63.37369
959.22        63.66711
959.61        64.89021
960.00        66.54256
960.39        67.66081
960.78        67.86613
961.16         67.4173
961.55        66.65207
961.94        65.98003
962.33        65.56346
962.72        65.31129
963.11        65.13991
963.49        64.98191
963.88        64.75843
964.27        64.51274
964.66        64.52461
965.04        65.21404
965.43        66.55939
965.82        68.49487
966.21        70.29615
966.60        70.57913
966.98        69.02367
967.37        66.23112
967.76        63.35835
968.15        61.86809
968.53        62.02266
968.92        63.43991
969.31        65.44133
969.69        66.63823
970.08        66.44147
970.47         65.3111
970.86        63.96658
971.24        63.40739
971.63        63.86742
972.02        65.04348
972.40        66.43732
972.79         66.8685
973.17        66.08044
973.56        64.52849
973.95        62.95215
974.33        62.27613
974.72        62.68778
975.11        63.88469
975.49        65.43298
975.88        66.42142
976.26         66.5549
976.65        66.04289
977.04        65.24505
977.42        64.69014
977.81        64.51086
978.19        64.52854
978.58        64.69237
978.96        64.89635
979.35        65.05738
979.74        65.25655
980.12        65.52732
980.51        65.66053
980.89        65.74907
981.28        65.81442
981.66        65.90993
982.05        66.11483
982.43        66.45814
982.82        66.83681
983.20        67.46492
983.59        68.59403
983.97        70.28613
984.35        72.43246
984.74        74.25648
985.12        74.72758
985.51        73.57999
985.89        71.16116
986.28        68.57344
986.66        67.39442
987.04        68.04537
987.43           70.12
987.81         72.6898
988.20        73.79087
988.58        72.84605
988.96        70.40535
989.35         67.5937
989.73        65.99554
990.12        65.94666
990.50        67.00247
990.88        68.32405
991.27        68.46995
991.65        67.10528
992.03        64.82909
992.42        62.59861
992.80        61.64867
993.18         62.2524
993.56         64.0088
993.95        66.20202
994.33        67.65663
994.71        67.78921
995.10        67.06725
995.48        65.97412
995.86        65.31267
996.24        65.30223
996.63        65.50593
997.01        65.97729
997.39        66.50708
997.77        66.93645
998.15        67.48061
998.54        67.77066
998.92        67.08363
999.30        65.51248
999.68         63.3163
1000.06        61.45718
1000.45        61.31128
1000.83        63.22257
1001.21         66.9119
1001.59        71.42149
1001.97        74.33259
1002.35        74.63427
1002.73        73.05117
1003.12        70.79957
1003.50        69.39198
1003.88        69.33557
1004.26        70.02002
1004.64        71.33896
1005.02        73.02022
1005.40        74.70506
1005.78        76.61107
1006.16        77.86795
1006.54        77.05881
1006.92        74.21397
1007.30        69.91046
1007.69        65.75716
1008.07        63.90319
1008.45         64.9552
1008.83        68.39976
1009.21        73.18414
1009.59        76.55312
1009.97        77.03992
1010.35        75.39166
1010.73        72.35555
1011.11        69.06469
1011.49        66.15833
1011.86         63.4749
1012.24        61.42805
1012.62        60.53811
1013.00        60.83365
1013.38        62.27612
1013.76        64.65965
1014.14        67.11407
1014.52        68.97993
1014.90        70.20369
1015.28        70.66117
1015.66        70.43062
1016.04        69.62543
1016.41         68.1703
1016.79        66.37114
1017.17         64.9628
1017.55        64.24582
1017.93        64.20297
1018.31        64.49499
1018.69         64.5125
1019.06        64.13393
1019.44        63.47916
1019.82        62.93573
1020.20        63.33059
1020.58        64.73028
1020.95        66.45705
1021.33        67.98957
1021.71        68.70515
1022.09        68.57645
1022.46        68.03505
1022.84        66.77755
1023.22        64.54614
1023.60        61.73655
1023.97        58.48535
1024.35         56.4595
1024.73        57.42071
