SpectraSmart Spectrum 2.9.0.0
--------- Device Information -----------
Spectrum Name :  反射率_0
Saving Time :  2024/04/26 22:42:33
Spectro-Module Model Name : SE2030-DUVN
Spectro-Module Serial Number : OS361AC55029948
Wavelength Start : 200
Wavelength End : 1025
Wavelength Unit : Wavelength(nm)
Spectrum Unit : Reflectance(%)
-----------Spectrum Setting ------------
Integration Time : 20ms
Average : 10
Boxcar : 0
Background removal :  enabled
linearity correction :  enabled
SC :  disabled
Intensity correction :  disabled
DWT denoise :  enabled
savitzky-golay :  disabled
FFT :  disabled
Running average :  disabled
Kalman :  disabled
High pass :  disabled
---------------BEGIN--------------------
Wavelength(nm)             Reflectance(%)
200.29               0
200.75        42.72356
201.21        45.37327
201.67        48.05943
202.13        49.44821
202.58         49.4295
203.04        48.71139
203.50        47.97152
203.96        48.77664
204.42        52.08809
204.88        57.44481
205.34         63.1506
205.80        66.42815
206.26        66.34088
206.72        63.53196
207.18        60.21689
207.64        58.26155
208.10        57.79206
208.55        59.18111
209.01        60.39635
209.47        56.89753
209.93         49.5312
210.39        42.63914
210.85          39.247
211.31         40.6936
211.77        47.97861
212.23        66.84286
212.69        115.4364
213.14        197.6143
213.60        194.7696
214.06         136.193
214.52        97.09417
214.98        81.18347
215.44        76.41409
215.90        75.60164
216.36        75.97021
216.81        74.01142
217.27        68.57148
217.73        60.65331
218.19        50.63989
218.65         44.3091
219.11        45.99863
219.57        51.17246
220.02        56.95037
220.48        64.08154
220.94          73.669
221.40        87.90456
221.86        105.9536
222.32        114.7501
222.77        104.7706
223.23        86.05643
223.69        68.74309
224.15        57.89999
224.61        52.21612
225.06        49.14065
225.52        47.87599
225.98        47.44334
226.44         47.3979
226.90        47.88747
227.36        48.27136
227.81        47.47346
228.27        45.56364
228.73        42.88079
229.19        40.35963
229.65        39.04659
230.10        38.93428
230.56        39.68241
231.02        40.52227
231.48        40.28284
231.93         38.7931
232.39        36.76025
232.85         34.9303
233.31        34.28329
233.77        34.89759
234.22        36.46875
234.68        38.34509
235.14        39.64193
235.60        40.11937
236.05        40.03876
236.51        39.88752
236.97        40.61151
237.43          42.533
237.88        45.36406
238.34        48.56042
238.80        51.59258
239.26        54.45368
239.71        57.80594
240.17        61.68464
240.63        66.28208
241.08        71.56264
241.54          76.541
242.00        82.08871
242.46        90.90059
242.91         105.823
243.37        129.3026
243.83        161.6605
244.28        187.6648
244.74        185.2837
245.20        155.1154
245.66        119.5709
246.11        97.78421
246.57         90.1684
247.03         91.4322
247.48        95.64299
247.94        93.43924
248.40        85.49026
248.85        76.93526
249.31        71.30169
249.77         70.2124
250.22        73.09825
250.68        78.94492
251.14        86.69067
251.59        91.65064
252.05        90.84966
252.51        86.99834
252.96        81.03667
253.42        74.24821
253.88          67.625
254.33        61.21465
254.79        57.84782
255.25        59.69587
255.70        65.92119
256.16        75.06443
256.62        83.31124
257.07        84.78697
257.53        80.69574
257.99        74.59023
258.44        68.99252
258.90         66.2183
259.35        65.29501
259.81        65.47932
260.27        65.80466
260.72        65.27855
261.18        64.08002
261.63        62.37736
262.09        60.88482
262.55        59.80234
263.00        59.00241
263.46        58.47395
263.91        57.74427
264.37        56.57537
264.83        54.96232
265.28        53.06157
265.74        51.37048
266.19        50.17924
266.65         49.5672
267.11        49.28954
267.56        49.09281
268.02         48.5886
268.47        47.68392
268.93        46.56205
269.38        45.31474
269.84        44.13679
270.30        43.08193
270.75        42.06766
271.21        41.19674
271.66        40.56868
272.12        40.17363
272.57        39.95732
273.03        39.70491
273.48        39.05753
273.94        38.01851
274.39        36.68863
274.85         35.3895
275.31        34.43104
275.76        33.84368
276.22        33.54332
276.67        33.33232
277.13        33.01752
277.58        32.50093
278.04        31.88558
278.49        31.20424
278.95        30.61513
279.40        30.10575
279.86        29.69468
280.31        29.28244
280.77        28.83495
281.22        28.31701
281.68         27.8154
282.13        27.37643
282.59        27.14246
283.04        27.08963
283.50        27.17736
283.95        27.30779
284.41         27.3387
284.86        27.23038
285.32        27.06027
285.77        26.85954
286.22        26.73302
286.68        26.70838
287.13        26.71554
287.59        26.77682
288.04        26.88344
288.50        27.03725
288.95         27.2076
289.41         27.3472
289.86        27.31698
290.32        27.14818
290.77        26.88691
291.22        26.65839
291.68        26.63277
292.13        26.84991
292.59        27.29036
293.04        27.91041
293.50        28.65236
293.95        29.47799
294.40        30.40612
294.86        31.43478
295.31        32.54722
295.77        33.74353
296.22        35.00242
296.68        36.31764
297.13        37.67428
297.58         39.0781
298.04        40.52896
298.49        42.04306
298.95        43.66542
299.40        45.37643
299.85        47.15462
300.31        48.94117
300.76        50.62589
301.21        52.20051
301.67        53.72136
302.12        55.21378
302.58        56.80383
303.03        58.47244
303.48         60.2013
303.94        61.98773
304.39        63.76466
304.84        65.53458
305.30        67.32186
305.75        69.05391
306.20        70.70601
306.66        72.28755
307.11        73.77151
307.57        75.20695
308.02        76.57073
308.47        77.88983
308.93        79.16792
309.38        80.40984
309.83        81.73106
310.29         83.1473
310.74        84.62593
311.19        86.03448
311.65        87.12994
312.10        87.84409
312.55        88.23914
313.00        88.53157
313.46        89.06471
313.91        89.88984
314.36         90.9384
314.82        91.98528
315.27        92.67574
315.72        92.91233
316.18        92.84058
316.63        92.66637
317.08        92.75349
317.53         93.1916
317.99        93.85375
318.44        94.58579
318.89        95.10741
319.35        95.33518
319.80         95.3716
320.25        95.32123
320.70        95.34821
321.16         95.5075
321.61        95.77898
322.06        96.11475
322.51        96.45172
322.97        96.74883
323.42        97.02666
323.87        97.33575
324.32        97.77498
324.78        98.31797
325.23        98.99443
325.68        99.58723
326.13        99.76145
326.59        99.46004
327.04        98.82003
327.49        98.15311
327.94        97.97985
328.39        98.42207
328.85        99.30134
329.30        100.4253
329.75        101.1988
330.20        101.4238
330.66         101.237
331.11        100.9087
331.56        100.8083
332.01        101.0627
332.46        101.5392
332.92        102.0624
333.37         102.497
333.82        102.7266
334.27        102.8553
334.72        102.9576
335.17        103.1303
335.63        103.4038
336.08        103.7852
336.53        104.2723
336.98         104.913
337.43         105.691
337.88        106.5656
338.34        107.4289
338.79        108.2119
339.24        108.8206
339.69         109.282
340.14        109.5708
340.59        109.6643
341.05        109.6261
341.50        109.4818
341.95        109.3978
342.40        109.6246
342.85        110.2082
343.30        111.0591
343.75        112.0342
344.20        112.8828
344.66        113.5084
345.11        113.9694
345.56        114.2469
346.01        114.3288
346.46        114.2639
346.91        114.0778
347.36         113.913
347.81         114.005
348.26         114.386
348.72        114.9679
349.17        115.6237
349.62        116.1776
350.07        116.5537
350.52        116.8148
350.97        116.8715
351.42        116.5924
351.87        116.0066
352.32        115.1717
352.77        114.3753
353.22        114.0383
353.67        114.2294
354.13        114.8294
354.58        115.5419
355.03        115.8192
355.48        115.5117
355.93        114.7675
356.38        113.8957
356.83        113.3698
357.28         113.282
357.73        113.4623
358.18        113.6278
358.63         113.335
359.08        112.4896
359.53        111.2737
359.98        109.9494
360.43        108.8809
360.88        108.1593
361.33        107.6712
361.78        107.2695
362.23        106.7289
362.68        105.9932
363.13        105.1489
363.58         104.292
364.03        103.5561
364.48        102.9608
364.93        102.4327
365.38        101.9011
365.83        101.2709
366.28        100.5227
366.73        99.71189
367.18         98.8618
367.63        97.99752
368.08        97.14259
368.53        96.29216
368.98        95.50677
369.43        94.87862
369.88        94.41676
370.33         94.0974
370.78         93.8145
371.23        93.39336
371.68        92.78848
372.13        92.03545
372.58        91.24982
373.03        90.62167
373.48         90.1867
373.93        89.87867
374.38        89.56504
374.83        89.04253
375.28        88.27107
375.72        87.31085
376.17        86.34577
376.62        85.53876
377.07        84.94942
377.52        84.55211
377.97        84.25507
378.42        83.92224
378.87        83.51703
379.32        83.04672
379.77        82.65709
380.22        82.56098
380.67        82.75917
381.11        83.20103
381.56        83.51662
382.01        83.18645
382.46        82.15076
382.91        80.65284
383.36        79.16047
383.81        78.31096
384.26        78.20712
384.71        78.63252
385.15        79.28273
385.60        79.62436
386.05        79.48651
386.50        79.02815
386.95        78.37758
387.40        77.73763
387.85         77.1974
388.29        76.64897
388.74        76.19569
389.19        75.79232
389.64        75.42981
390.09        75.12521
390.54        74.87769
390.98        74.65416
391.43        74.47819
391.88        74.33081
392.33        74.20006
392.78        74.02741
393.23        73.79855
393.67        73.60891
394.12        73.51204
394.57         73.1218
395.02        72.69923
395.47        72.61556
395.91        72.85047
396.36        72.78635
396.81        72.42247
397.26        72.12471
397.71        71.88939
398.15        71.62043
398.60        71.42101
399.05        71.01996
399.50        70.58475
399.95        70.88088
400.39        71.69084
400.84        71.69053
401.29        70.88136
401.74        70.39816
402.18        70.30185
402.63        69.87753
403.08        69.25857
403.53         68.9676
403.97        69.04247
404.42         69.3456
404.87        69.68405
405.32        69.74155
405.76        69.44968
406.21        68.95345
406.66        68.43011
407.11          68.203
407.55        68.37006
408.00        68.66975
408.45         68.9713
408.90        69.44322
409.34        69.81112
409.79        69.35251
410.24        68.33913
410.68        67.81597
411.13        67.88567
411.58        68.01768
412.03        68.06416
412.47         68.0064
412.92        67.77837
413.37        67.44276
413.81         67.1153
414.26        67.01711
414.71        67.15968
415.15        67.49978
415.60        67.90379
416.05        68.21236
416.49         68.3645
416.94        68.39355
417.39        68.35405
417.83        68.32082
418.28         68.3254
418.73        68.33625
419.17        68.35305
419.62        68.38333
420.07        68.41814
420.51        68.44534
420.96        68.47495
421.41        68.44942
421.85        68.34185
422.30        68.27248
422.74        68.19243
423.19        68.05496
423.64         67.8842
424.08        67.87691
424.53        68.02674
424.98        68.21594
425.42        68.44144
425.87         68.7465
426.31        69.04552
426.76        69.15148
427.21        69.04195
427.65        68.72317
428.10         68.3391
428.54        68.23633
428.99        68.49082
429.44        68.75516
429.88         69.0226
430.33         69.6283
430.77        70.28958
431.22        70.61366
431.66        70.53848
432.11        69.97344
432.56        69.19457
433.00        69.17885
433.45         70.0531
433.89        70.44503
434.34        70.41158
434.78        71.30765
435.23        71.15736
435.67        69.25807
436.12        70.20486
436.57        70.02595
437.01        70.11996
437.46         70.1758
437.90        70.28678
438.35        69.79218
438.79        70.22013
439.24        70.32853
439.68        70.52786
440.13        70.86057
440.57        71.31123
441.02        71.50086
441.46        71.43522
441.91        71.89854
442.35        72.58871
442.80        72.41891
443.24        71.59957
443.69        71.68089
444.13        72.56897
444.58        72.97993
445.02         72.8643
445.47        72.94427
445.91        73.25434
446.36        73.55157
446.80        73.81501
447.24        74.09708
447.69        74.35876
448.13         74.5191
448.58        74.58424
449.02        74.55843
449.47        74.48879
449.91        74.41794
450.36        74.39088
450.80        74.37139
451.25        74.40452
451.69        74.49785
452.13        74.65904
452.58          74.871
453.02        75.06921
453.47        75.15862
453.91        75.10929
454.36        74.95493
454.80        74.72908
455.24        74.46143
455.69        74.18822
456.13        73.95538
456.58        73.81607
457.02        73.49321
457.46        73.13331
457.91        73.29392
458.35        73.72353
458.79        73.60374
459.24        72.96813
459.68        72.13558
460.13        71.38184
460.57         71.1498
461.01        71.60132
461.46        71.63275
461.90        72.06685
462.34        73.37457
462.79         72.9316
463.23        73.12791
463.68        73.04604
464.12         72.6949
464.56        72.08968
465.01        71.26744
465.45        70.44241
465.89        70.28768
466.34        70.68101
466.78        70.94162
467.22        70.97261
467.67        70.83953
468.11        70.67402
468.55        70.81426
468.99        71.17896
469.44        71.20427
469.88        70.87673
470.32        70.55633
470.77         70.3399
471.21        70.20572
471.65        70.16881
472.10        70.24257
472.54        70.35073
472.98        70.34003
473.42        70.17014
473.87        70.02586
474.31        69.87282
474.75        69.44054
475.20        68.91063
475.64        68.89544
476.08        69.32189
476.52        69.42103
476.97        69.13026
477.41         69.0048
477.85        69.18822
478.29        68.72585
478.74        69.31731
479.18        69.39333
479.62        69.42728
480.06        69.41264
480.50        69.31886
480.95        69.25083
481.39        69.25036
481.83        68.92793
482.27         68.7005
482.72        69.38937
483.16        68.96528
483.60        68.95905
484.04        68.90623
484.48        69.17105
484.93        69.50401
485.37        68.85307
485.81        68.34527
486.25        67.73822
486.69        66.91705
487.14        69.13197
487.58        69.76855
488.02        69.19238
488.46        68.06377
488.90        68.63369
489.34        69.48489
489.79        70.28298
490.23        69.68845
490.67        69.20372
491.11        68.82915
491.55        68.70931
491.99        68.83289
492.43        68.71928
492.88        68.36356
493.32        68.34847
493.76        68.34244
494.20        68.47276
494.64        68.61261
495.08        68.85935
495.52        69.09911
495.96        69.10791
496.41        68.91241
496.85        68.65749
497.29        68.36147
497.73         68.5438
498.17        68.28433
498.61        68.22887
499.05        68.12486
499.49        68.21789
499.93        68.25789
500.37        68.47652
500.82        68.74524
501.26        68.69308
501.70        68.72474
502.14        68.58259
502.58        68.48047
503.02        68.48355
503.46        68.61564
503.90        68.88272
504.34        69.16149
504.78        69.19283
505.22        68.93689
505.66        68.61617
506.10        68.36948
506.54        68.14086
506.98         67.9356
507.42        68.51983
507.86         68.4858
508.30        68.69619
508.74        68.79107
509.18        68.78307
509.62        68.71608
510.06        68.64439
510.50        68.60095
510.94        68.55013
511.38        68.49744
511.82        68.45848
512.26        68.43614
512.70        68.43626
513.14        68.45236
513.58        68.46738
514.02        68.47656
514.46        68.48042
514.90        68.48682
515.34         68.5104
515.78        68.55035
516.22         68.5976
516.66        68.63432
517.10        68.63335
517.54        68.59175
517.98        68.52396
518.42        68.44695
518.86        68.38799
519.30        68.35611
519.74         68.3404
520.18        68.34701
520.62        68.38257
521.06        68.44595
521.50        68.54305
521.93        68.64245
522.37        68.67075
522.81         68.6255
523.25        68.51736
523.69        68.41465
524.13        68.42827
524.57         68.5685
525.01        68.78983
525.45        68.99679
525.89        69.03383
526.32        68.86447
526.76        68.57277
527.20        68.23261
527.64         67.9652
528.08        67.81307
528.52        67.73425
528.96        67.73925
529.40        67.84375
529.83        68.02558
530.27        68.28445
530.71         68.5211
531.15        68.58163
531.59        68.43986
532.03        68.13739
532.46        67.77898
532.90        67.58376
533.34        67.58955
533.78        67.69701
534.22        67.82292
534.66        67.91975
535.09        67.90516
535.53        67.66877
535.97        67.29313
536.41        67.08054
536.85        67.07137
537.28        67.11316
537.72        67.18641
538.16        67.31409
538.60        67.47117
539.04        67.65275
539.47        67.79688
539.91         67.8417
540.35        67.77013
540.79        67.62547
541.22        67.45819
541.66        67.35882
542.10        67.34664
542.54        67.40237
542.97        67.48567
543.41        67.55779
543.85        67.59127
544.29        67.60812
544.72        67.59351
545.16        67.56259
545.60        67.50902
546.04        67.44181
546.47        67.39004
546.91        67.38994
547.35        67.45011
547.79        67.57262
548.22        67.71485
548.66        67.79176
549.10        67.85083
549.53        67.85275
549.97        67.82265
550.41         67.6702
550.84        67.46491
551.28        67.43138
551.72         67.5299
552.15        67.53963
552.59         67.4902
553.03        67.23911
553.46        67.51888
553.90        67.38519
554.34        67.47286
554.77        67.50014
555.21        67.61999
555.65        67.56292
556.08        67.73386
556.52        67.74884
556.96        67.70462
557.39          67.738
557.83         67.7983
558.27        67.50049
558.70        66.96254
559.14        66.78561
559.57         66.9585
560.01        67.11623
560.45        67.19463
560.88        67.28402
561.32        67.38757
561.75        67.46069
562.19        67.52275
562.63        67.45065
563.06         67.2979
563.50        67.38003
563.93         67.5935
564.37        67.56392
564.80        67.52943
565.24        67.32588
565.68        66.92108
566.11          67.549
566.55        66.80134
566.98        66.63309
567.42        66.47476
567.85        66.63127
568.29        67.05534
568.72        67.42799
569.16        67.74494
569.60        67.83151
570.03        67.90057
570.47        67.88763
570.90        67.95378
571.34        67.33222
571.77        67.59119
572.21         67.8989
572.64        67.71416
573.08        67.84451
573.51        67.68666
573.95        67.41462
574.38        67.14792
574.82        67.73466
575.25        67.00499
575.69        67.33035
576.12        67.35958
576.56        66.76611
576.99        66.84757
577.42        66.96526
577.86        67.27685
578.29        67.38504
578.73        67.62378
579.16        67.71995
579.60        67.32152
580.03        67.49003
580.47        67.11827
580.90        67.69304
581.33        67.48975
581.77        67.51505
582.20        66.71804
582.64         67.5805
583.07        67.47987
583.51         67.6455
583.94        67.54074
584.37        67.57903
584.81        67.78394
585.24        67.60148
585.68        67.21355
586.11        66.97665
586.54        67.39475
586.98        66.71014
587.41        66.43713
587.85        66.44869
588.28        66.71717
588.71        67.04847
589.15        66.46191
589.58        67.17968
590.01        66.92792
590.45        66.85929
590.88        67.71526
591.31         67.5562
591.75        66.98007
592.18        66.44868
592.61        66.13664
593.05        67.07259
593.48        67.50567
593.91        67.26941
594.35        67.35004
594.78        66.72275
595.21        66.37885
595.65        66.62196
596.08        67.69539
596.51        67.49223
596.94        67.28163
597.38        67.04346
597.81        67.14906
598.24        67.62521
598.68        67.24551
599.11        67.03299
599.54        67.55013
599.97        67.12611
600.41        67.14539
600.84        66.66503
601.27        67.01219
601.70        66.90781
602.14        67.18325
602.57        66.88595
603.00        66.91814
603.43        66.28616
603.87        67.19425
604.30        67.43745
604.73        67.40709
605.16        66.79916
605.60        66.76453
606.03        66.42884
606.46        66.12003
606.89        66.48988
607.32        67.15788
607.76        66.46172
608.19        67.08727
608.62        66.83063
609.05        66.66404
609.48        66.62474
609.92        67.58532
610.35        67.23427
610.78        66.40301
611.21        66.57346
611.64        66.59344
612.07        66.94242
612.50         66.8288
612.94        66.90363
613.37        67.01949
613.80        66.87611
614.23        66.60699
614.66        66.37522
615.09        66.75187
615.52        66.86829
615.96        66.82642
616.39        66.84064
616.82        66.92558
617.25        66.65398
617.68        66.48602
618.11        66.58251
618.54        66.97173
618.97        67.06184
619.40        66.85233
619.84        66.70275
620.27        66.74577
620.70        66.72302
621.13        66.63439
621.56         66.2943
621.99        65.79459
622.42        65.67429
622.85        65.97221
623.28        65.78658
623.71        66.08012
624.14        66.03935
624.57        66.36608
625.00        66.23869
625.43         66.3138
625.86        66.16373
626.29        66.01212
626.72        65.83806
627.15        65.95231
627.58         66.0929
628.01         66.2557
628.44         66.2981
628.87        66.20383
629.30        66.02077
629.73        65.84327
630.16        65.86759
630.59        66.08667
631.02        66.29517
631.45        66.43649
631.88        66.56065
632.31         66.6368
632.74        66.60339
633.17        66.48141
633.60        66.31771
634.03        66.12953
634.46        65.96861
634.89        65.87996
635.32        65.58456
635.75        65.68256
636.18        65.62563
636.61        65.59548
637.04        65.62489
637.47         65.7107
637.89         65.8232
638.32        65.89991
638.75        65.92287
639.18        65.88083
639.61        65.77736
640.04        65.65937
640.47         65.6038
640.90        65.62878
641.33        65.71969
641.76        65.82395
642.18        65.86007
642.61        65.78844
643.04        65.64301
643.47        65.49228
643.90        65.44447
644.33         65.5179
644.76        65.68351
645.18        65.86434
645.61        65.89511
646.04        65.75072
646.47        65.57642
646.90         65.3063
647.33         65.1861
647.75         65.1788
648.18        65.30578
648.61        65.55472
649.04        65.64702
649.47         65.4894
649.89        66.17645
650.32        65.91643
650.75        65.83522
651.18        65.52247
651.61        65.53957
652.03        65.85757
652.46        65.95045
652.89         65.8176
653.32        65.78972
653.74        65.84913
654.17        65.78429
654.60        65.83163
655.03        65.69756
655.46        65.08303
655.88        64.84559
656.31         65.3505
656.74        63.47835
657.16         66.8456
657.59        71.34332
658.02        66.77155
658.45        66.72725
658.87          65.884
659.30        66.07943
659.73        65.86105
660.15        66.77836
660.58        65.97327
661.01        65.79634
661.44        65.62603
661.86        65.43182
662.29        65.18869
662.72        65.63271
663.14        65.46248
663.57         65.3819
664.00        65.13309
664.42        65.16606
664.85        65.49932
665.27        65.88781
665.70        66.17662
666.13         66.2891
666.55        66.19546
666.98        65.85107
667.41        65.35917
667.83        65.32016
668.26        65.10236
668.69        65.19408
669.11        65.35737
669.54        65.51177
669.96        65.62352
670.39        65.77925
670.82          65.937
671.24        65.85964
671.67        65.62408
672.09        65.50505
672.52        65.61864
672.94        65.67094
673.37        65.63954
673.80        65.48968
674.22        65.28611
674.65        65.21304
675.07        65.30525
675.50        65.41969
675.92        65.51279
676.35        65.56711
676.77        65.56532
677.20        65.50595
677.62        65.41744
678.05        65.35021
678.47        65.31714
678.90        65.31024
679.32        65.31316
679.75        65.31226
680.17        65.29794
680.60        65.28122
681.02        65.27238
681.45        65.27758
681.87        65.30951
682.30        65.35562
682.72        65.41536
683.15        65.44169
683.57        65.44534
684.00        65.43528
684.42        65.43695
684.85         65.4865
685.27        65.57791
685.70        65.70875
686.12        65.82614
686.54        65.86316
686.97        65.80364
687.39         65.6776
687.82        65.52257
688.24        65.41987
688.66        65.39034
689.09        65.41045
689.51        65.47175
689.94        65.53041
690.36        65.57758
690.78         65.6029
691.21        65.62179
691.63        65.66148
692.06        65.72279
692.48        65.78537
692.90        65.80671
693.33        65.75218
693.75        65.61468
694.17        65.36602
694.60        65.12924
695.02        65.11076
695.44        65.31085
695.87        65.70166
696.29        66.10757
696.71        65.97913
697.14        65.42195
697.56        65.16292
697.98        65.26189
698.41          65.338
698.83        65.20114
699.25        65.37002
699.68        65.67605
700.10        65.80811
700.52         65.6991
700.94        65.45831
701.37        65.21036
701.79        65.15479
702.21        65.33043
702.64        65.65016
703.06        66.00648
703.48        66.21299
703.90        66.21449
704.33        66.06945
704.75        65.84969
705.17        65.66135
705.59        65.55089
706.01        65.48883
706.44        65.46651
706.86        65.49781
707.28        65.56602
707.70        65.65108
708.12        65.75215
708.55        65.89842
708.97        66.05547
709.39        66.09382
709.81        66.01836
710.23        65.97793
710.66         65.9829
711.08        65.95867
711.50        65.89924
711.92        65.85381
712.34        65.82972
712.76        65.82908
713.19        65.82352
713.61         65.8007
714.03        65.74937
714.45        65.68757
714.87         65.6709
715.29        65.78622
715.71         66.0364
716.13        66.37084
716.56        66.69738
716.98        66.94967
717.40        67.05206
717.82        67.03663
718.24        66.89767
718.66        66.63026
719.08        66.27564
719.50        65.86814
719.92        65.51488
720.34        65.37498
720.76         65.4763
721.19         65.7496
721.61        66.14239
722.03        66.50706
722.45        66.77245
722.87        66.95747
723.29        67.02067
723.71        66.90712
724.13        66.63042
724.55        66.22118
724.97        65.79269
725.39        65.51088
725.81        65.42486
726.23         65.5309
726.65        65.77988
727.07         65.9356
727.49        66.18168
727.91         66.3559
728.33        66.52702
728.75        66.69361
729.17        66.84977
729.59        66.96682
730.01        67.02411
730.43        67.01303
730.85        66.93221
731.27        66.79035
731.69         66.6144
732.10        66.43976
732.52        66.28246
732.94         66.1621
733.36        66.09045
733.78         65.9521
734.20        65.73508
734.62         65.7089
735.04        65.98179
735.46         65.4938
735.88         66.1889
736.30        66.45868
736.72        66.81774
737.13        67.09665
737.55        67.20778
737.97          67.327
738.39        67.38669
738.81        67.02103
739.23        66.39518
739.65        66.29488
740.06        66.67965
740.48        66.89433
740.90        66.89039
741.32        67.07858
741.74        67.42783
742.16        67.65412
742.57        67.72007
742.99        67.68294
743.41         67.5685
743.83        67.40552
744.25        67.21823
744.67        66.98888
745.08        66.79144
745.50        66.72189
745.92        66.80515
746.34        67.01644
746.75         67.2484
747.17        67.30836
747.59        67.15956
748.01        66.85361
748.42        66.51212
748.84        66.33229
749.26         66.3612
749.68        66.53849
750.09        66.75417
750.51         66.8284
750.93        66.72215
751.35         66.5248
751.76        66.30183
752.18        66.14258
752.60        66.06773
753.01        66.08134
753.43        66.14222
753.85        66.15738
754.27        66.10244
754.68        66.22192
755.10        66.14951
755.52        66.19776
755.93        66.24752
756.35        66.28422
756.77          66.344
757.18        66.40314
757.60        66.46883
758.02        66.70625
758.43        67.04089
758.85         66.6002
759.26        66.86685
759.68          66.257
760.10        66.01205
760.51        66.28015
760.93        67.11554
761.34         66.9608
761.76        66.70696
762.18        66.71542
762.59        67.26102
763.01        67.55582
763.42        67.55762
763.84        67.53396
764.26         67.4793
764.67        67.13716
765.09        66.67866
765.50        66.46555
765.92        66.52679
766.33        66.53648
766.75        66.43503
767.16        66.48118
767.58        66.61108
768.00        66.70395
768.41        66.76767
768.83        66.79869
769.24          66.782
769.66        66.82704
770.07        66.89385
770.49        66.63478
770.90        66.22908
771.32         66.5293
771.73        67.39294
772.15        67.74357
772.56        67.51472
772.97        67.24728
773.39        67.08459
773.80        67.04442
774.22        67.15109
774.63        67.43434
775.05        67.73907
775.46        67.89317
775.88        67.81877
776.29        67.59483
776.70        67.33079
777.12        67.22742
777.53        67.34124
777.95        67.56526
778.36        67.81985
778.77        67.93465
779.19        67.88403
779.60        67.75144
780.02         67.5548
780.43        67.40262
780.84        67.35078
781.26        67.07061
781.67        66.73036
782.09        67.24863
782.50        68.33183
782.91        68.40923
783.33        67.54675
783.74        67.23698
784.15        67.54307
784.57        67.58375
784.98        67.38729
785.39        67.40589
785.81        67.65074
786.22        67.99548
786.63        68.34517
787.04        68.54712
787.46        68.57753
787.87        68.47124
788.28        68.31293
788.70        68.21179
789.11        68.17826
789.52        68.20372
789.93        68.25923
790.35        68.28933
790.76        68.28958
791.17        68.27113
791.58        68.25181
792.00         68.2154
792.41        68.17977
792.82        68.20799
793.23        68.27121
793.65        68.16004
794.06        67.96123
794.47         68.0773
794.88         68.4363
795.29        68.60055
795.71        68.51469
796.12        68.45035
796.53         68.4537
796.94        68.49651
797.35        68.59092
797.76        68.74607
798.18        68.89836
798.59        68.99717
799.00        69.00254
799.41        68.92522
799.82        68.82312
800.23        68.79744
800.64        68.86469
801.06        68.96623
801.47         69.0669
801.88        69.01428
802.29         68.7802
802.70        68.41959
803.11        68.03214
803.52        67.77579
803.93         67.7141
804.34        67.81377
804.75        68.02405
805.17        68.29521
805.58        68.62897
805.99        68.84017
806.40         68.9516
806.81        69.41151
807.22        70.01794
807.63        69.82274
808.04        68.97048
808.45         68.5215
808.86        68.58148
809.27         68.6152
809.68        68.54034
810.09          68.476
810.50        68.40759
810.91        68.30206
811.32        68.27757
811.73        68.52067
812.14        69.04536
812.55        69.78451
812.96        70.50211
813.37        70.76078
813.78        70.44775
814.19         69.7278
814.60        68.86388
815.01        68.21143
815.42        67.86225
815.83        67.72211
816.24        67.74537
816.65        67.83744
817.05        67.95721
817.46        68.12533
817.87        68.31953
818.28        68.44508
818.69        68.48633
819.10        68.42935
819.51        68.36904
819.92        68.49656
820.33        68.83949
820.74        69.32615
821.14        69.79472
821.55        69.98162
821.96        69.83275
822.37        69.43774
822.78        68.94113
823.19        68.58885
823.60        68.46947
824.00        68.54173
824.41        68.70227
824.82         68.8746
825.23        69.00475
825.64        69.12183
826.04        69.21877
826.45        69.23768
826.86        69.18942
827.27        69.08801
827.68        68.95052
828.08        68.84676
828.49        68.74809
828.90         68.6496
829.31         68.6105
829.72        68.72186
830.12        69.01174
830.53         69.4108
830.94        69.75307
831.35        69.70734
831.75        69.23071
832.16        68.40497
832.57        67.54555
832.97          67.134
833.38        67.27603
833.79        67.80043
834.20         68.4648
834.60        68.87827
835.01        68.93347
835.42        68.79918
835.82        68.56059
836.23        68.28989
836.64        68.08038
837.04        67.85856
837.45        67.79019
837.86        68.21444
838.26        69.17863
838.67        70.55474
839.08        71.88944
839.48        72.31717
839.89        71.63457
840.29        70.14614
840.70        68.55358
841.11        67.69692
841.51        67.78142
841.92        68.53656
842.33        69.64452
842.73        70.52122
843.14        70.83409
843.54        70.81383
843.95        70.59304
844.35        70.43935
844.76         70.4184
845.17        70.41385
845.57        70.38498
845.98        70.26114
846.38        70.05131
846.79        69.81432
847.19        69.57845
847.60        69.34141
848.00        69.13142
848.41         68.9193
848.81        68.79047
849.22        68.80779
849.62        69.01201
850.03        69.35836
850.43        69.73991
850.84        69.91684
851.24        69.87605
851.65        69.61012
852.05        69.33427
852.46        69.32249
852.86        69.63923
853.27        70.17636
853.67        70.66679
854.07        70.86036
854.48        70.68251
854.88         70.2474
855.29        69.65394
855.69        69.21477
856.10        68.97626
856.50        68.93943
856.90        68.99582
857.31        68.98317
857.71        68.90325
858.12        68.74059
858.52        68.61242
858.92        68.59135
859.33        68.67599
859.73        68.87708
860.13        69.04345
860.54        68.95656
860.94        68.62262
861.34        68.09952
861.75        67.58285
862.15        67.43497
862.55        67.71358
862.96        68.27024
863.36         68.9437
863.76        69.36878
864.17        69.41208
864.57        69.21012
864.97        68.80445
865.38        68.27257
865.78        67.70436
866.18        67.07507
866.58        66.52396
866.99        66.30298
867.39         66.4888
867.79        67.01007
868.19        67.67941
868.60         68.1694
869.00        68.41796
869.40        68.47269
869.80        68.41481
870.21        68.41478
870.61        68.58188
871.01        68.79245
871.41         68.9399
871.81        68.88673
872.22        68.60671
872.62        68.15514
873.02        67.66411
873.42        67.34354
873.82        67.25437
874.22        67.33498
874.63        67.45349
875.03        67.41425
875.43        67.16163
875.83         66.7808
876.23          66.381
876.63        66.12575
877.03         66.0643
877.44        66.10902
877.84        66.24489
878.24        66.46295
878.64        66.68103
879.04        66.75558
879.44        66.72337
879.84        66.74844
880.24        66.83206
880.64        66.89636
881.04        66.82998
881.44         66.4957
881.84        65.89537
882.24         65.1017
882.65        64.35332
883.05        64.00136
883.45        64.13012
883.85        64.66234
884.25        65.36237
884.65        65.81451
885.05        65.89748
885.45        65.71437
885.85        65.48413
886.25        65.55643
886.65        65.99619
887.05        66.66546
887.45        67.33766
887.85        67.64867
888.25        67.49876
888.65        67.01818
889.04        66.39149
889.44        65.92685
889.84        65.70484
890.24        65.64323
890.64        65.66415
891.04        65.63977
891.44        65.53649
891.84        65.42593
892.24        65.34286
892.64        65.31731
893.04        65.37219
893.44        65.49957
893.83        65.72467
894.23        66.04462
894.63        66.45729
895.03         66.9112
895.43        67.38289
895.83         67.8473
896.23          68.251
896.63        68.55917
897.02        68.64951
897.42        68.36652
897.82        67.72189
898.22        66.84547
898.62        65.90609
899.01        65.13553
899.41        64.63354
899.81        64.32991
900.21        64.26723
900.61        64.49644
901.00        64.97588
901.40        65.67082
901.80        66.34734
902.20        66.62784
902.59        66.44441
902.99        65.88188
903.39        65.19848
903.79        64.83823
904.18         64.9057
904.58        65.26294
904.98        65.74361
905.38         66.0969
905.77        66.25043
906.17         66.3195
906.57        66.29283
906.96        66.14685
907.36        65.89918
907.76        65.55839
908.15        65.31969
908.55        65.48068
908.95        66.08547
909.34        67.04263
909.74        68.02509
910.14        68.57593
910.53        68.53551
910.93        68.05055
911.33        67.30271
911.72        66.57297
912.12        66.03928
912.52         65.6489
912.91        65.37814
913.31        65.20184
913.70        65.11263
914.10        65.10836
914.49         65.2942
914.89        65.74133
915.29        66.44596
915.68        67.34706
916.08         68.1498
916.47        68.45265
916.87        68.18087
917.26        67.43517
917.66        66.58868
918.05        66.06477
918.45        65.98987
918.84        66.31851
919.24        66.79234
919.64        67.08676
920.03        67.10797
920.42        66.89342
920.82        66.74174
921.21        67.06303
921.61        67.89423
922.00        69.13017
922.40        70.25722
922.79        70.53777
923.19        69.78492
923.58        68.30928
923.98        66.70746
924.37        65.77368
924.77        65.70557
925.16        66.22663
925.55        67.02885
925.95         67.5457
926.34        67.59368
926.74        67.34642
927.13        66.88618
927.52        66.26711
927.92        65.61861
928.31        64.90578
928.70        64.31583
929.10        64.12978
929.49        64.37012
929.89        64.90573
930.28        65.66148
930.67        66.36216
931.07        66.85895
931.46        67.29366
931.85        67.46311
932.24        67.11275
932.64        66.30473
933.03        65.09322
933.42        64.01926
933.82        63.87425
934.21        64.78482
934.60        66.57716
934.99        68.60489
935.39        69.67226
935.78        69.47552
936.17        68.26469
936.56        66.70056
936.96        65.84418
937.35        65.97406
937.74        66.76326
938.13        67.70171
938.53        68.00462
938.92        67.48495
939.31        66.46606
939.70        65.35063
940.09        64.67884
940.49        64.56244
940.88        64.84716
941.27        65.34829
941.66        65.74235
942.05        65.91029
942.44        65.97952
942.84        66.03452
943.23        66.17882
943.62        66.45103
944.01        66.75837
944.40        67.09514
944.79        67.49369
945.18        67.90925
945.57         68.2963
945.97        68.48776
946.36          68.312
946.75        67.71572
947.14        66.85218
947.53        65.86741
947.92        64.94348
948.31        64.16942
948.70        63.51708
949.09         63.1331
949.48        63.25054
949.87        63.88888
950.26        64.97334
950.65        66.18129
951.04        66.97359
951.43        67.17387
951.82        66.86072
952.21        66.30052
952.60        65.96268
952.99        65.99457
953.38        66.30693
953.77        66.65074
954.16         66.6353
954.55        66.17648
954.94        65.36516
955.33        64.59491
955.72        64.52997
956.11        65.31176
956.50        66.75028
956.89        68.17434
957.28        68.45528
957.66        67.35604
958.05        65.32548
958.44        63.17005
958.83        62.04366
959.22        62.18155
959.61        63.22215
960.00        64.64948
960.39         65.4976
960.78        65.42588
961.16        64.76724
961.55        63.87089
961.94         63.1454
962.33        62.74683
962.72        62.53591
963.11        62.53304
963.49        62.84264
963.88        63.36473
964.27        64.06061
964.66        64.83994
965.04        65.60442
965.43         66.2522
965.82        66.81956
966.21        67.07484
966.60        66.64141
966.98        65.50675
967.37        63.94016
967.76        62.45766
968.15        61.68209
968.53        61.72655
968.92        62.45188
969.31        63.54713
969.69        64.34779
970.08        64.51575
970.47        64.23226
970.86        63.84362
971.24        63.87559
971.63        64.43755
972.02        65.34795
972.40        66.28414
972.79        66.40491
973.17        65.58731
973.56        64.19158
973.95        62.72934
974.33         61.8105
974.72        61.57268
975.11        61.80509
975.49        62.38301
975.88        62.98658
976.26        63.49624
976.65        63.94435
977.04        64.24117
977.42        64.22305
977.81        63.84872
978.19        63.11929
978.58        62.36714
978.96          62.112
979.35        62.45235
979.74        63.30449
980.12        64.34811
980.51        64.75978
980.89         64.4584
981.28        63.66488
981.66          62.862
982.05        62.71726
982.43        63.38544
982.82         64.6352
983.20        66.23586
983.59        67.63148
983.97        68.64306
984.35        69.36362
984.74        69.69711
985.12         69.7614
985.51        69.55594
985.89        69.05707
986.28         68.5213
986.66         68.2722
987.04        68.44062
987.43        68.94267
987.81        69.55828
988.20        69.70945
988.58        69.25708
988.96        68.27859
989.35         67.1319
989.73        66.31001
990.12         65.9092
990.50        65.87877
990.88        65.81528
991.27         65.0552
991.65        63.54871
992.03         61.5898
992.42        59.95203
992.80          59.654
993.18        60.87912
993.56          63.367
993.95        66.23038
994.33        67.90594
994.71        67.72299
995.10        66.20552
995.48        64.26898
995.86        63.38625
996.24        63.90647
996.63        65.26616
997.01        67.05346
997.39        68.06815
997.77        67.83705
998.15        66.94596
998.54        65.63054
998.92        64.03986
999.30        62.47095
999.68        60.87973
1000.06        59.92578
1000.45        60.58215
1000.83        63.05088
1001.21        67.16604
1001.59        71.98878
1001.97        75.08447
1002.35        75.43427
1002.73        73.74416
1003.12        71.20265
1003.50        69.30452
1003.88        68.57475
1004.26         68.4127
1004.64        68.98278
1005.02        70.52995
1005.40        72.85918
1005.78        76.06412
1006.16        78.76763
1006.54        78.76546
1006.92        75.89387
1007.30        70.88227
1007.69        65.84824
1008.07        63.71921
1008.45        65.28655
1008.83        69.92452
1009.21        75.98043
1009.59        79.35664
1009.97        78.21128
1010.35        73.87254
1010.73        68.28461
1011.11        64.18377
1011.49        62.32521
1011.86        61.78628
1012.24        62.11564
1012.62        62.76875
1013.00        63.52004
1013.38        64.68658
1013.76        66.08545
1014.14        67.01746
1014.52        67.16352
1014.90        66.54198
1015.28         65.5817
1015.66         65.0435
1016.04         65.1001
1016.41        65.55776
1016.79        66.21914
1017.17        66.74938
1017.55        66.98975
1017.93        67.06969
1018.31        67.00297
1018.69        66.76791
1019.06        66.39074
1019.44         65.8071
1019.82        65.05614
1020.20        64.37472
1020.58        63.84471
1020.95         63.2999
1021.33        62.85455
1021.71         62.4056
1022.09        61.94018
1022.46        61.76424
1022.84        61.37687
1023.22        59.90867
1023.60        57.42393
1023.97        54.14706
1024.35        52.02609
1024.73        53.30524
