SpectraSmart Spectrum 2.9.0.0
--------- Device Information -----------
Spectrum Name :  反射率_0
Saving Time :  2024/04/26 23:53:05
Spectro-Module Model Name : SE2030-DUVN
Spectro-Module Serial Number : OS361AC55029948
Wavelength Start : 200
Wavelength End : 1025
Wavelength Unit : Wavelength(nm)
Spectrum Unit : Reflectance(%)
-----------Spectrum Setting ------------
Integration Time : 20ms
Average : 10
Boxcar : 0
Background removal :  enabled
linearity correction :  enabled
SC :  disabled
Intensity correction :  disabled
DWT denoise :  enabled
savitzky-golay :  disabled
FFT :  disabled
Running average :  disabled
Kalman :  disabled
High pass :  disabled
---------------BEGIN--------------------
Wavelength(nm)             Reflectance(%)
200.29               0
200.75          50.478
201.21        47.08749
201.67        43.94651
202.13        41.91879
202.58        40.85817
203.04        40.81988
203.50        41.30389
203.96         40.8598
204.42        38.78503
204.88        35.19262
205.34        32.08421
205.80        32.92671
206.26        37.58156
206.72        43.79538
207.18        48.57484
207.64        49.44305
208.10        46.33323
208.55         39.7114
209.01          29.326
209.47        21.78486
209.93        22.35892
210.39        27.14386
210.85        32.64173
211.31        38.17354
211.77        45.46185
212.23        59.51459
212.69        91.62703
213.14        139.4558
213.60        126.4508
214.06        84.18837
214.52        58.11364
214.98        46.70763
215.44        41.80107
215.90        39.12133
216.36        38.45605
216.81        40.15347
217.27        44.64993
217.73        53.76653
218.19        65.33289
218.65        66.85899
219.11        55.79213
219.57        41.44944
220.02        32.03778
220.48        30.89853
220.94        37.04012
221.40         50.9934
221.86         72.6647
222.32        88.87618
222.77        86.65582
223.23        73.78545
223.69        60.06516
224.15        51.41175
224.61        47.13083
225.06        44.72887
225.52        43.25317
225.98        41.60033
226.44        39.59754
226.90        37.71045
227.36        36.25481
227.81        35.71284
228.27        36.17804
228.73        37.06219
229.19        38.13756
229.65        39.26027
230.10        40.31989
230.56        41.41758
231.02        42.01263
231.48        41.29184
231.93        39.30864
232.39         36.7072
232.85        34.40977
233.31        33.65007
233.77        34.48222
234.22        36.50488
234.68        38.90715
235.14         40.4925
235.60        40.92616
236.05        40.60508
236.51        39.91775
236.97        39.67788
237.43        40.28419
237.88        41.48439
238.34        43.29795
238.80        46.10688
239.26        50.19089
239.71        56.30578
240.17        64.00681
240.63        71.38267
241.08        76.90401
241.54         79.5251
242.00        80.98458
242.46        86.12124
242.91        98.73688
243.37        120.9769
243.83        153.9575
244.28        183.8181
244.74        188.3161
245.20        166.1019
245.66        136.2693
246.11         116.638
246.57        108.2671
247.03        106.1561
247.48        104.5355
247.94         95.8429
248.40        82.68982
248.85        70.39898
249.31        61.94939
249.77        57.94485
250.22        57.22572
250.68        58.78108
251.14        61.78159
251.59        63.54682
252.05        62.96837
252.51        61.82683
252.96        60.38681
253.42        59.20681
253.88        58.49987
254.33        57.62694
254.79        58.57633
255.25        63.02321
255.70        70.39708
256.16        79.80987
256.62        87.51442
257.07        87.83649
257.53        82.52972
257.99        75.35579
258.44         69.2163
258.90        66.68028
259.35        66.57839
259.81        67.94976
260.27        69.38992
260.72        69.31523
261.18        67.91723
261.63        65.63819
262.09         63.5816
262.55        62.31949
263.00         61.7174
263.46        61.61475
263.91        61.28703
264.37        60.19943
264.83        58.33748
265.28        55.99247
265.74        53.90311
266.19         52.6502
266.65        52.32667
267.11        52.55441
267.56        52.84961
268.02        52.46013
268.47        51.22096
268.93        49.47177
269.38        47.49969
269.84        45.79403
270.30        44.49634
270.75        43.42742
271.21        42.63929
271.66        42.15493
272.12        41.91359
272.57        41.87683
273.03         41.7675
273.48        41.11657
273.94        39.92274
274.39        38.33271
274.85        36.74362
275.31         35.5718
275.76        34.87955
276.22        34.55316
276.67        34.39832
277.13        34.23009
277.58        33.92282
278.04        33.55543
278.49        33.09484
278.95        32.60559
279.40        32.05755
279.86        31.51044
280.31        30.89349
280.77        30.22604
281.22        29.49712
281.68        28.78552
282.13        28.17543
282.59        27.86015
283.04        27.81596
283.50        27.99968
283.95        28.24288
284.41        28.28395
284.86        28.07085
285.32        27.72618
285.77        27.38341
286.22        27.29869
286.68        27.51151
287.13        27.87868
287.59        28.32284
288.04        28.68169
288.50        28.91714
288.95        29.05398
289.41        29.08605
289.86        28.92998
290.32        28.65135
290.77        28.28433
291.22         27.9897
291.68        27.99119
292.13        28.33216
292.59        28.98173
293.04        29.84716
293.50        30.78591
293.95        31.73613
294.40         32.7367
294.86        33.81499
295.31        35.00635
295.77        36.32159
296.22        37.71035
296.68        39.15473
297.13        40.62289
297.58        42.11536
298.04        43.64977
298.49        45.22563
298.95        46.85779
299.40        48.53451
299.85         50.2525
300.31        52.01264
300.76        53.79517
301.21        55.59925
301.67         57.4371
302.12        59.26869
302.58        61.12388
303.03         62.9549
303.48        64.78396
303.94        66.61873
304.39        68.40359
304.84        70.16312
305.30        71.91772
305.75        73.65549
306.20        75.45034
306.66        77.31829
307.11        79.19675
307.57        81.03228
308.02        82.63449
308.47        84.00159
308.93        85.18758
309.38         86.2968
309.83        87.60877
310.29        89.17261
310.74         90.8988
311.19        92.56984
311.65        93.80239
312.10        94.49631
312.55        94.77671
313.00        94.92482
313.46        95.37576
313.91        96.20954
314.36        97.32579
314.82        98.49621
315.27        99.36369
315.72        99.81155
316.18        99.98308
316.63        100.0341
317.08        100.2541
317.53        100.7206
317.99        101.3244
318.44        101.9615
318.89        102.4394
319.35        102.6973
319.80        102.8092
320.25        102.8512
320.70         102.939
321.16        103.1123
321.61        103.3786
322.06        103.6842
322.51        103.9547
322.97        104.1556
323.42        104.3085
323.87        104.5146
324.32        104.9581
324.78        105.6245
325.23        106.5279
325.68        107.3666
326.13        107.6576
326.59        107.3032
327.04        106.4812
327.49        105.5954
327.94        105.3162
328.39        105.8036
328.85        106.8371
329.30        108.1561
329.75        109.0221
330.20        109.1964
330.66        108.8636
331.11        108.3731
331.56        108.2145
332.01        108.5427
332.46        109.1704
332.92        109.8685
333.37        110.4235
333.82         110.681
334.27         110.784
334.72        110.7923
335.17        110.7742
335.63        110.7805
336.08        110.8413
336.53        111.0611
336.98         111.666
337.43        112.6756
337.88        113.9936
338.34        115.3862
338.79        116.5721
339.24        117.3662
339.69        117.8285
340.14        117.9756
340.59        117.8712
341.05        117.6223
341.50         117.243
341.95           116.9
342.40        116.8421
342.85        117.1322
343.30        117.7115
343.75        118.4932
344.20        119.3034
344.66        120.0548
345.11        120.7674
345.56        121.3473
346.01        121.6684
346.46        121.7346
346.91        121.5838
347.36        121.3764
347.81        121.3863
348.26        121.6613
348.72        122.1053
349.17         122.591
349.62        122.9456
350.07        123.1066
350.52        123.1593
350.97        123.0392
351.42        122.6477
351.87         122.019
352.32         121.191
352.77         120.439
353.22        120.1654
353.67        120.4226
354.13        121.0915
354.58        121.8339
355.03        122.0352
355.48         121.542
355.93        120.5272
356.38        119.3801
356.83        118.6947
357.28        118.5853
357.73        118.8457
358.18         119.121
358.63        118.8468
359.08        117.8939
359.53        116.4796
359.98        114.9145
360.43        113.6358
360.88        112.7509
361.33        112.1174
361.78        111.5621
362.23        110.8223
362.68        109.8398
363.13        108.7338
363.58         107.619
364.03        106.6478
364.48        105.8543
364.93         105.162
365.38        104.5266
365.83        103.8957
366.28        103.2459
366.73        102.6061
367.18        101.9445
367.63        101.2009
368.08        100.3753
368.53        99.48579
368.98         98.6116
369.43        97.88242
369.88        97.32195
370.33        96.88667
370.78        96.49773
371.23        96.02576
371.68        95.43061
372.13        94.74789
372.58        94.01883
373.03        93.30966
373.48        92.63696
373.93        91.96934
374.38        91.29506
374.83        90.60511
375.28        89.89984
375.72        89.18082
376.17        88.49036
376.62        87.77573
377.07        87.05038
377.52         86.3488
377.97        85.71612
378.42        85.23967
378.87        84.92964
379.32        84.71473
379.77        84.59158
380.22        84.55459
380.67        84.56261
381.11        84.64002
381.56        84.55076
382.01        84.01211
382.46        83.02911
382.91        81.75442
383.36        80.53969
383.81        79.86194
384.26        79.78368
384.71        80.14599
385.15        80.67915
385.60        80.90495
386.05         80.6797
386.50        80.13667
386.95        79.42321
387.40        78.77812
387.85        78.28502
388.29        77.82304
388.74        77.44714
389.19        77.03579
389.64         76.5703
390.09        76.09436
390.54        75.64985
390.98        75.27881
391.43         75.0299
391.88        74.86149
392.33        74.74393
392.78        74.59138
393.23        74.37998
393.67         74.2278
394.12        74.17126
394.57        73.82631
395.02        73.32741
395.47        73.32482
395.91        73.73544
396.36        73.78482
396.81        73.44599
397.26        73.16325
397.71        72.94096
398.15        72.62335
398.60        72.31604
399.05        71.86255
399.50        71.39497
399.95        71.42593
400.39        71.82967
400.84        71.75703
401.29        71.19906
401.74        70.84095
402.18        70.71586
402.63        70.36706
403.08        69.89816
403.53        69.67456
403.97         69.7092
404.42        69.87589
404.87         70.0628
405.32         70.0435
405.76        69.75849
406.21        69.47709
406.66        69.21165
407.11        68.67039
407.55         68.0891
408.00        68.09356
408.45        68.61956
408.90        69.12537
409.34        69.30663
409.79         68.7966
410.24        67.85962
410.68        67.40289
411.13        67.51477
411.58        67.66181
412.03        67.69944
412.47          67.651
412.92        67.45197
413.37        67.13161
413.81         66.7992
414.26        66.67739
414.71        66.77625
415.15        67.05901
415.60        67.38631
416.05         67.5882
416.49        67.61356
416.94        67.50954
417.39        67.36637
417.83        67.30984
418.28        67.37812
418.73        67.51967
419.17        67.69527
419.62        67.84886
420.07        67.94576
420.51        67.98312
420.96        67.97983
421.41        67.89621
421.85        67.71644
422.30        67.56055
422.74         67.3812
423.19        67.12964
423.64        66.83018
424.08        66.68643
424.53        66.71485
424.98        66.80952
425.42        66.96658
425.87        67.28633
426.31        67.64877
426.76        67.66801
427.21        67.39933
427.65        67.20197
428.10        67.10019
428.54        67.22234
428.99         67.2192
429.44        67.17019
429.88        67.10156
430.33        67.79424
430.77        68.83819
431.22        69.17754
431.66        68.76244
432.11        68.01201
432.56        67.28751
433.00        67.28485
433.45        68.12542
433.89        68.71077
434.34         69.3481
434.78        69.78489
435.23        68.83865
435.67        67.14761
436.12        67.54682
436.57        67.80584
437.01        68.54372
437.46        68.79993
437.90        68.53555
438.35        68.10258
438.79        68.06899
439.24        68.10912
439.68        68.33029
440.13        68.82164
440.57        69.47726
441.02        69.60207
441.46        69.22858
441.91         69.6557
442.35        70.50043
442.80        69.93056
443.24        68.35855
443.69        68.42365
444.13        69.93053
444.58        70.54773
445.02        70.17236
445.47        70.09599
445.91        70.39118
446.36        70.61842
446.80        70.76929
447.24        70.94781
447.69        71.11658
448.13        71.20471
448.58        71.21964
449.02        71.14721
449.47        71.04012
449.91        70.97836
450.36        71.00535
450.80        71.03667
451.25         71.0566
451.69        71.19283
452.13          71.112
452.58        71.09296
453.02        71.05745
453.47        71.05364
453.91        71.07693
454.36          71.131
454.80        71.19508
455.24        71.08639
455.69         70.7823
456.13        70.57089
456.58        70.61147
457.02        69.72126
457.46        69.88363
457.91        69.95663
458.35        70.25513
458.79        70.10759
459.24        69.53909
459.68        68.76933
460.13        68.08585
460.57        67.83134
461.01          68.128
461.46        68.49584
461.90        69.08421
462.34          69.756
462.79        69.44461
463.23        69.22657
463.68        69.45846
464.12        69.25934
464.56        68.80956
465.01        68.03166
465.45         67.2099
465.89        67.13704
466.34        67.59922
466.78        67.99199
467.22         68.2857
467.67        67.09415
468.11        67.25993
468.55        67.27047
468.99         67.7978
469.44        67.87473
469.88        67.48671
470.32        67.19734
470.77        67.06303
471.21         66.9567
471.65        66.87637
472.10        66.85868
472.54        66.89484
472.98        66.90104
473.42        66.83861
473.87        66.96355
474.31        67.11259
474.75        66.57326
475.20        65.62368
475.64         65.4875
476.08        66.08686
476.52        66.19257
476.97        65.73572
477.41        65.56638
477.85        65.82425
478.29        65.46139
478.74        65.81739
479.18        66.18059
479.62        65.91518
480.06        65.94553
480.50        65.96268
480.95        65.97482
481.39        65.94276
481.83        65.69189
482.27        65.63615
482.72        65.59383
483.16        65.40058
483.60        65.42332
484.04        65.57461
484.48        65.87653
484.93        66.11626
485.37        66.08228
485.81        65.39914
486.25        64.83067
486.69        66.00658
487.14        66.09626
487.58        65.14231
488.02        65.54406
488.46         64.6363
488.90        64.73531
489.34        65.99713
489.79        66.87637
490.23        66.18329
490.67        65.56476
491.11        64.95782
491.55        64.85885
491.99        65.19003
492.43         65.1797
492.88         64.8205
493.32        64.71169
493.76        64.89571
494.20        65.06868
494.64        65.20192
495.08        65.43626
495.52        65.66866
495.96         65.6166
496.41        65.31941
496.85        65.09067
497.29        64.90634
497.73        64.94929
498.17        64.40974
498.61        64.34573
499.05        64.47458
499.49        64.58488
499.93        64.42846
500.37        64.47016
500.82         64.6496
501.26        64.63899
501.70         64.7878
502.14        64.79922
502.58        64.80881
503.02         64.8549
503.46        64.94229
503.90        65.04498
504.34         65.1048
504.78        65.03748
505.22         64.8191
505.66        64.53938
506.10        64.31432
506.54        64.13254
506.98        63.98377
507.42        64.56094
507.86         64.5619
508.30        64.67838
508.74        64.76537
509.18        64.68912
509.62         64.5536
510.06        64.41947
510.50        64.32921
510.94        64.24815
511.38        64.20121
511.82        64.23675
512.26        64.35449
512.70        64.54156
513.14        64.74656
513.58        64.88074
514.02        64.91905
514.46         64.8813
514.90        64.80107
515.34        64.73836
515.78        64.71271
516.22        64.70623
516.66        64.70793
517.10        64.70011
517.54        64.67804
517.98        64.65444
518.42        64.63088
518.86         64.6061
519.30        64.58018
519.74        64.54814
520.18        64.51952
520.62        64.50906
521.06        64.52133
521.50        64.56104
521.93         64.6079
522.37        64.60829
522.81        64.56362
523.25        64.48112
523.69        64.41553
524.13         64.4547
524.57        64.60321
525.01        64.82138
525.45        65.02316
525.89        65.06965
526.32        64.92853
526.76        64.67433
527.20        64.37424
527.64        64.14468
528.08        64.02698
528.52        63.96847
528.96        63.97893
529.40        64.11169
529.83         64.3269
530.27        64.53399
530.71        64.67176
531.15        64.72436
531.59        64.67566
532.03        64.50024
532.46        64.25046
532.90        64.08395
533.34        64.02488
533.78        63.99907
534.22        63.97829
534.66        63.99419
535.09        63.98711
535.53        63.83089
535.97        63.56568
536.41        63.41728
536.85        63.40882
537.28        63.41598
537.72        63.44648
538.16        63.56346
538.60         63.7537
539.04        63.99263
539.47        64.20019
539.91        64.29617
540.35         64.2515
540.79        64.09677
541.22        63.89957
541.66        63.79171
542.10        63.79805
542.54        63.88128
542.97        63.97903
543.41        64.02351
543.85        63.98428
544.29        63.89439
544.72        63.77503
545.16        63.69526
545.60        63.66427
546.04        63.67118
546.47        63.70585
546.91        63.77847
547.35        63.88353
547.79        63.92949
548.22        63.92587
548.66        64.08884
549.10        64.37744
549.53        64.26294
549.97        63.83939
550.41        63.56172
550.84        63.54568
551.28        63.65389
551.72        63.77054
552.15        63.89402
552.59         64.0684
553.03        63.37796
553.46        63.78219
553.90          63.671
554.34        63.60595
554.77        63.73984
555.21        63.76383
555.65        63.89897
556.08        64.00869
556.52        64.07582
556.96        64.07095
557.39        64.11571
557.83        64.16552
558.27        63.89009
558.70        63.38898
559.14         63.1641
559.57        63.23071
560.01        63.32285
560.45        63.41219
560.88        63.59206
561.32        63.82481
561.75        64.00839
562.19        64.11244
562.63        63.94253
563.06        63.60822
563.50        63.60678
563.93         63.8426
564.37        63.89737
564.80        63.78878
565.24        63.66297
565.68        63.39698
566.11        64.06333
566.55        63.36753
566.98        63.15567
567.42        62.92237
567.85        63.09875
568.29        63.59983
568.72        63.89984
569.16        64.04559
569.60          64.045
570.03        64.09499
570.47        64.18015
570.90        64.45332
571.34        63.46571
571.77        64.04316
572.21        64.23817
572.64        64.06421
573.08         64.4478
573.51        63.70472
573.95        63.69327
574.38        64.09073
574.82        64.04424
575.25        63.62859
575.69        63.67092
576.12         63.8987
576.56        63.44173
576.99        63.57198
577.42        63.41473
577.86        63.53353
578.29        64.67806
578.73        64.36448
579.16        64.28923
579.60        63.72886
580.03        63.69521
580.47        63.88723
580.90        64.27251
581.33        64.11756
581.77        64.77423
582.20        64.16909
582.64        64.24129
583.07        64.17119
583.51        63.88336
583.94        63.66665
584.37        63.96399
584.81        64.23565
585.24        64.39203
585.68        64.21234
586.11        64.23496
586.54        64.02116
586.98        63.59863
587.41        63.07758
587.85        63.52592
588.28        63.23184
588.71        63.28458
589.15        63.10173
589.58        63.54845
590.01        63.29033
590.45        63.66542
590.88        64.31067
591.31        64.31427
591.75        63.81591
592.18         63.3521
592.61        63.12574
593.05        63.66334
593.48        64.26725
593.91        64.08436
594.35        64.01402
594.78        63.39411
595.21        62.82037
595.65        63.18656
596.08        64.48754
596.51         64.4053
596.94        63.79079
597.38        63.43061
597.81         63.6011
598.24        64.30051
598.68        63.57512
599.11        63.68602
599.54        64.63535
599.97        64.00166
600.41        63.71123
600.84        63.10955
601.27         63.6504
601.70        63.61405
602.14        64.01274
602.57        63.69862
603.00        63.47293
603.43        62.83243
603.87        63.38994
604.30         63.8762
604.73        63.81923
605.16        63.09111
605.60        63.40294
606.03        63.14626
606.46        62.94303
606.89         62.7677
607.32        63.58469
607.76        62.96446
608.19        63.47184
608.62        63.36652
609.05        63.42752
609.48        63.39612
609.92        64.06917
610.35        63.81878
610.78         63.1372
611.21        62.99874
611.64        63.17039
612.07        63.48006
612.50         63.4506
612.94        63.49662
613.37        63.45754
613.80        63.54947
614.23        62.93036
614.66        62.89038
615.09         63.1871
615.52         63.3045
615.96        63.11305
616.39         63.6242
616.82        63.45059
617.25        63.19868
617.68        63.15065
618.11        63.23156
618.54        63.55864
618.97        63.61462
619.40        63.38606
619.84        63.40471
620.27         63.1288
620.70        63.19684
621.13        63.33597
621.56        62.94827
621.99        62.15033
622.42        62.02642
622.85        62.58414
623.28        62.65866
623.71        62.14484
624.14        62.92617
624.57        62.66473
625.00        62.75867
625.43         62.9083
625.86        62.81446
626.29        62.58192
626.72        62.77154
627.15        62.69573
627.58        62.79911
628.01        62.77453
628.44        62.98812
628.87        62.77151
629.30        62.47606
629.73        62.35618
630.16        62.31783
630.59        62.46536
631.02        62.62774
631.45        62.76482
631.88        62.89579
632.31        62.98941
632.74        63.00206
633.17        62.93588
633.60        62.83505
634.03        62.71571
634.46        62.56023
634.89        62.39927
635.32        62.29988
635.75         62.2793
636.18          62.261
636.61        62.24342
637.04        62.25674
637.47        62.29338
637.89        62.34095
638.32         62.3681
638.75        62.37442
639.18        62.35386
639.61        62.34888
640.04        62.29211
640.47        62.28648
640.90        62.31329
641.33         62.3729
641.76        62.43007
642.18        62.43468
642.61        62.35954
643.04        62.22684
643.47        62.09853
643.90        62.07348
644.33         62.1676
644.76        62.35098
645.18        62.54247
645.61        62.58924
646.04        62.47134
646.47        62.24877
646.90        62.00997
647.33        61.88498
647.75        61.87731
648.18         61.9963
648.61        62.23534
649.04        62.29657
649.47        62.09327
649.89        62.78267
650.32        62.61318
650.75        62.38002
651.18        61.78194
651.61        61.73083
652.03          62.222
652.46        62.52351
652.89        62.48549
653.32        62.40857
653.74        62.49947
654.17         61.9411
654.60        62.22049
655.03        62.88258
655.46        61.80046
655.88        61.66816
656.31        64.03688
656.74        64.92952
657.16        64.11413
657.59        64.26547
658.02        62.48053
658.45        63.08071
658.87        62.80408
659.30        62.54549
659.73        62.30839
660.15        63.30331
660.58        62.62051
661.01        62.59653
661.44        62.40849
661.86        62.09172
662.29         61.6642
662.72        62.07227
663.14        62.05957
663.57         61.9539
664.00        61.52865
664.42        61.49564
664.85        61.87941
665.27        62.29248
665.70        62.56593
666.13        62.66435
666.55         62.5549
666.98        62.18396
667.41        61.67105
667.83        61.61996
668.26        61.44307
668.69        61.59119
669.11        61.81739
669.54        62.02047
669.96        62.16496
670.39        62.30755
670.82        62.42803
671.24        62.44078
671.67        62.37401
672.09        62.24288
672.52        62.13172
672.94        62.24564
673.37        62.50739
673.80        62.48717
674.22        62.22092
674.65         62.1144
675.07        62.20273
675.50        62.21812
675.92         62.1506
676.35        62.10023
676.77        62.06807
677.20        62.02206
677.62        61.97655
678.05        61.94901
678.47        61.93523
678.90        61.96717
679.32        62.02232
679.75        61.99932
680.17        61.87037
680.60        61.93952
681.02        61.76209
681.45        61.77881
681.87        61.86277
682.30        62.08365
682.72        62.36386
683.15         62.3586
683.57        62.13214
684.00        62.10661
684.42        62.28555
684.85        62.33594
685.27        62.24949
685.70        62.24366
686.12         62.3002
686.54        62.30532
686.97        62.25089
687.39         62.1788
687.82        62.10999
688.24        62.08909
688.66        62.12432
689.09        62.20079
689.51        62.28575
689.94        62.31527
690.36        62.28426
690.78        62.14861
691.21        61.98663
691.63        62.02607
692.06        62.23986
692.48        62.36073
692.90        62.33125
693.33        62.28154
693.75        62.20111
694.17        61.95578
694.60        61.67469
695.02        61.63939
695.44        61.86139
695.87         62.2676
696.29        62.69399
696.71        62.66341
697.14        62.24323
697.56        62.03227
697.98        62.10409
698.41        62.10654
698.83        62.04432
699.25        62.19652
699.68        62.45291
700.10        62.53988
700.52        62.39707
700.94        62.12522
701.37         61.8386
701.79        61.72291
702.21        61.81774
702.64        62.04691
703.06        62.32761
703.48        62.51118
703.90        62.55027
704.33        62.49134
704.75        62.37795
705.17        62.27088
705.59          62.202
706.01        62.15201
706.44        62.12896
706.86        62.17128
707.28        62.26907
707.70        62.40178
708.12        62.55372
708.55        62.70982
708.97        62.84196
709.39        62.88418
709.81        62.83827
710.23        62.78963
710.66        62.74757
711.08        62.68019
711.50        62.58013
711.92        62.47549
712.34        62.37602
712.76        62.28804
713.19        62.21468
713.61        62.19267
714.03        62.21593
714.45        62.28362
714.87        62.39317
715.29        62.54208
715.71        62.71572
716.13        62.88938
716.56        63.03043
716.98        63.17419
717.40        63.27887
717.82        63.34534
718.24        63.32466
718.66        63.13991
719.08        62.80926
719.50        62.39197
719.92        62.00985
720.34        61.84374
720.76        61.93033
721.19        62.18898
721.61        62.57288
722.03         62.9496
722.45         63.2508
722.87        63.49848
723.29         63.6296
723.71        63.55117
724.13        63.26984
724.55        62.82021
724.97        62.34571
725.39        62.09066
725.81        62.11692
726.23        62.34358
726.65         62.6556
727.07        62.99605
727.49        63.07753
727.91        63.13003
728.33        63.13884
728.75        63.20087
729.17        63.33578
729.59        63.49644
730.01        63.63692
730.43        63.69158
730.85        63.64317
731.27        63.51898
731.69        63.35611
732.10        63.20499
732.52        63.08492
732.94        63.00112
733.36        62.96204
733.78        62.85727
734.20        62.67051
734.62        62.66127
735.04         62.9231
735.46        62.42234
735.88        63.01884
736.30        63.20534
736.72        63.48347
737.13        63.71487
737.55        63.82624
737.97        63.93124
738.39        63.97858
738.81         63.7484
739.23        63.34116
739.65        63.24081
740.06        63.41943
740.48        63.49533
740.90        63.43271
741.32        63.48069
741.74        63.64415
742.16        63.78818
742.57         63.8973
742.99          63.991
743.41        64.03753
743.83        63.97354
744.25        63.80007
744.67          63.528
745.08        63.26985
745.50        63.18797
745.92        63.32422
746.34        63.62675
746.75         63.9669
747.17        64.11993
747.59        64.04216
748.01         63.8046
748.42        63.52126
748.84        63.39493
749.26        63.47655
749.68        63.63739
750.09        63.81372
750.51        64.03635
750.93         64.2053
751.35        64.08942
751.76        63.73991
752.18        63.48336
752.60        63.35402
753.01        63.19545
753.43        63.01669
753.85        62.93961
754.27        62.98171
754.68        63.12645
755.10        63.32973
755.52        63.51337
755.93        63.63704
756.35        63.69071
756.77        63.73003
757.18        63.78907
757.60        63.87271
758.02        64.12395
758.43        64.39281
758.85        64.03075
759.26        63.47452
759.68        63.09064
760.10        63.06447
760.51        63.23438
760.93        63.49601
761.34        63.49367
761.76        63.50278
762.18         63.5853
762.59        63.87366
763.01          64.187
763.42        64.49464
763.84        64.63268
764.26        64.57085
764.67        64.35537
765.09        64.08894
765.50        63.75643
765.92        63.47577
766.33        63.39407
766.75         63.4537
767.16        63.53054
767.58        63.55446
768.00        63.63292
768.41        63.77082
768.83        63.90413
769.24        63.98549
769.66        63.97759
770.07        63.89622
770.49        63.71341
770.90        63.55614
771.32        63.86726
771.73        64.50677
772.15        64.73819
772.56         64.5116
772.97        64.17677
773.39        63.89567
773.80        63.80628
774.22        63.94262
774.63         64.3013
775.05        64.69342
775.46         64.8832
775.88        64.77821
776.29        64.48143
776.70        64.13441
777.12        63.98568
777.53        64.10905
777.95        64.38677
778.36        64.72556
778.77         64.9343
779.19        64.96928
779.60        64.91087
780.02        64.77863
780.43        64.66367
780.84         64.6165
781.26        64.37737
781.67        64.08141
782.09        64.44664
782.50        65.24957
782.91        65.27079
783.33         64.5725
783.74        64.32445
784.15        64.57044
784.57        64.66159
784.98        64.59356
785.39        64.57118
785.81        64.64119
786.22        64.94529
786.63        65.37797
787.04        65.56971
787.46         65.4943
787.87         65.3157
788.28        65.13917
788.70        65.04353
789.11        65.04718
789.52        65.16014
789.93         65.3216
790.35        65.41718
790.76        65.41944
791.17        65.34486
791.58        65.27196
792.00        65.22185
792.41        65.20912
792.82        65.46293
793.23        65.81983
793.65        65.40678
794.06        64.50448
794.47        64.56936
794.88        65.41846
795.29        65.74478
795.71        65.24454
796.12        64.95457
796.53        64.94206
796.94          64.977
797.35        65.11851
797.76        65.58405
798.18        66.19215
798.59        66.51604
799.00        66.45772
799.41          66.188
799.82        65.83364
800.23        65.56866
800.64        65.45995
801.06         65.4268
801.47        65.46786
801.88        65.49374
802.29        65.47092
802.70        65.43193
803.11        65.37636
803.52        65.29195
803.93        65.19984
804.34        65.11044
804.75        65.04774
805.17        65.11015
805.58        65.35191
805.99        65.51294
806.40         65.6127
806.81        66.18629
807.22        66.97102
807.63        66.80884
808.04         65.8583
808.45        65.39096
808.86        65.52014
809.27        65.57378
809.68        65.45585
810.09        65.33587
810.50        65.20305
810.91        65.01807
811.32         64.9099
811.73        65.07697
812.14        65.54134
812.55        66.24317
812.96        66.95673
813.37        67.25556
813.78        67.02432
814.19        66.41494
814.60         65.6772
815.01        65.15429
815.42        64.93376
815.83        64.92276
816.24        65.05385
816.65        65.19456
817.05        65.28786
817.46        65.35493
817.87        65.41576
818.28        65.44274
818.69        65.43736
819.10        65.38571
819.51        65.32188
819.92        65.32701
820.33        65.41743
820.74        65.56488
821.14        65.73576
821.55        65.86497
821.96        65.93491
822.37        65.97261
822.78        65.97339
823.19        65.92961
823.60        65.84986
824.00        65.75185
824.41        65.64822
824.82        65.66714
825.23        65.82186
825.64        66.07854
826.04         66.3469
826.45        66.44038
826.86        66.32977
827.27        66.07378
827.68        65.75175
828.08        65.52736
828.49        65.40487
828.90        65.35399
829.31        65.37036
829.72         65.4455
830.12         65.5835
830.53        65.74564
830.94        65.85893
831.35        65.74973
831.75        65.41209
832.16        64.88307
832.57        64.35115
832.97        64.09663
833.38        64.18398
833.79        64.50879
834.20        64.95325
834.60        65.32527
835.01        65.56104
835.42        65.75301
835.82        65.89285
836.23        65.89358
836.64        65.78893
837.04        65.56317
837.45         65.4017
837.86        65.67363
838.26        66.45171
838.67        67.58844
839.08        68.70927
839.48        69.09709
839.89        68.56706
840.29        67.37368
840.70        66.07117
841.11        65.28648
841.51        65.18984
841.92        65.58189
842.33          66.251
842.73        66.81951
843.14        67.04125
843.54        67.07954
843.95        67.03422
844.35        67.11246
844.76        67.34146
845.17        67.62637
845.57        67.85023
845.98        67.81608
846.38        67.50862
846.79        67.00378
847.19        66.45128
847.60        66.05933
848.00        65.90334
848.41         65.9053
848.81        66.01554
849.22        66.06558
849.62        66.04446
850.03        65.99441
850.43          65.954
850.84        65.91576
851.24        65.93087
851.65        65.92387
852.05        66.00996
852.46        66.28906
852.86        66.74669
853.27        67.31386
853.67        67.76492
854.07        67.90403
854.48        67.67619
854.88        67.17371
855.29        66.47886
855.69        65.88059
856.10        65.43568
856.50        65.16829
856.90        65.02547
857.31        64.92162
857.71        64.87556
858.12        64.85743
858.52        64.92706
858.92        65.06265
859.33        65.22871
859.73        65.44794
860.13        65.60149
860.54        65.53156
860.94        65.25707
861.34        64.81247
861.75        64.36054
862.15        64.21221
862.55        64.41697
862.96         64.8528
863.36        65.39311
863.76        65.73315
864.17        65.75954
864.57        65.59057
864.97        65.25237
865.38        64.79493
865.78          64.299
866.18        63.75687
866.58        63.29387
866.99        63.13544
867.39        63.35131
867.79        63.86395
868.19        64.53321
868.60         65.1161
869.00        65.55631
869.40        65.87318
869.80        66.05571
870.21        66.09631
870.61        66.06607
871.01        65.93047
871.41        65.68777
871.81        65.34059
872.22         64.8998
872.62        64.36671
873.02        63.89628
873.42        63.73179
873.82        63.91624
874.22        64.38712
874.63         64.8628
875.03        64.90719
875.43        64.43018
875.83         63.5808
876.23        62.69397
876.63        62.29214
877.03        62.49877
877.44        63.12337
877.84         63.9169
878.24        64.46786
878.64        64.58065
879.04        64.23382
879.44        63.68249
879.84        63.42574
880.24        63.53837
880.64        63.82722
881.04        64.02944
881.44         63.7604
881.84        62.96702
882.24        61.83974
882.65        60.74017
883.05        60.19915
883.45        60.35426
883.85        61.04945
884.25        62.03218
884.65        62.85911
885.05        63.35942
885.45        63.63395
885.85        63.77797
886.25        63.95836
886.65         64.2187
887.05        64.46403
887.45        64.64525
887.85        64.70659
888.25        64.63187
888.65        64.47765
889.04        64.24784
889.44        63.95744
889.84        63.61904
890.24        63.23819
890.64        62.90379
891.04        62.76041
891.44        62.83163
891.84        63.08032
892.24        63.37085
892.64        63.48646
893.04        63.39702
893.44         63.1847
893.83        62.99791
894.23        63.03442
894.63        63.35879
895.03        63.86069
895.43        64.45773
895.83        65.02613
896.23        65.47993
896.63        65.82788
897.02        65.96267
897.42        65.74512
897.82        65.19123
898.22        64.40448
898.62        63.56583
899.01        62.93747
899.41        62.61486
899.81        62.51928
900.21        62.63904
900.61        62.93653
901.00        63.35251
901.40         63.8761
901.80        64.34834
902.20        64.51279
902.59        64.33386
902.99        63.87176
903.39        63.31054
903.79         62.9694
904.18        62.92793
904.58        63.09166
904.98        63.38415
905.38        63.68688
905.77        63.95383
906.17        64.25669
906.57        64.49255
906.96        64.48855
907.36        64.21703
907.76        63.72093
908.15        63.28394
908.55        63.34577
908.95        63.98765
909.34        65.08527
909.74        66.21335
910.14        66.74854
910.53         66.5018
910.93        65.68299
911.33        64.61996
911.72        63.81441
912.12        63.47887
912.52        63.47638
912.91         63.6312
913.31        63.69163
913.70        63.59282
914.10        63.39384
914.49        63.30244
914.89        63.57001
915.29        64.25001
915.68        65.23032
916.08        66.13472
916.47        66.42538
916.87        65.99979
917.26        65.02011
917.66        63.94083
918.05        63.29966
918.45        63.23381
918.84        63.63916
919.24        64.20324
919.64        64.50299
920.03        64.42474
920.42        64.08007
920.82        63.76152
921.21        63.86152
921.61        64.43983
922.00         65.3744
922.40        66.33494
922.79        66.89004
923.19        66.86964
923.58        66.44917
923.98         65.8591
924.37        65.37574
924.77        65.10683
925.16        64.92317
925.55        64.83146
925.95        64.82752
926.34         64.8992
926.74        65.05355
927.13        65.13326
927.52         64.8065
927.92        64.09079
928.31        63.09069
928.70        62.12574
929.10        61.65828
929.49        61.77582
929.89        62.29588
930.28        63.08147
930.67         63.7746
931.07         64.1994
931.46        64.51277
931.85        64.61548
932.24        64.40601
932.64        63.95369
933.03        63.25443
933.42         62.6344
933.82        62.56925
934.21         63.1385
934.60        64.25938
934.99        65.55531
935.39        66.32173
935.78        66.39222
936.17        65.86869
936.56        65.12106
936.96        64.74413
937.35        64.87665
937.74        65.32059
938.13         65.7384
938.53        65.62917
938.92        64.90391
939.31        63.80516
939.70         62.6418
940.09        61.81519
940.49        61.41569
940.88        61.36158
941.27        61.58012
941.66        61.92591
942.05        62.32551
942.44         62.8262
942.84        63.39566
943.23        63.96905
943.62        64.51384
944.01        64.95515
944.40        65.30814
944.79        65.64725
945.18        65.95564
945.57        66.19618
945.97        66.18539
946.36        65.73456
946.75        64.81698
947.14        63.60759
947.53        62.38424
947.92        61.50332
948.31        61.06423
948.70        60.99398
949.09        61.20711
949.48        61.53857
949.87        61.90231
950.26        62.30927
950.65        62.74156
951.04        63.18123
951.43        63.59015
951.82          63.915
952.21        64.08045
952.60        63.99908
952.99         63.6938
953.38        63.25272
953.77        62.79477
954.16        62.49712
954.55        62.40866
954.94        62.45436
955.33        62.66414
955.72        63.06979
956.11         63.6232
956.50        64.31645
956.89        64.84636
957.28        64.71476
957.66        63.85018
958.05        62.46755
958.44        61.05344
958.83        60.31242
959.22        60.37643
959.61        61.04975
960.00        61.96621
960.39        62.43222
960.78        62.21911
961.16        61.54633
961.55        60.73365
961.94        60.16644
962.33        59.96815
962.72        60.03516
963.11        60.26416
963.49        60.50889
963.88        60.62806
964.27        60.66288
964.66        60.76443
965.04        61.18217
965.43        61.89729
965.82        62.87986
966.21        63.72283
966.60        63.67859
966.98           62.59
967.37         60.8135
967.76        59.06189
968.15        58.22672
968.53        58.46478
968.92        59.56239
969.31        61.00994
969.69        61.77048
970.08        61.43019
970.47        60.34129
970.86        59.16404
971.24        58.83052
971.63        59.53841
972.02         61.0148
972.40          62.745
972.79        63.47885
973.17        62.89769
973.56         61.4482
973.95        59.81839
974.33        58.87807
974.72        58.82008
975.11         59.3503
975.49        60.18467
975.88        60.73048
976.26        60.80346
976.65        60.56513
977.04        60.16768
977.42        59.79094
977.81        59.48854
978.19        59.18221
978.58        59.01508
978.96        59.19786
979.35         59.7227
979.74        60.54048
980.12        61.49264
980.51        62.04609
980.89         62.1655
981.28        61.97091
981.66         61.6386
982.05        61.40236
982.43        61.36449
982.82        61.42366
983.20         61.7727
983.59        62.65848
983.97         64.1468
984.35        66.12304
984.74        67.98657
985.12        68.96124
985.51        68.77114
985.89        67.65197
986.28        66.23328
986.66        65.40884
987.04        65.47804
987.43        66.18315
987.81        67.15202
988.20        67.54529
988.58        67.11257
988.96        66.04836
989.35        64.79704
989.73        63.95008
990.12        63.63292
990.50        63.74829
990.88        63.83236
991.27        63.13567
991.65        61.58191
992.03        59.49469
992.42        57.72851
992.80        57.41622
993.18        58.75956
993.56        61.47375
993.95        64.57255
994.33        66.29462
994.71        65.91519
995.10        64.02166
995.48        61.68979
995.86        60.60531
996.24        61.18246
996.63        62.85648
997.01        65.06871
997.39         66.3295
997.77        66.04743
998.15        64.81722
998.54         63.1687
998.92        61.70901
999.30        60.74119
999.68        60.04136
1000.06        59.76866
1000.45        60.13412
1000.83        61.21159
1001.21        63.05703
1001.59        65.28131
1001.97        66.78815
1002.35        67.15362
1002.73        66.65177
1003.12        65.95051
1003.50        65.86427
1003.88        66.68591
1004.26        68.03538
1004.64        69.72925
1005.02         71.3037
1005.40        72.39491
1005.78        73.22941
1006.16        73.25654
1006.54        71.62012
1006.92         68.4744
1007.30        64.27237
1007.69        60.41084
1008.07        58.65575
1008.45        59.53257
1008.83        62.72277
1009.21        67.19469
1009.59        70.27836
1009.97        70.58538
1010.35        68.68169
1010.73        65.70356
1011.11        63.36465
1011.49        62.17532
1011.86        61.69403
1012.24        61.40352
1012.62        60.56304
1013.00        58.98791
1013.38        56.81261
1013.76        54.77395
1014.14        54.50382
1014.52        56.54325
1014.90        60.28933
1015.28        64.06505
1015.66        65.65671
1016.04        64.70322
1016.41        61.81264
1016.79        58.25224
1017.17        56.46008
1017.55        57.16326
1017.93        59.52531
1018.31        62.40047
1018.69        64.21706
1019.06        64.58815
1019.44        63.97906
1019.82        62.77418
1020.20        61.86042
1020.58          61.648
1020.95        61.66156
1021.33         61.8293
1021.71        61.97807
1022.09        62.10189
1022.46        62.58035
1022.84        63.07223
1023.22         62.8091
1023.60        61.67546
1023.97        59.69143
1024.35        58.42268
1024.73        59.72371
