SpectraSmart Spectrum 2.9.0.0
--------- Device Information -----------
Spectrum Name :  反射率_0
Saving Time :  2024/04/26 23:58:04
Spectro-Module Model Name : SE2030-DUVN
Spectro-Module Serial Number : OS361AC55029948
Wavelength Start : 200
Wavelength End : 1025
Wavelength Unit : Wavelength(nm)
Spectrum Unit : Reflectance(%)
-----------Spectrum Setting ------------
Integration Time : 20ms
Average : 10
Boxcar : 0
Background removal :  enabled
linearity correction :  enabled
SC :  disabled
Intensity correction :  disabled
DWT denoise :  enabled
savitzky-golay :  disabled
FFT :  disabled
Running average :  disabled
Kalman :  disabled
High pass :  disabled
---------------BEGIN--------------------
Wavelength(nm)             Reflectance(%)
200.29               0
200.75        28.44024
201.21        27.36758
201.67        26.86703
202.13        26.95263
202.58        27.48761
203.04        28.76738
203.50         31.0092
203.96        33.99542
204.42        37.25328
204.88        40.58179
205.34        42.83393
205.80          42.686
206.26        40.23964
206.72        36.15279
207.18        32.44685
207.64        30.71363
208.10        30.95736
208.55        33.48832
209.01        37.16144
209.47        37.56019
209.93        33.66607
210.39        28.88165
210.85        26.10711
211.31        26.93086
211.77        32.11026
212.23        45.30639
212.69        79.60444
213.14        139.9012
213.60        141.8613
214.06        103.2688
214.52         75.7503
214.98        62.62713
215.44        56.08334
215.90        50.78142
216.36         47.0443
216.81        46.28886
217.27        49.18256
217.73        57.71622
218.19        68.88046
218.65        67.97391
219.11        53.16096
219.57        35.72292
220.02        25.04283
220.48        24.74608
220.94        33.68119
221.40        52.74082
221.86        81.12651
222.32        99.74797
222.77        92.35083
223.23        71.53979
223.69        51.34907
224.15        39.70942
224.61        35.10584
225.06        33.60265
225.52        33.82236
225.98        34.57565
226.44        35.41763
226.90        36.80275
227.36        38.13059
227.81         38.1835
228.27        36.95316
228.73        34.76868
229.19        32.64714
229.65        31.79667
230.10        32.27758
230.56        33.73695
231.02        35.35366
231.48        35.81985
231.93        34.90973
232.39         33.3384
232.85        31.95733
233.31        31.90639
233.77        33.26481
234.22        35.63797
234.68        38.23651
235.14        39.95026
235.60        40.46431
236.05        40.10457
236.51        39.36057
236.97        39.24052
237.43        40.15116
237.88        41.79684
238.34        43.79624
238.80        45.81333
239.26        47.80618
239.71        50.33565
240.17        53.19038
240.63        55.93059
241.08        58.28643
241.54        59.68084
242.00        61.19917
242.46        65.52394
242.91        75.03645
243.37        91.50509
243.83         116.416
244.28        141.1998
244.74        150.0948
245.20        140.2604
245.66        122.8569
246.11        110.0117
246.57        103.4877
247.03        99.94306
247.48        97.00348
247.94        91.93163
248.40        85.96193
248.85        81.06227
249.31         78.0407
249.77        76.25823
250.22        75.00465
250.68         73.5993
251.14        71.92538
251.59        70.45421
252.05         69.8884
252.51        70.60959
252.96        70.61082
253.42        68.32979
253.88        64.19225
254.33        58.94416
254.79        55.53896
255.25        56.15738
255.70         60.2378
256.16        66.63048
256.62        71.99979
257.07        71.52715
257.53        66.71412
257.99        60.68368
258.44        55.81331
258.90        54.24181
259.35        54.88804
259.81        56.80718
260.27         58.6549
260.72        58.87878
261.18        57.62663
261.63        55.40397
262.09         53.2345
262.55        51.68259
263.00        50.67617
263.46        50.07035
263.91        49.32512
264.37        48.06219
264.83        46.29324
265.28        44.26286
265.74        42.51703
266.19        41.44592
266.65        41.12039
267.11        41.25137
267.56        41.53213
268.02        41.48532
268.47        40.96936
268.93         40.1637
269.38        39.15484
269.84         38.1287
270.30        37.15274
270.75        36.16204
271.21        35.26188
271.66        34.57047
272.12        34.09042
272.57        33.76311
273.03        33.44697
273.48         32.8945
273.94        32.10203
274.39        31.13682
274.85        30.15393
275.31        29.24501
275.76        28.43633
276.22        27.73198
276.67        27.13194
277.13        26.70761
277.58        26.41153
278.04        26.23947
278.49        26.06985
278.95        25.82098
279.40        25.42872
279.86        24.97531
280.31           24.47
280.77        24.01745
281.22        23.61082
281.68         23.2696
282.13        22.96492
282.59        22.72362
283.04         22.5204
283.50        22.37059
283.95        22.26141
284.41        22.17581
284.86        22.11019
285.32        22.08894
285.77        22.09737
286.22        22.16877
286.68        22.30308
287.13         22.4483
287.59         22.6151
288.04        22.78348
288.50        22.95254
288.95        23.09673
289.41        23.18529
289.86         23.1155
290.32        22.92807
290.77        22.67388
291.22        22.46736
291.68        22.46233
292.13        22.69492
292.59         23.1396
293.04        23.77061
293.50        24.55628
293.95        25.45407
294.40        26.46758
294.86        27.54076
295.31        28.57599
295.77        29.56772
296.22        30.53706
296.68        31.55118
297.13        32.70992
297.58        34.05072
298.04        35.54189
298.49        37.16745
298.95         38.9142
299.40         40.7385
299.85        42.63174
300.31        44.52542
300.76        46.29864
301.21        47.94178
301.67        49.50814
302.12        51.04247
302.58        52.69856
303.03         54.4702
303.48        56.33708
303.94        58.28427
304.39        60.22859
304.84        62.16877
305.30        64.13287
305.75        66.06599
306.20        67.96677
306.66        69.83752
307.11         71.6311
307.57        73.36346
308.02        74.96624
308.47        76.45856
308.93        77.86668
309.38        79.20923
309.83        80.62376
310.29        82.13798
310.74         83.7077
311.19        85.23196
311.65        86.51537
312.10        87.48634
312.55        88.19122
313.00        88.76762
313.46        89.43999
313.91        90.24622
314.36        91.15756
314.82        92.04642
315.27        92.72123
315.72        93.12034
316.18        93.33104
316.63         93.4744
317.08        93.78172
317.53         94.3089
317.99        94.97925
318.44        95.66856
318.89        96.14587
319.35        96.34889
319.80        96.35066
320.25        96.28908
320.70        96.38508
321.16        96.69558
321.61        97.19729
322.06         97.7461
322.51        98.11388
322.97        98.23258
323.42        98.17173
323.87        98.12823
324.32        98.44315
324.78         99.1438
325.23        100.1853
325.68        101.2051
326.13        101.6083
326.59        101.2583
327.04        100.3805
327.49        99.38617
327.94        98.94915
328.39        99.24585
328.85        100.0482
329.30        101.1649
329.75        102.0042
330.20        102.3529
330.66        102.3523
331.11        102.2173
331.56        102.2195
332.01        102.4595
332.46        102.8165
332.92        103.1631
333.37        103.4617
333.82        103.6328
334.27        103.7684
334.72          103.91
335.17        104.0937
335.63         104.339
336.08        104.6785
336.53        105.1611
336.98        105.9153
337.43        106.9329
337.88        108.1293
338.34        109.3207
338.79        110.3177
339.24        110.9821
339.69        111.3724
340.14        111.4913
340.59        111.3709
341.05        111.1091
341.50        110.7258
341.95        110.4275
342.40        110.5202
342.85        111.0608
343.30        111.9608
343.75        113.0234
344.20        113.9018
344.66        114.4754
345.11        114.8188
345.56        114.9822
346.01        115.0676
346.46        115.1401
346.91        115.1842
347.36        115.2437
347.81        115.4031
348.26        115.6695
348.72        116.0102
349.17        116.4061
349.62        116.8522
350.07        117.3126
350.52        117.7902
350.97        118.1085
351.42        117.9959
351.87        117.4348
352.32        116.5242
352.77        115.5963
353.22        115.1352
353.67        115.2349
354.13        115.7665
354.58        116.4158
355.03        116.6113
355.48        116.2037
355.93        115.3504
356.38        114.4136
356.83        113.9408
357.28        114.0248
357.73         114.464
358.18        114.8682
358.63        114.6218
359.08        113.5953
359.53        112.0256
359.98        110.2998
360.43        108.9711
360.88        108.1751
361.33        107.7476
361.78        107.4495
362.23         106.905
362.68        106.0249
363.13        104.9543
363.58        103.8726
364.03        103.0367
364.48        102.4951
364.93        102.1273
365.38        101.7976
365.83        101.3111
366.28        100.6125
366.73        99.78165
367.18        98.87786
367.63        97.98285
368.08        97.13593
368.53          96.315
368.98        95.54684
369.43        94.87338
369.88        94.29653
370.33         93.8123
370.78        93.36723
371.23        92.87095
371.68          92.295
372.13          91.645
372.58        90.97165
373.03         90.3624
373.48        89.82542
373.93        89.32592
374.38        88.78293
374.83        88.07484
375.28        87.19453
375.72        86.19114
376.17        85.21738
376.62        84.39017
377.07        83.75574
377.52        83.29182
377.97        82.95642
378.42        82.69048
378.87        82.45702
379.32        82.22958
379.77        82.04235
380.22        81.94623
380.67        81.92102
381.11        81.96819
381.56        81.85742
382.01        81.31873
382.46        80.35704
382.91        79.12643
383.36        77.96124
383.81        77.30949
384.26        77.22704
384.71        77.55951
385.15         78.0509
385.60        78.24773
386.05        78.01662
386.50        77.49191
386.95        76.80527
387.40         76.1706
387.85        75.66985
388.29        75.19018
388.74        74.81873
389.19        74.48625
389.64        74.17605
390.09        73.91271
390.54         73.6744
390.98        73.39787
391.43        73.10452
391.88        72.79012
392.33        72.50938
392.78        72.24217
393.23        71.97462
393.67        71.91236
394.12        72.04353
394.57        71.42981
395.02        70.89742
395.47        70.76929
395.91        71.17481
396.36        71.20346
396.81        70.82689
397.26        70.53976
397.71         70.3707
398.15        70.13527
398.60        69.92278
399.05        69.71671
399.50        69.51472
399.95        69.37621
400.39        69.29922
400.84        69.06245
401.29        68.70952
401.74          68.606
402.18        68.67306
402.63        68.30835
403.08        67.64326
403.53         67.3464
403.97         67.4464
404.42        67.58883
404.87        67.66119
405.32        67.59121
405.76         67.3366
406.21        67.05791
406.66        66.78387
407.11        66.40725
407.55        66.09578
408.00        66.10852
408.45         66.4162
408.90        66.92467
409.34        67.32101
409.79        66.86024
410.24        65.80548
410.68         65.2934
411.13        65.41938
411.58        65.54504
412.03        65.55133
412.47        65.54757
412.92        65.47683
413.37         65.3399
413.81        65.20351
414.26        65.23121
414.71        65.41962
415.15        65.74083
415.60        66.08092
416.05        66.31317
416.49        66.39431
416.94        66.35826
417.39        66.25646
417.83        66.15242
418.28        66.08392
418.73        66.03912
419.17         66.0358
419.62        66.10334
420.07        66.22462
420.51        66.36445
420.96        66.52505
421.41        66.59902
421.85        66.54497
422.30        66.60818
422.74        66.67593
423.19        66.36452
423.64        65.79758
424.08        65.73507
424.53        66.18237
424.98        66.45004
425.42        66.48377
425.87         66.9099
426.31        67.55067
426.76        67.28323
427.21        66.35979
427.65        66.32678
428.10         67.0765
428.54        67.35709
428.99        67.18147
429.44        66.89496
429.88        66.75441
430.33        67.50362
430.77        68.71921
431.22        69.22639
431.66        68.92561
432.11        68.23142
432.56        67.49216
433.00        67.51993
433.45        68.48799
433.89        69.10284
434.34        69.34316
434.78        70.36121
435.23        69.05957
435.67        66.91886
436.12        67.99973
436.57        68.35271
437.01        69.07005
437.46        69.48111
437.90        69.60762
438.35        68.74384
438.79        69.04252
439.24        68.90723
439.68        68.94059
440.13        69.19365
440.57        69.65099
441.02         69.8048
441.46        69.68982
441.91        70.36941
442.35         71.4126
442.80        71.27686
443.24        70.20445
443.69        70.12948
444.13        71.01128
444.58        71.39024
445.02        71.23158
445.47        71.37834
445.91        71.82866
446.36        72.16566
446.80        72.34071
447.24        72.55067
447.69        72.82043
448.13        72.66849
448.58         72.9136
449.02        72.89041
449.47        72.85916
449.91        72.80721
450.36        72.77276
450.80        72.74113
451.25        72.74515
451.69         72.7693
452.13        72.83913
452.58        72.99188
453.02        73.18645
453.47        73.32254
453.91        73.36472
454.36        73.35127
454.80        73.28635
455.24        73.10329
455.69        72.80999
456.13        72.59496
456.58        72.49989
457.02        71.96459
457.46        71.22885
457.91        71.58495
458.35        72.22255
458.79        72.29403
459.24        71.63466
459.68        70.86777
460.13        70.23866
460.57        69.93707
461.01         70.1105
461.46        70.25086
461.90        70.14279
462.34        71.57235
462.79        70.95651
463.23        71.24538
463.68        71.30679
464.12        71.19481
464.56         70.8254
465.01        70.08499
465.45        69.27844
465.89        68.87614
466.34        68.84207
466.78        69.18112
467.22        69.85428
467.67        68.85272
468.11        69.01779
468.55        69.12013
468.99        69.36323
469.44        69.39705
469.88        69.06573
470.32        68.78008
470.77         68.5816
471.21        68.46928
471.65        68.46193
472.10        68.39832
472.54        68.54486
472.98        68.60653
473.42        68.62435
473.87        68.76745
474.31         68.8942
474.75        68.48041
475.20        67.72591
475.64        67.51141
476.08        67.83389
476.52        67.79646
476.97        67.35229
477.41        67.24671
477.85        67.68824
478.29        66.96017
478.74        68.22912
479.18        68.26263
479.62        67.92747
480.06        67.81789
480.50        67.88414
480.95         68.0113
481.39        68.20051
481.83        67.52585
482.27        67.58524
482.72        67.79577
483.16        67.71743
483.60        67.20309
484.04        67.37692
484.48        67.60087
484.93        68.05612
485.37        67.84068
485.81        67.31248
486.25        66.91982
486.69        68.03972
487.14        68.55993
487.58        67.40578
488.02        68.03856
488.46        66.62134
488.90        66.82965
489.34        68.15963
489.79        69.06501
490.23        68.44224
490.67        67.79268
491.11        67.14678
491.55        67.03295
491.99        67.36949
492.43        67.30137
492.88        66.82101
493.32        66.58672
493.76        66.66393
494.20        66.76468
494.64        66.87419
495.08        67.11709
495.52        67.37701
495.96         67.4044
496.41        67.20155
496.85        66.94269
497.29        66.65935
497.73         66.7463
498.17        66.37226
498.61        66.53981
499.05        66.88747
499.49        67.02019
499.93        66.72934
500.37        66.84648
500.82        67.24169
501.26        67.27764
501.70        66.98653
502.14        66.91798
502.58        67.10529
503.02         67.2226
503.46        67.26633
503.90        67.42759
504.34         67.6089
504.78        67.57606
505.22        67.29139
505.66        66.81886
506.10        66.36156
506.54        66.20845
506.98         66.2732
507.42        66.95696
507.86         66.5694
508.30        66.72824
508.74        66.91938
509.18        66.96452
509.62         66.8611
510.06          66.765
510.50        66.71175
510.94        66.63452
511.38         66.5657
511.82        66.56062
512.26        66.62534
512.70        66.75787
513.14        66.90353
513.58        66.96379
514.02        66.91864
514.46        66.79426
514.90        66.65632
515.34        66.61348
515.78        66.68681
516.22        66.83585
516.66         66.9932
517.10        67.05145
517.54        66.98575
517.98        66.83959
518.42         66.6584
518.86        66.51274
519.30        66.42913
519.74        66.38467
520.18        66.38303
520.62        66.42618
521.06        66.50935
521.50        66.64492
521.93        66.79309
522.37        66.85838
522.81        66.83231
523.25        66.73351
523.69        66.62801
524.13        66.62308
524.57        66.73442
525.01        66.92052
525.45        67.10397
525.89           67.16
526.32        67.05237
526.76        66.84447
527.20        66.59171
527.64        66.38595
528.08         66.2615
528.52        66.19222
528.96        66.17203
529.40         66.1983
529.83        66.25408
530.27        66.33112
530.71        66.41038
531.15        66.48165
531.59        66.53437
532.03        66.55264
532.46        66.52648
532.90        66.49773
533.34         66.4621
533.78        66.37639
534.22        66.24624
534.66        66.16088
535.09        66.08064
535.53         65.8613
535.97        65.54395
536.41         65.3614
536.85        65.33649
537.28        65.34673
537.72        65.39896
538.16        65.55103
538.60        65.78425
539.04        66.06987
539.47        66.31795
539.91        66.43783
540.35        66.39749
540.79         66.2293
541.22        66.00891
541.66        65.88306
542.10        65.88096
542.54        65.96323
542.97        66.06325
543.41        66.10513
543.85        66.05853
544.29        65.96428
544.72        65.84589
545.16        65.77563
545.60        65.76029
546.04        65.78353
546.47        65.84218
546.91        65.94202
547.35        66.07128
547.79        66.18441
548.22        66.26063
548.66        66.35701
549.10        66.48608
549.53        66.38872
549.97        66.14143
550.41        65.90773
550.84        65.76328
551.28        65.84223
551.72        66.09068
552.15        66.06313
552.59        66.10672
553.03        66.05125
553.46        66.20192
553.90        66.19625
554.34        66.07902
554.77        66.00463
555.21        66.11488
555.65        65.81837
556.08        66.61652
556.52         66.6908
556.96        66.50156
557.39        66.50986
557.83        66.68034
558.27        66.47678
558.70        65.96765
559.14        65.68227
559.57        65.65842
560.01        65.76058
560.45        65.91946
560.88        66.03493
561.32        66.11045
561.75        66.18145
562.19        66.26307
562.63         66.2823
563.06        66.24699
563.50         66.2318
563.93         66.1869
564.37        66.18851
564.80        66.24751
565.24        66.13302
565.68        65.74171
566.11        66.41507
566.55        65.77622
566.98        65.70187
567.42        65.59942
567.85        65.73009
568.29        66.06965
568.72        66.34326
569.16        66.57285
569.60        66.78918
570.03        66.74455
570.47        66.85664
570.90        67.13068
571.34        66.33006
571.77        66.91015
572.21        67.03546
572.64        66.86002
573.08        67.21806
573.51        66.55221
573.95        66.48466
574.38        66.81234
574.82        66.79893
575.25        66.76504
575.69        66.81467
576.12        67.13443
576.56        66.25204
576.99        66.29836
577.42        66.63998
577.86        66.52574
578.29        67.41959
578.73        67.23348
579.16        67.12151
579.60         66.6767
580.03        66.39227
580.47        66.42818
580.90        67.39786
581.33        67.31055
581.77        67.42522
582.20        67.43259
582.64        67.51804
583.07         67.0537
583.51        66.70644
583.94        66.53589
584.37        66.65366
584.81        66.94951
585.24          67.067
585.68        66.92445
586.11        67.00482
586.54        66.81321
586.98        66.32204
587.41        66.05393
587.85        66.29285
588.28        66.49922
588.71        66.39227
589.15        65.86619
589.58        66.62262
590.01        65.92935
590.45        65.98962
590.88        66.98024
591.31        66.95685
591.75        66.35474
592.18        65.88042
592.61        65.76157
593.05        66.51958
593.48        67.07858
593.91        67.09092
594.35        66.82944
594.78        66.23937
595.21        65.68191
595.65        66.14291
596.08        67.16885
596.51        67.30038
596.94        66.52555
597.38        66.23109
597.81        66.48526
598.24        66.93169
598.68         66.4481
599.11        66.37247
599.54        67.41157
599.97        66.81593
600.41        66.72607
600.84        66.15962
601.27        66.65509
601.70        66.43689
602.14        66.49944
602.57        66.46212
603.00        66.65323
603.43        65.98377
603.87        66.55411
604.30        66.61794
604.73        66.59933
605.16        66.19924
605.60        65.96413
606.03        65.72206
606.46        65.62172
606.89        65.70925
607.32         66.2004
607.76        65.82192
608.19        66.26267
608.62        66.25507
609.05        66.32249
609.48        66.20267
609.92        66.87755
610.35        66.21248
610.78        66.21554
611.21        66.17048
611.64        66.12939
612.07        66.29079
612.50        66.19466
612.94        66.14777
613.37        65.96084
613.80        66.27883
614.23        65.54947
614.66         65.5603
615.09        65.84731
615.52        66.06455
615.96        66.08784
616.39        66.19119
616.82        66.44714
617.25        65.78505
617.68        65.91168
618.11        66.04765
618.54        66.53436
618.97        66.60567
619.40        66.31161
619.84        65.98469
620.27        66.14949
620.70         66.1555
621.13        66.10179
621.56        65.61711
621.99        64.79922
622.42        64.90076
622.85         65.2205
623.28        65.00398
623.71        65.07857
624.14         65.3034
624.57        65.76131
625.00        65.57708
625.43         65.8381
625.86        65.72971
626.29        65.74368
626.72        65.02256
627.15        65.50675
627.58        65.54665
628.01        65.64984
628.44        65.59641
628.87        65.44226
629.30        65.28465
629.73        65.12056
630.16        65.43262
630.59        65.24254
631.02        65.41619
631.45        65.62445
631.88        65.77858
632.31        65.84316
632.74        65.85663
633.17        65.82554
633.60        65.73605
634.03        65.60172
634.46        65.42027
634.89        65.22635
635.32        65.09534
635.75        65.04853
636.18        65.00128
636.61        64.96002
637.04        64.96932
637.47        65.01895
637.89        65.10122
638.32        65.16949
638.75        65.16869
639.18        65.08081
639.61         65.0848
640.04        64.91887
640.47        64.88702
640.90        64.91273
641.33        65.00403
641.76         65.1172
642.18        65.11858
642.61        65.09053
643.04         64.9672
643.47        64.84002
643.90        64.79687
644.33        64.85551
644.76        64.98489
645.18        65.12347
645.61         65.1557
646.04        65.06799
646.47        64.90832
646.90        64.73691
647.33        64.64409
647.75        64.62494
648.18        64.68623
648.61        64.84709
649.04        64.90464
649.47         64.7658
649.89        65.46035
650.32        65.18224
650.75        65.04113
651.18        64.66279
651.61        64.57544
652.03        64.83325
652.46        65.14182
652.89         65.3469
653.32        65.29564
653.74        65.21255
654.17        64.29905
654.60        65.35481
655.03        64.93836
655.46        64.49784
655.88        64.39626
656.31        67.27323
656.74        69.15309
657.16        68.06207
657.59        67.49288
658.02        65.58703
658.45        66.05888
658.87        65.27046
659.30        65.21454
659.73        64.92209
660.15        66.51194
660.58        65.04192
661.01         64.8168
661.44        64.55527
661.86        64.39169
662.29        64.25849
662.72         64.8004
663.14        64.72555
663.57        64.71593
664.00         64.5155
664.42        64.58879
664.85        64.95049
665.27        65.32061
665.70         65.5525
666.13        65.61536
666.55        65.48766
666.98        65.10815
667.41        64.58721
667.83        64.53214
668.26        64.32394
668.69         64.4503
669.11        64.64993
669.54        64.81841
669.96        64.91835
670.39        64.98051
670.82        65.02251
671.24        65.04051
671.67        65.03918
672.09        64.99836
672.52        64.95267
672.94        64.92047
673.37        64.91372
673.80        64.92175
674.22        64.94487
674.65        64.94308
675.07        64.92744
675.50        64.90154
675.92        64.86796
676.35         64.8167
676.77        64.75439
677.20        64.68053
677.62         64.6311
678.05        64.65999
678.47        64.76314
678.90        64.93805
679.32        65.12495
679.75        65.18621
680.17        65.08401
680.60        65.06315
681.02        64.86459
681.45        64.73972
681.87        64.66775
682.30        64.81351
682.72        65.11092
683.15          65.219
683.57        65.13538
684.00        65.07329
684.42         65.0915
684.85        65.15913
685.27        65.27644
685.70         65.4727
686.12        65.66535
686.54        65.72305
686.97         65.6207
687.39        65.41415
687.82        65.16251
688.24        64.98126
688.66         64.9062
689.09        64.90285
689.51        64.97015
689.94        65.07635
690.36        65.20766
690.78        65.34676
691.21        65.47684
691.63         65.5761
692.06        65.63145
692.48        65.62823
692.90        65.55626
693.33        65.43973
693.75        65.29023
694.17        65.06747
694.60          64.866
695.02        64.85919
695.44        65.04283
695.87        65.36314
696.29        65.68945
696.71        65.63726
697.14        65.26884
697.56        65.06609
697.98         65.1114
698.41        65.14855
698.83        65.18026
699.25        65.43668
699.68        65.77411
700.10        65.88941
700.52        65.71179
700.94        65.34925
701.37        64.96326
701.79        64.81857
702.21        64.96894
702.64        65.31127
703.06        65.71552
703.48        65.95082
703.90        65.95167
704.33        65.80146
704.75         65.5699
705.17        65.35716
705.59        65.21127
706.01        65.09537
706.44        65.04678
706.86        65.13251
707.28        65.33401
707.70        65.67659
708.12         66.0592
708.55        66.19671
708.97        66.10395
709.39        66.06597
709.81        66.10341
710.23        66.04302
710.66         65.8978
711.08        65.81065
711.50        65.76829
711.92        65.69869
712.34        65.60313
712.76        65.51861
713.19        65.44884
713.61        65.43037
714.03        65.45809
714.45         65.5259
714.87        65.63378
715.29        65.78876
715.71        65.97651
716.13        66.16708
716.56          66.325
716.98         66.4855
717.40        66.60537
717.82        66.68438
718.24        66.65271
718.66         66.4579
719.08        66.12893
719.50        65.61883
719.92        65.04917
720.34        65.14865
720.76        65.08331
721.19          65.466
721.61        65.95412
722.03        66.37524
722.45        66.63867
722.87        66.78966
723.29        66.81896
723.71        66.69652
724.13         66.4501
724.55        66.09748
724.97        65.73042
725.39        65.51411
725.81         65.4935
726.23        65.60725
726.65        65.80204
727.07        66.12663
727.49        66.30167
727.91        66.53535
728.33        66.72861
728.75        66.84402
729.17        66.87057
729.59        66.80682
730.01        66.69726
730.43        66.62115
730.85        66.59928
731.27        66.61145
731.69        66.62627
732.10        66.58958
732.52        66.48667
732.94        66.35248
733.36        66.23227
733.78         66.0642
734.20        65.85548
734.62        65.87831
735.04        66.19559
735.46           65.66
735.88        66.23613
736.30        66.34633
736.72        66.56649
737.13        66.92452
737.55        67.25996
737.97        67.36526
738.39        67.19951
738.81        66.72841
739.23          66.169
739.65        66.23779
740.06        66.81173
740.48        67.07994
740.90        66.97475
741.32        67.00614
741.74        67.19507
742.16        67.29971
742.57        67.31489
742.99        67.29269
743.41          67.246
743.83        67.17729
744.25        67.09647
744.67         66.9903
745.08        66.91106
745.50        66.92067
745.92        67.03139
746.34        67.21484
746.75        67.38945
747.17        67.41129
747.59        67.26572
748.01        67.00308
748.42         66.7084
748.84        66.56042
749.26        66.60586
749.68        66.66498
750.09        66.71191
750.51        66.99824
750.93        67.35466
751.35        67.16275
751.76        66.53307
752.18         66.2106
752.60        66.24773
753.01        66.25365
753.43        66.19144
753.85        66.20267
754.27         66.2859
754.68        66.44621
755.10        66.60844
755.52        66.71964
755.93        66.73373
756.35        66.65291
756.77         66.6203
757.18        66.65351
757.60        66.75181
758.02        67.35007
758.43        68.23943
758.85        67.32159
759.26        67.06766
759.68        66.45808
760.10        66.82192
760.51        67.09748
760.93        67.32412
761.34        67.49746
761.76        67.57671
762.18        67.59193
762.59        67.61684
763.01        67.71474
763.42        67.91197
763.84        67.94807
764.26        67.82713
764.67        67.70586
765.09         67.6322
765.50         67.4075
765.92        67.11601
766.33        66.99993
766.75        66.98296
767.16        66.83125
767.58        66.57346
768.00        66.53838
768.41        66.77694
768.83        67.22315
769.24        67.66994
769.66        67.73163
770.07        67.44083
770.49        67.02194
770.90        66.71774
771.32        67.13726
771.73        68.07497
772.15        68.41394
772.56        68.07346
772.97        67.66427
773.39        67.37186
773.80        67.23314
774.22        67.28875
774.63        67.57059
775.05        67.90976
775.46        68.10179
775.88        68.05772
776.29        67.86858
776.70        67.63559
777.12        67.54568
777.53        67.65332
777.95        67.84943
778.36        68.08053
778.77        68.21146
779.19        68.22276
779.60        68.22034
780.02        68.17889
780.43        68.06361
780.84        67.95567
781.26        67.70878
781.67        67.49211
782.09        68.09663
782.50        69.20582
782.91        69.26965
783.33        68.36735
783.74        68.02698
784.15        68.31463
784.57        68.33412
784.98        68.10149
785.39        68.02074
785.81        68.11903
786.22        68.37936
786.63        68.72062
787.04        68.82085
787.46          68.854
787.87         68.7337
788.28        68.60513
788.70        68.55239
789.11        68.58399
789.52         68.7009
789.93           68.84
790.35        68.89311
790.76        68.83755
791.17         68.6912
791.58        68.54234
792.00        68.43018
792.41        68.38116
792.82        68.62148
793.23        69.00435
793.65         68.6804
794.06        67.90933
794.47           68.12
794.88         69.1221
795.29        69.47504
795.71        69.08188
796.12        68.85084
796.53        68.87811
796.94        68.73367
797.35        68.53935
797.76        68.86037
798.18        69.53209
798.59        69.85883
799.00        69.73721
799.41        69.51522
799.82        69.31267
800.23        69.19474
800.64        69.20689
801.06        69.28444
801.47         69.4089
801.88        69.44643
802.29        69.36247
802.70          69.203
803.11        68.99697
803.52        68.78685
803.93         68.6095
804.34        68.45849
804.75        68.37328
805.17        68.44534
805.58        68.71715
805.99        69.01122
806.40        69.27349
806.81        69.71515
807.22        70.14764
807.63        69.89955
808.04        69.13024
808.45        68.71477
808.86        68.75897
809.27        68.83673
809.68        68.86139
810.09        68.88244
810.50        68.87106
810.91        68.81054
811.32        68.80547
811.73        69.02062
812.14        69.46868
812.55        70.08755
812.96        70.66415
813.37        70.80975
813.78        70.43669
814.19        69.70734
814.60        68.87366
815.01        68.27133
815.42        67.98473
815.83        67.92097
816.24        68.03886
816.65        68.24757
817.05        68.49287
817.46        68.77763
817.87        69.04995
818.28        69.17813
818.69        69.14155
819.10         68.9403
819.51        68.69823
819.92         68.6608
820.33        68.88553
820.74        69.30001
821.14        69.74288
821.55        69.94373
821.96        69.84096
822.37        69.52219
822.78        69.12451
823.19        68.87951
823.60        68.86313
824.00        69.02808
824.41        69.24767
824.82        69.41355
825.23        69.46999
825.64        69.46084
826.04        69.41839
826.45        69.34831
826.86        69.28166
827.27        69.21918
827.68        69.16343
828.08         69.1522
828.49        69.14285
828.90        69.14176
829.31        69.19379
829.72        69.36935
830.12        69.68993
830.53        70.07342
830.94        70.38644
831.35        70.35983
831.75        69.96059
832.16        69.25912
832.57        68.49675
832.97          68.034
833.38        67.96637
833.79        68.17315
834.20        68.52673
834.60        68.81425
835.01        68.96571
835.42        69.09024
835.82        69.17861
836.23        69.13384
836.64        68.99045
837.04        68.72706
837.45        68.54473
837.86        68.84452
838.26        69.70144
838.67        70.95391
839.08        72.18488
839.48        72.60155
839.89        72.00134
840.29        70.66616
840.70        69.20779
841.11        68.32616
841.51        68.20929
841.92        68.63854
842.33        69.37539
842.73         69.9919
843.14        70.22083
843.54          70.245
843.95        70.18676
844.35        70.28955
844.76        70.58933
845.17         70.9789
845.57        71.31983
845.98        71.37959
846.38        71.13554
846.79        70.67363
847.19        70.16282
847.60        69.84482
848.00        69.79409
848.41        69.90043
848.81        70.09907
849.22        70.19337
849.62        70.16475
850.03          70.081
850.43        69.94484
850.84        69.68332
851.24        69.35666
851.65        68.90678
852.05        68.60722
852.46        68.82417
852.86        69.58981
853.27        70.73672
853.67        71.80573
854.07        72.28897
854.48          72.072
854.88        71.32938
855.29        70.29973
855.69        69.56953
856.10        69.27988
856.50        69.36373
856.90        69.61186
857.31        69.68273
857.71        69.52483
858.12        69.19263
858.52        68.86961
858.92        68.72633
859.33         68.7956
859.73        69.04589
860.13        69.29707
860.54        69.29286
860.94        69.01759
861.34        68.53895
861.75        68.04734
862.15        67.89273
862.55        68.13562
862.96        68.63514
863.36        69.23699
863.76        69.59311
864.17        69.58044
864.57        69.32982
864.97        68.91322
865.38        68.45105
865.78        68.03616
866.18        67.63891
866.58        67.31982
866.99        67.19173
867.39        67.29824
867.79        67.59795
868.19        68.02343
868.60        68.43488
869.00        68.80495
869.40        69.12965
869.80        69.35513
870.21        69.39561
870.61        69.30016
871.01        69.05682
871.41        68.71503
871.81        68.34374
872.22        67.96648
872.62         67.5731
873.02        67.25562
873.42        67.14934
873.82        67.27642
874.22        67.60445
874.63        67.95943
875.03        68.07993
875.43        67.89364
875.83        67.46821
876.23        66.99978
876.63         66.8008
877.03         66.9461
877.44         67.3268
877.84        67.77149
878.24        67.99394
878.64        67.87897
879.04        67.39745
879.44        66.83214
879.84        66.71436
880.24        67.09981
880.64        67.76745
881.04        68.38564
881.44        68.43892
881.84        67.81924
882.24         66.7448
882.65        65.55249
883.05        64.74737
883.45        64.49317
883.85        64.65181
884.25        65.11138
884.65        65.66766
885.05        66.20132
885.45        66.74455
885.85        67.23717
886.25        67.59202
886.65        67.79294
887.05        67.83197
887.45        67.73524
887.85        67.58099
888.25         67.4053
888.65        67.20341
889.04        67.00623
889.44        66.87942
889.84        66.81899
890.24        66.82082
890.64         66.8352
891.04        66.77095
891.44        66.61449
891.84        66.40762
892.24        66.19659
892.64        66.04504
893.04        65.98257
893.44        66.00254
893.83        66.12636
894.23        66.33495
894.63        66.62582
895.03        66.96207
895.43        67.32121
895.83        67.67597
896.23        67.98067
896.63        68.20677
897.02        68.25957
897.42        68.02391
897.82        67.51608
898.22        66.84932
898.62        66.15103
899.01        65.59517
899.41         65.2607
899.81         65.0761
900.21        65.11075
900.61        65.46311
901.00        66.09517
901.40        66.95589
901.80        67.75066
902.20        68.00735
902.59        67.65038
902.99        66.80667
903.39        65.83295
903.79        65.33133
904.18        65.44443
904.58        65.98257
904.98        66.69989
905.38        67.22015
905.77        67.43606
906.17        67.50468
906.57        67.43329
906.96        67.23328
907.36        66.93483
907.76        66.51447
908.15        66.19869
908.55        66.34194
908.95        66.99125
909.34        68.05456
909.74        69.11237
910.14        69.54512
910.53        69.18114
910.93        68.24226
911.33        67.07127
911.72        66.19534
912.12        65.83843
912.52        65.85033
912.91        66.08002
913.31         66.3175
913.70        66.48396
914.10        66.60837
914.49        66.80962
914.89        67.18351
915.29        67.74818
915.68        68.44833
916.08        68.98735
916.47        68.97308
916.87        68.37235
917.26        67.32095
917.66        66.28718
918.05        65.82091
918.45        66.03978
918.84        66.82529
919.24        67.79106
919.64        68.37772
920.03        68.41626
920.42        68.03644
920.82        67.56639
921.21        67.46458
921.61        67.82667
922.00        68.53579
922.40        69.28779
922.79        69.70453
923.19        69.63745
923.58        69.25243
923.98        68.78769
924.37        68.51948
924.77        68.53857
925.16        68.70609
925.55        68.94086
925.95        69.08685
926.34        69.10326
926.74        69.04272
927.13        68.86268
927.52         68.4227
927.92        67.78427
928.31        66.97807
928.70        66.25506
929.10        65.97108
929.49        66.17093
929.89        66.70428
930.28        67.41045
930.67        67.88379
931.07        67.96032
931.46        67.82575
931.85        67.47732
932.24        66.97513
932.64         66.4379
933.03         65.8276
933.42         65.4043
933.82         65.5338
934.21        66.25428
934.60        67.49802
934.99        68.89664
935.39        69.76237
935.78        69.92796
936.17        69.47205
936.56        68.73331
936.96        68.26734
937.35        68.22243
937.74        68.43876
938.13        68.64368
938.53        68.43523
938.92        67.74818
939.31        66.78509
939.70        65.82422
940.09        65.22469
940.49        65.04575
940.88        65.20672
941.27        65.58103
941.66        65.92967
942.05        66.16444
942.44         66.3713
942.84        66.59161
943.23        66.87821
943.62        67.24619
944.01        67.60422
944.40         67.9735
944.79        68.42951
945.18        68.93475
945.57        69.43678
945.97        69.69892
946.36        69.43748
946.75         68.5923
947.14        67.36946
947.53        66.05291
947.92        65.01611
948.31        64.38512
948.70        64.08434
949.09        64.12456
949.48        64.50607
949.87        65.16585
950.26        66.06098
950.65        67.01698
951.04         67.7425
951.43        68.13166
951.82        68.22638
952.21        68.06073
952.60        67.73586
952.99        67.34481
953.38         66.9031
953.77        66.55952
954.16          66.544
954.55        66.88113
954.94        67.48273
955.33        68.20055
955.72        68.74535
956.11        68.98686
956.50        68.99434
956.89        68.68195
957.28        67.95165
957.66        66.85732
958.05          65.508
958.44        64.24924
958.83        63.55804
959.22         63.5097
959.61        64.01059
960.00        64.72951
960.39        65.03128
960.78         64.7305
961.16        63.99987
961.55        63.23814
961.94          62.965
962.33        63.30998
962.72        64.14449
963.11        65.16904
963.49         65.8395
963.88         65.8769
964.27        65.42828
964.66        64.91016
965.04        64.97637
965.43        65.70268
965.82        66.95578
966.21         68.1599
966.60        68.22826
966.98        66.90575
967.37        64.71236
967.76        62.51347
968.15        61.37147
968.53        61.47916
968.92         62.5466
969.31        64.06461
969.69         65.0002
970.08        64.90886
970.47        64.14878
970.86         63.2751
971.24        63.07982
971.63         63.7379
972.02        64.97055
972.40        66.41171
972.79        67.10212
973.17        66.80532
973.56        65.89325
973.95        64.77684
974.33        63.95026
974.72        63.55688
975.11        63.38596
975.49        63.48299
975.88         63.8737
976.26        64.54433
976.65        65.44972
977.04        66.24947
977.42        66.36908
977.81        65.68229
978.19        64.31984
978.58        62.86206
978.96         62.2335
979.35        62.63349
979.74        63.83912
980.12        65.33398
980.51        65.94246
980.89        65.47782
981.28        64.31248
981.66        63.03265
982.05        62.43598
982.43        62.72341
982.82        63.59065
983.20        64.89527
983.59        66.26618
983.97        67.54928
984.35        68.81302
984.74        69.71397
985.12        69.92274
985.51        69.35886
985.89        68.16199
986.28        66.89217
986.66        66.34306
987.04        66.75959
987.43        67.90188
987.81        69.42969
988.20        70.48907
988.58        70.76806
988.96        70.41774
989.35        69.66576
989.73        68.83913
990.12          68.049
990.50        67.23735
990.88        66.34222
991.27        65.34379
991.65        64.32809
992.03        63.40035
992.42        62.80642
992.80        62.79375
993.18        63.39672
993.56        64.53363
993.95        65.77641
994.33        66.52098
994.71        66.42009
995.10        65.68856
995.48          64.699
995.86        64.11746
996.24        64.09876
996.63        64.34138
997.01        64.73684
997.39        64.74939
997.77        64.20837
998.15        63.41862
998.54        62.53766
998.92         61.6166
999.30        60.80831
999.68        60.11121
1000.06        59.80491
1000.45        60.26136
1000.83        61.59862
1001.21         63.7342
1001.59        66.29468
1001.97          68.228
1002.35        69.03149
1002.73        68.95589
1003.12        68.40198
1003.50        67.79274
1003.88        67.37376
1004.26        66.83833
1004.64         66.4447
1005.02        66.70449
1005.40        67.68568
1005.78        69.43817
1006.16        70.90378
1006.54        70.36474
1006.92        67.72924
1007.30        63.66125
1007.69        59.91294
1008.07        58.83336
1008.45        61.10211
1008.83        66.23268
1009.21        72.80324
1009.59        77.18169
1009.97        77.52682
1010.35        74.74281
1010.73        70.41618
1011.11        66.91923
1011.49        64.98888
1011.86        63.96625
1012.24        63.44305
1012.62        62.83219
1013.00        61.91908
1013.38        60.90802
1013.76        60.08823
1014.14        59.97666
1014.52        60.76769
1014.90        62.25189
1015.28        63.70296
1015.66        64.21198
1016.04        63.64934
1016.41        62.20223
1016.79        60.64693
1017.17        60.47837
1017.55          61.958
1017.93        64.46581
1018.31        66.93939
1018.69        67.88272
1019.06        66.99625
1019.44        64.71317
1019.82        61.53627
1020.20        58.90377
1020.58        57.66174
1020.95        57.29446
1021.33        57.82924
1021.71        59.20131
1022.09        61.32597
1022.46        64.63399
1022.84        68.07982
1023.22        68.97545
1023.60        66.45476
1023.97        61.23357
1024.35        56.22189
1024.73        54.74758
