SpectraSmart Spectrum 2.9.0.0
--------- Device Information -----------
Spectrum Name :  反射率_0
Saving Time :  2024/04/26 23:59:44
Spectro-Module Model Name : SE2030-DUVN
Spectro-Module Serial Number : OS361AC55029948
Wavelength Start : 200
Wavelength End : 1025
Wavelength Unit : Wavelength(nm)
Spectrum Unit : Reflectance(%)
-----------Spectrum Setting ------------
Integration Time : 20ms
Average : 10
Boxcar : 0
Background removal :  enabled
linearity correction :  enabled
SC :  disabled
Intensity correction :  disabled
DWT denoise :  enabled
savitzky-golay :  disabled
FFT :  disabled
Running average :  disabled
Kalman :  disabled
High pass :  disabled
---------------BEGIN--------------------
Wavelength(nm)             Reflectance(%)
200.29               0
200.75         46.4329
201.21        39.14114
201.67        32.99446
202.13        30.50846
202.58        31.63491
203.04        36.02917
203.50        43.17459
203.96        49.93687
204.42        53.64613
204.88        54.51775
205.34        52.91596
205.80        50.81288
206.26         49.1642
206.72        47.02256
207.18        45.23735
207.64        44.54581
208.10        44.94337
208.55        47.45518
209.01        50.43984
209.47        48.78741
209.93        42.36822
210.39        35.28569
210.85          31.422
211.31        32.86246
211.77        40.70234
212.23        61.01504
212.69        112.0428
213.14        191.7365
213.60        177.1326
214.06        111.2884
214.52        70.56909
214.98        55.12616
215.44        51.71867
215.90        53.23335
216.36        56.14735
216.81        55.69915
217.27          50.395
217.73        41.17255
218.19        29.03886
218.65        22.78058
219.11        27.30821
219.57        35.74483
220.02        43.75864
220.48        51.68537
220.94        61.14718
221.40        74.75313
221.86        92.14904
222.32          101.83
222.77        94.64697
223.23        78.88538
223.69        64.04596
224.15        55.30449
224.61        51.37931
225.06          49.714
225.52        49.25565
225.98        48.69287
226.44        47.75107
226.90        46.92218
227.36        45.97302
227.81        44.54326
228.27        42.87845
228.73        40.96135
229.19         39.5644
229.65        39.61535
230.10        41.00924
230.56        43.43394
231.02         45.7328
231.48           46.05
231.93        44.19515
232.39        41.25833
232.85        38.50958
233.31        37.61967
233.77         38.7453
234.22        41.26649
234.68        44.37907
235.14        46.95826
235.60        48.59976
236.05         49.6726
236.51        50.25058
236.97        50.47879
237.43        50.50328
237.88        50.27031
238.34        49.99755
238.80        50.40423
239.26        51.82445
239.71        54.65393
240.17        58.86422
240.63        64.09329
241.08        69.87652
241.54        75.64065
242.00         81.3622
242.46        87.87383
242.91         96.7133
243.37        108.0797
243.83        122.6619
244.28        136.2341
244.74        139.6206
245.20        131.4232
245.66        118.5381
246.11        107.1688
246.57        98.33273
247.03        90.49283
247.48        82.62587
247.94        74.71973
248.40        68.64124
248.85         64.7995
249.31        62.84091
249.77        61.60863
250.22        60.49759
250.68        59.28383
251.14          58.582
251.59        60.05501
252.05        64.18095
252.51        69.94426
252.96        74.16473
253.42        74.74744
253.88        72.36783
254.33        67.99627
254.79        65.17677
255.25        66.71318
255.70        72.05589
256.16        79.87096
256.62         86.3027
257.07         85.7315
257.53        79.98031
257.99        72.81549
258.44        66.95166
258.90        64.78488
259.35        65.13129
259.81        66.99869
260.27        69.00069
260.72        69.55396
261.18        68.77224
261.63        67.03179
262.09        65.37409
262.55        64.31751
263.00        63.74529
263.46        63.54675
263.91         63.0587
264.37        61.83005
264.83        59.87787
265.28        57.50382
265.74        55.40865
266.19        54.11161
266.65        53.70947
267.11        53.83038
267.56        54.09326
268.02        53.91162
268.47        53.11021
268.93        51.93559
269.38        50.47136
269.84        48.90575
270.30        47.33814
270.75        45.72536
271.21        44.29361
271.66         43.3199
272.12        42.84011
272.57        42.75399
273.03        42.78835
273.48        42.47232
273.94        41.74094
274.39         40.6818
274.85        39.58442
275.31        38.71389
275.76        38.10098
276.22        37.69018
276.67        37.29578
277.13        36.76221
277.58        36.01273
278.04        35.15486
278.49        34.28162
278.95        33.64316
279.40        33.21947
279.86        32.99247
280.31        32.74847
280.77        32.30246
281.22        31.59395
281.68        30.77224
282.13        29.97863
282.59        29.49114
283.04        29.31442
283.50        29.38425
283.95        29.53552
284.41        29.52286
284.86        29.29157
285.32        28.95681
285.77        28.65015
286.22        28.61963
286.68        28.89672
287.13        29.34266
287.59        29.83091
288.04        30.12619
288.50        30.18996
288.95        30.06751
289.41        29.85794
289.86        29.63059
290.32        29.46885
290.77        29.35672
291.22        29.32133
291.68        29.38535
292.13        29.55792
292.59        29.87431
293.04        30.38504
293.50        31.17405
293.95        32.23158
294.40        33.52719
294.86        34.95036
295.31        36.32057
295.77        37.60089
296.22         38.8128
296.68        40.06651
297.13        41.52515
297.58        43.23166
298.04        45.13358
298.49        47.11518
298.95        49.01514
299.40        50.77796
299.85        52.46225
300.31        54.16171
300.76        55.99322
301.21        57.99105
301.67        60.11989
302.12         62.2709
302.58        64.37866
303.03        66.36611
303.48        68.28416
303.94        70.19348
304.39        72.10931
304.84        74.07121
305.30        76.07745
305.75        78.05025
306.20        79.97125
306.66        81.84678
307.11        83.64654
307.57        85.40717
308.02        87.06591
308.47        88.64201
308.93        90.14377
309.38         91.5793
309.83        93.08824
310.29        94.69216
310.74        96.34983
311.19        97.91855
311.65        99.13583
312.10        99.92909
312.55        100.3721
313.00        100.7004
313.46        101.2846
313.91        102.1815
314.36        103.3187
314.82        104.4626
315.27        105.2468
315.72        105.5654
316.18        105.5702
316.63        105.4631
317.08        105.6073
317.53        106.0963
317.99        106.8051
318.44        107.5855
318.89        108.1647
319.35        108.4593
319.80        108.5641
320.25        108.5884
320.70        108.7047
321.16        108.9632
321.61        109.3441
322.06        109.7647
322.51        110.1074
322.97         110.321
323.42        110.4436
323.87        110.5827
324.32        110.9325
324.78        111.4861
325.23        112.2615
325.68         112.975
326.13        113.1757
326.59        112.7803
327.04        111.9698
327.49         111.129
327.94        110.8961
328.39        111.4203
328.85        112.4782
329.30        113.8354
329.75        114.7893
330.20        115.1013
330.66        114.9363
331.11        114.5919
331.56        114.4743
332.01        114.7256
332.46        115.1867
332.92        115.6921
333.37        116.1493
333.82        116.4384
334.27        116.6697
334.72        116.8598
335.17        117.0007
335.63        117.1121
336.08        117.2495
336.53        117.5151
336.98        118.1347
337.43        119.1332
337.88        120.4058
338.34         121.747
338.79        122.9354
339.24        123.7991
339.69        124.3946
340.14        124.6946
340.59        124.6839
341.05        124.4565
341.50         124.049
341.95        123.6887
342.40        123.7201
342.85        124.2192
343.30        125.0848
343.75          126.16
344.20        127.1588
344.66        127.9562
345.11        128.6008
345.56        129.0376
346.01         129.204
346.46        129.1343
346.91        128.8629
347.36        128.5447
347.81        128.4412
348.26        128.6063
348.72        128.9609
349.17         129.411
349.62        129.8316
350.07        130.1591
350.52        130.4475
350.97        130.5773
351.42        130.3622
351.87        129.8098
352.32        128.9845
352.77        128.1813
353.22        127.8368
353.67        128.0202
354.13        128.5975
354.58        129.2655
355.03         129.466
355.48        129.0486
355.93        128.1708
356.38        127.1516
356.83        126.4728
357.28        126.2318
357.73        126.2602
358.18        126.2779
358.63        125.8471
359.08        124.8756
359.53        123.5416
359.98        122.1059
360.43        120.9301
360.88        120.0967
361.33        119.4858
361.78        118.9372
362.23        118.2068
362.68        117.2429
363.13        116.1532
363.58        115.0468
364.03        114.0731
364.48        113.2646
364.93         112.546
365.38        111.8799
365.83        111.2237
366.28        110.5543
366.73        109.8969
367.18        109.2027
367.63        108.3862
368.08        107.4425
368.53        106.3974
368.98         105.354
369.43        104.4779
369.88        103.8063
370.33        103.2968
370.78        102.8464
371.23         102.285
371.68        101.5655
372.13        100.7305
372.58         99.8754
373.03        99.15092
373.48        98.58138
373.93        98.10445
374.38        97.60939
374.83        96.93229
375.28        96.04448
375.72        94.99785
376.17        93.95422
376.62        93.03301
377.07        92.28892
377.52        91.71066
377.97        91.24799
378.42        90.83379
378.87        90.43924
379.32        90.03835
379.77        89.72478
380.22        89.63402
380.67        89.74916
381.11        90.05187
381.56        90.19036
382.01        89.69003
382.46        88.52227
382.91        86.92413
383.36        85.38589
383.81        84.57759
384.26        84.59254
384.71        85.19167
385.15        86.02274
385.60        86.46696
386.05        86.32562
386.50        85.78266
386.95        84.97608
387.40        84.13092
387.85        83.36382
388.29        82.57021
388.74        81.90912
389.19        81.39478
389.64        81.01823
390.09         80.7713
390.54        80.60432
390.98        80.40045
391.43        80.16959
391.88        79.92088
392.33        79.65984
392.78        79.39375
393.23        79.12586
393.67        78.82955
394.12         78.5909
394.57        78.34126
395.02        78.09995
395.47        77.94936
395.91        77.86232
396.36        77.68021
396.81        77.40871
397.26        77.11479
397.71        76.83312
398.15        76.56292
398.60         76.3981
399.05        76.24648
399.50        76.07218
399.95        75.94301
400.39        75.83245
400.84        75.39596
401.29        74.75514
401.74        74.58098
402.18        74.78754
402.63        74.47079
403.08        73.75407
403.53        73.50561
403.97         73.7466
404.42        74.00143
404.87        74.13206
405.32        74.09831
405.76        73.85204
406.21        73.49926
406.66        73.10157
407.11        72.70228
407.55        72.43589
408.00        72.34292
408.45        72.41375
408.90        72.76118
409.34        73.12164
409.79        72.71383
410.24        71.77946
410.68        71.38799
411.13        71.61694
411.58        71.87514
412.03        71.98737
412.47        71.93639
412.92        71.65034
413.37        71.18362
413.81        70.69616
414.26        70.48367
414.71        70.56985
415.15        70.89962
415.60        71.30528
416.05        71.56679
416.49        71.61154
416.94        71.49978
417.39        71.32202
417.83        71.20427
418.28         71.1896
418.73         71.2242
419.17        71.28847
419.62        71.36143
420.07        71.42008
420.51        71.45747
420.96        71.47615
421.41        71.41293
421.85        71.24743
422.30        71.08266
422.74        70.88397
423.19        70.69878
423.64        70.51153
424.08         70.3437
424.53        70.24397
424.98        70.28548
425.42        70.46957
425.87        70.89452
426.31        71.36684
426.76        71.16079
427.21        70.42078
427.65        70.14651
428.10        70.34798
428.54        70.37543
428.99        70.28445
429.44         70.1412
429.88        70.09639
430.33        70.84214
430.77        71.95013
431.22        72.24776
431.66        71.72195
432.11         71.0903
432.56        70.64567
433.00        70.67918
433.45        71.28242
433.89        71.78009
434.34        71.96328
434.78        72.61389
435.23        71.91958
435.67        69.92542
436.12        70.41016
436.57        70.65989
437.01        71.59588
437.46        71.99565
437.90        71.82116
438.35        71.35945
438.79        71.43436
439.24        71.36074
439.68        71.35906
440.13        71.44982
440.57        71.67108
441.02        71.87725
441.46        72.01968
441.91        72.57472
442.35        73.20704
442.80        72.96143
443.24        72.05927
443.69        72.02436
444.13        72.78791
444.58        73.09698
445.02        72.91415
445.47        72.92084
445.91        73.24518
446.36        73.46206
446.80         73.5752
447.24        73.70744
447.69         73.8362
448.13        73.81838
448.58        73.70741
449.02        73.67289
449.47        73.73098
449.91        73.71998
450.36        73.66405
450.80        73.64152
451.25         73.6736
451.69        73.68449
452.13        73.68343
452.58        73.67818
453.02        73.67096
453.47        73.67467
453.91        73.68155
454.36         73.6933
454.80        73.66943
455.24        73.51528
455.69        73.23615
456.13        72.92503
456.58        72.69257
457.02        72.33188
457.46        72.01762
457.91        72.31255
458.35        72.91338
458.79        72.88951
459.24        72.25569
459.68        71.36534
460.13        70.54099
460.57         70.2476
461.01        70.66383
461.46        70.57249
461.90        71.42474
462.34        72.15794
462.79        72.19386
463.23        72.25675
463.68        72.05933
464.12         71.9043
464.56        71.69439
465.01        70.94702
465.45        69.90564
465.89        69.56842
466.34        69.82883
466.78        70.02726
467.22        70.19855
467.67        69.50929
468.11        70.23358
468.55        70.21924
468.99        70.11943
469.44        69.97676
469.88        69.82668
470.32        69.62357
470.77        69.40173
471.21        69.28632
471.65        69.27921
472.10        69.35448
472.54        69.46619
472.98        69.49535
473.42         69.3991
473.87         69.3914
474.31        69.39084
474.75        68.94302
475.20         68.2739
475.64        68.27324
476.08        68.84656
476.52        68.94359
476.97        68.46683
477.41        68.22801
477.85         68.4801
478.29        67.79771
478.74        68.42652
479.18        69.15256
479.62        68.57385
480.06        68.59026
480.50        68.55521
480.95        68.54919
481.39        68.59699
481.83        67.94965
482.27        67.92355
482.72        68.38751
483.16        67.97231
483.60          68.092
484.04        68.19302
484.48        68.48207
484.93        68.70072
485.37        68.58825
485.81        67.40738
486.25        67.66563
486.69        68.78794
487.14        69.80158
487.58        67.88966
488.02          68.297
488.46        67.47522
488.90        67.75547
489.34        68.70784
489.79        69.34753
490.23        69.13317
490.67        68.50469
491.11        67.67348
491.55        67.49514
491.99        67.90563
492.43        67.89014
492.88        67.43512
493.32        67.27451
493.76        67.43889
494.20        67.56767
494.64         67.6339
495.08        67.75971
495.52         67.8845
495.96        67.87186
496.41        67.72815
496.85        67.57326
497.29        67.36932
497.73        67.40971
498.17        66.86456
498.61        66.90999
499.05        67.04559
499.49         67.2313
499.93        67.13509
500.37        67.18346
500.82        67.33517
501.26         67.4185
501.70        67.39921
502.14        67.54887
502.58        67.94172
503.02        67.42116
503.46        67.98118
503.90        68.02029
504.34        68.07219
504.78        67.99314
505.22         67.7879
505.66        67.45679
506.10        67.09817
506.54        66.91727
506.98        66.90931
507.42        67.01175
507.86        67.20253
508.30        66.95848
508.74        67.19092
509.18        67.11687
509.62        67.03901
510.06        66.95869
510.50        66.91808
510.94        66.98928
511.38        67.12049
511.82        67.16083
512.26        67.09372
512.70        67.00772
513.14        66.93911
513.58        66.91148
514.02        66.93826
514.46        67.00546
514.90        67.09579
515.34        67.18375
515.78        67.25254
516.22        67.30215
516.66        67.31992
517.10        67.28619
517.54        67.20383
517.98        67.08861
518.42        66.95655
518.86        66.83475
519.30         66.7384
519.74        66.66203
520.18        66.63223
520.62        66.68586
521.06        66.82139
521.50         67.0276
521.93         67.2422
522.37        67.34095
522.81        67.30643
523.25        67.16793
523.69        67.00299
524.13        66.93822
524.57        66.99737
525.01        67.13226
525.45        67.27728
525.89        67.32553
526.32        67.24236
526.76        67.09009
527.20        66.89445
527.64        66.69966
528.08        66.53061
528.52        66.37269
528.96        66.26228
529.40        66.25686
529.83        66.35477
530.27        66.54697
530.71        66.75098
531.15        66.83847
531.59        66.78279
532.03        66.61725
532.46        66.41257
532.90        66.33087
533.34        66.39331
533.78        66.51102
534.22        66.62088
534.66        66.70965
535.09        66.70547
535.53        66.48978
535.97        66.13313
536.41        65.91651
536.85        65.87864
537.28        65.88168
537.72        65.91838
538.16        66.02833
538.60        66.19218
539.04        66.39446
539.47        66.57085
539.91        66.66446
540.35        66.64819
540.79        66.54346
541.22        66.39512
541.66        66.30001
542.10        66.27805
542.54        66.30812
542.97        66.35201
543.41        66.37811
543.85        66.36298
544.29        66.32931
544.72        66.28883
545.16        66.26266
545.60        66.23866
546.04        66.29078
546.47        66.41587
546.91        66.29999
547.35        66.31724
547.79        66.40128
548.22        66.60426
548.66        66.65657
549.10        66.61839
549.53        66.58243
549.97        66.57201
550.41        66.43875
550.84        66.26659
551.28        66.24339
551.72        66.30935
552.15        66.42123
552.59        66.64874
553.03        66.03288
553.46        66.56317
553.90        66.51015
554.34        66.45183
554.77        66.38216
555.21         66.3543
555.65        66.39423
556.08         66.4755
556.52        66.57639
556.96        66.63338
557.39        66.66092
557.83         66.6294
558.27        66.34222
558.70        65.89481
559.14        65.70018
559.57        65.74693
560.01        65.77088
560.45        65.75765
560.88          65.834
561.32        66.01452
561.75        66.22926
562.19        66.43397
562.63         66.4612
563.06        66.33172
563.50        66.26207
563.93        66.22984
564.37        66.23798
564.80        66.30598
565.24        66.26873
565.68        65.97941
566.11        66.67391
566.55        65.95469
566.98        65.75473
567.42        65.53185
567.85        65.58485
568.29         65.9028
568.72        66.26433
569.16        66.67502
569.60        66.80779
570.03        66.85478
570.47        66.96387
570.90        67.28663
571.34        66.36121
571.77        66.97969
572.21        67.16594
572.64        67.13443
573.08        67.66759
573.51        66.89259
573.95         66.7792
574.38        67.02885
574.82        67.03987
575.25        66.94347
575.69        66.88818
576.12        67.01975
576.56        66.39359
576.99        66.86265
577.42        66.90194
577.86        66.75954
578.29        67.58899
578.73        67.61742
579.16        67.50261
579.60        66.74235
580.03        66.85517
580.47        67.02238
580.90        67.38264
581.33        67.48843
581.77         68.0088
582.20        67.48502
582.64        67.69707
583.07         67.2477
583.51        66.97535
583.94        66.81368
584.37        67.02984
584.81        67.58247
585.24        67.49075
585.68            66.8
586.11        66.86376
586.54         67.1551
586.98        66.02735
587.41        66.04619
587.85        66.74741
588.28        66.40247
588.71        66.49483
589.15        66.19154
589.58        66.87252
590.01        66.58503
590.45        66.32427
590.88        67.37602
591.31        67.17063
591.75        66.44036
592.18        65.97363
592.61        65.99168
593.05        66.53585
593.48         67.3208
593.91        67.09184
594.35        67.11584
594.78        66.44375
595.21        66.08128
595.65         66.2607
596.08        67.21448
596.51        67.10772
596.94        66.63429
597.38        66.41989
597.81        66.69224
598.24        67.00716
598.68        67.10014
599.11         66.5247
599.54        67.73098
599.97        66.90631
600.41        66.81546
600.84        66.19878
601.27        66.63931
601.70        66.52027
602.14        66.81783
602.57        66.60672
603.00        66.35903
603.43        65.80287
603.87        66.85051
604.30        67.02483
604.73        66.99722
605.16         66.1138
605.60        66.37624
606.03        66.04286
606.46        65.72186
606.89        65.73861
607.32        66.51106
607.76         65.8783
608.19        66.51953
608.62        66.23457
609.05        65.87684
609.48        66.41389
609.92        67.40936
610.35        66.78726
610.78         66.3683
611.21         66.1413
611.64        66.25148
612.07        66.53988
612.50        66.46668
612.94        66.47157
613.37        66.39335
613.80        66.19339
614.23        65.56776
614.66        65.56402
615.09        66.01053
615.52         66.2215
615.96        66.10786
616.39        66.15643
616.82         66.3978
617.25        65.98949
617.68         65.9463
618.11        65.92857
618.54        66.19502
618.97        66.26761
619.40        66.12904
619.84        66.28922
620.27        66.11028
620.70        66.20756
621.13        66.32378
621.56        65.67645
621.99        64.96611
622.42        64.78196
622.85         65.2874
623.28        65.42908
623.71        65.10422
624.14        65.65845
624.57        65.49924
625.00        65.61366
625.43        65.65945
625.86        65.59088
626.29        65.46191
626.72         65.3112
627.15        65.47358
627.58        65.46418
628.01        65.24765
628.44        65.74374
628.87        65.47151
629.30        65.16628
629.73        65.04768
630.16        65.35332
630.59        65.22929
631.02         65.4726
631.45        65.72813
631.88         65.8987
632.31        65.93726
632.74        65.89151
633.17         65.7826
633.60         65.6216
634.03        65.43426
634.46        65.21513
634.89         65.0055
635.32        64.88828
635.75         64.8821
636.18         64.8989
636.61        64.92509
637.04        64.97471
637.47        65.03329
637.89         65.0874
638.32        65.09966
638.75         65.0769
639.18        65.02039
639.61        64.92721
640.04        64.83343
640.47        64.79945
640.90        64.83678
641.33        64.93287
641.76        65.04395
642.18        65.10107
642.61        65.06738
643.04        64.97484
643.47        64.86864
643.90        64.82339
644.33        64.85427
644.76        64.93149
645.18         65.0215
645.61         65.0527
646.04        65.01675
646.47        64.94627
646.90        64.85732
647.33          64.771
647.75        64.67703
648.18        64.60373
648.61        64.61371
649.04        64.62433
649.47         64.5431
649.89        65.23675
650.32        64.93813
650.75        64.95237
651.18        64.84743
651.61        64.96033
652.03        65.28072
652.46        65.44614
652.89        65.37271
653.32         65.2915
653.74        65.25891
654.17        64.58561
654.60        65.29199
655.03        65.41681
655.46        64.53861
655.88         64.9458
656.31        67.21059
656.74        68.93546
657.16        68.32272
657.59        68.15211
658.02        65.46291
658.45        66.12355
658.87         65.3029
659.30        65.03033
659.73        65.16002
660.15        66.14648
660.58        64.94157
661.01        64.85169
661.44        64.93776
661.86         64.7198
662.29        64.18591
662.72        64.49743
663.14        64.42444
663.57        64.50037
664.00        64.41321
664.42        64.54015
664.85        64.87766
665.27        65.22584
665.70        65.46053
666.13        65.53443
666.55        65.43119
666.98        65.09742
667.41        64.62318
667.83        64.58105
668.26        64.34308
668.69        64.40858
669.11        64.54468
669.54        64.66728
669.96        64.74275
670.39         64.8689
670.82        65.02667
671.24        64.96347
671.67        64.76105
672.09        64.83645
672.52         65.1413
672.94        65.20397
673.37        65.01226
673.80        64.82143
674.22        64.69725
674.65        64.59727
675.07        64.55896
675.50        64.57993
675.92        64.63396
676.35        64.66434
676.77        64.65531
677.20        64.61441
677.62        64.56247
678.05        64.53412
678.47        64.53589
678.90        64.56336
679.32        64.58645
679.75        64.57271
680.17        64.51337
680.60        64.42455
681.02        64.35408
681.45        64.36484
681.87         64.4783
682.30        64.67785
682.72        64.91277
683.15        65.01725
683.57        64.99506
684.00        64.95776
684.42        64.94951
684.85        64.96621
685.27        65.01488
685.70        65.13026
686.12        65.25096
686.54        65.28603
686.97        65.22343
687.39         65.0628
687.82        64.85316
688.24        64.80459
688.66        64.93739
689.09        64.83349
689.51        64.97615
689.94        64.98462
690.36        65.00333
690.78        64.94946
691.21        64.87234
691.63        64.90712
692.06        65.04111
692.48        65.15108
692.90        65.18476
693.33        65.16482
693.75        65.08342
694.17         64.8772
694.60        64.65513
695.02        64.65232
695.44        64.87598
695.87         65.2003
696.29        65.49814
696.71         65.5082
697.14        65.24093
697.56        64.93539
697.98        64.71298
698.41        64.61146
698.83        64.59565
699.25        64.79905
699.68        65.07335
700.10        65.20161
700.52        65.11407
700.94        64.89358
701.37        64.65904
701.79        64.60506
702.21        64.76796
702.64         65.0623
703.06        65.39308
703.48        65.59215
703.90        65.60843
704.33        65.49934
704.75         65.3151
705.17        65.12549
705.59        64.97413
706.01        64.84525
706.44        64.76479
706.86        64.80945
707.28        64.97321
707.70        65.18939
708.12        65.42209
708.55        65.69955
708.97        65.94846
709.39        65.94017
709.81        65.71413
710.23        65.58367
710.66        65.58636
711.08        65.57169
711.50        65.51173
711.92        65.45209
712.34        65.39417
712.76         65.3434
713.19        65.30088
713.61        65.29974
714.03        65.33187
714.45        65.39403
714.87        65.49321
715.29        65.64291
715.71        65.83167
716.13        66.03419
716.56        66.19967
716.98        66.33492
717.40        66.39255
717.82        66.38476
718.24        66.29272
718.66        66.08794
719.08        65.79607
719.50        65.45585
719.92        65.15845
720.34        65.03699
720.76        65.11523
721.19        65.32922
721.61        65.64164
722.03        65.93533
722.45        66.15202
722.87        66.30625
723.29        66.35803
723.71        66.25195
724.13        65.99824
724.55        65.62627
724.97        65.23759
725.39        64.98794
725.81        64.92483
726.23        65.02992
726.65        65.25219
727.07         65.4569
727.49        65.66908
727.91        65.85387
728.33        66.04271
728.75        66.25731
729.17        66.48984
729.59        66.70457
730.01        66.85571
730.43        66.88877
730.85        66.79457
731.27        66.59885
731.69         66.3526
732.10        66.12923
732.52        65.95815
732.94        65.84824
733.36        65.81041
733.78        65.72786
734.20        65.58112
734.62        65.63498
735.04        65.97977
735.46        65.53799
735.88        66.23113
736.30        66.46974
736.72         66.7767
737.13        67.01176
737.55        67.09618
737.97        67.19202
738.39        67.22923
738.81        66.84527
739.23        66.19685
739.65         66.0557
740.06        66.37708
740.48        66.50998
740.90        66.40562
741.32        66.47041
741.74        66.69982
742.16        66.86046
742.57        66.92983
742.99        66.95387
743.41        66.93085
743.83        66.84512
744.25        66.70752
744.67          66.509
745.08        66.33709
745.50        66.31395
745.92         66.4658
746.34        66.74934
746.75        67.04395
747.17        67.13784
747.59        66.99545
748.01        66.68864
748.42        66.33315
748.84         66.1319
749.26         66.1412
749.68        66.24474
750.09        66.39274
750.51        66.61984
750.93        66.83154
751.35        66.81718
751.76        66.59524
752.18        66.41222
752.60        66.28827
753.01         66.1022
753.43        65.86985
753.85        65.72058
754.27        65.68316
754.68        65.73778
755.10        65.86838
755.52        66.04071
755.93        66.22025
756.35        66.38799
756.77        66.55487
757.18        66.67281
757.60        66.73989
758.02        66.90044
758.43        67.06551
758.85        66.64266
759.26        66.47276
759.68        65.88594
760.10        65.86781
760.51        66.09486
760.93        66.64951
761.34        66.72653
761.76        66.76136
762.18         66.8863
762.59        67.23194
763.01        67.31673
763.42        67.22238
763.84        67.17641
764.26        67.20733
764.67        67.32819
765.09        67.47073
765.50        67.11666
765.92        66.47438
766.33        66.36978
766.75        66.70785
767.16        66.77675
767.58        66.51003
768.00        66.29549
768.41        66.25701
768.83        66.63878
769.24        67.24307
769.66        67.27672
770.07        66.81183
770.49        66.56213
770.90        66.67361
771.32         67.1304
771.73        67.76903
772.15        68.04331
772.56        67.90083
772.97        67.63521
773.39        67.37354
773.80         67.2033
774.22        67.15605
774.63        67.26389
775.05        67.40797
775.46        67.46532
775.88         67.3719
776.29        67.19668
776.70        67.02766
777.12        67.02028
777.53        67.21581
777.95        67.52498
778.36        67.84866
778.77        67.98623
779.19        67.90522
779.60        67.68533
780.02         67.4085
780.43        67.25987
780.84        67.30637
781.26        67.28212
781.67        67.23827
782.09        67.70412
782.50        68.43295
782.91        68.32951
783.33        67.51928
783.74        67.18601
784.15        67.39748
784.57        67.57669
784.98        67.64112
785.39        67.53373
785.81        67.33421
786.22        67.48886
786.63        67.94207
787.04        68.17684
787.46        68.17425
787.87        68.19241
788.28        68.27166
788.70        68.33923
789.11        68.38019
789.52        68.43678
789.93        68.48277
790.35        68.46689
790.76        68.39655
791.17        68.27829
791.58        68.15836
792.00        68.06966
792.41        68.03748
792.82        68.11798
793.23        68.25313
793.65        68.16434
794.06        67.93626
794.47        68.02789
794.88        68.33862
795.29        68.45689
795.71        68.09978
796.12        67.81237
796.53        67.63805
796.94        67.53972
797.35        67.61375
797.76        68.11661
798.18         68.8486
798.59        69.26345
799.00        69.24429
799.41        69.02415
799.82        68.75069
800.23        68.60001
800.64          68.637
801.06        68.77297
801.47        68.95617
801.88        69.00982
802.29        68.88569
802.70        68.64873
803.11        68.36664
803.52        68.13966
803.93        68.02234
804.34        67.99423
804.75        68.04478
805.17        68.20345
805.58        68.49754
805.99        68.70602
806.40        68.83795
806.81        69.35929
807.22        70.03276
807.63        69.81609
808.04        68.87018
808.45        68.37112
808.86        68.43237
809.27        68.44981
809.68        68.32716
810.09        68.19382
810.50        68.03752
810.91        67.83472
811.32        67.71807
811.73        67.89137
812.14        68.37733
812.55        69.10676
812.96        69.85796
813.37        70.21262
813.78        70.04877
814.19        69.51104
814.60        68.82051
815.01         68.2825
815.42        67.97912
815.83        67.82475
816.24        67.79384
816.65        67.83389
817.05        67.92387
817.46          68.081
817.87        68.26843
818.28        68.36708
818.69        68.35384
819.10        68.21685
819.51        68.08338
819.92        68.19714
820.33        68.59609
820.74        69.19985
821.14        69.77289
821.55        69.93415
821.96        69.61322
822.37         68.9348
822.78        68.16134
823.19        67.73929
823.60        67.80475
824.00        68.25439
824.41        68.85101
824.82        69.28373
825.23        69.42149
825.64        69.35487
826.04        69.17184
826.45        68.97321
826.86        68.82636
827.27        68.70518
827.68        68.58675
828.08        68.47424
828.49        68.32263
828.90        68.16113
829.31        68.08833
829.72         68.2504
830.12        68.68106
830.53        69.27461
830.94        69.81578
831.35        69.89588
831.75        69.44289
832.16        68.56519
832.57        67.58921
832.97        67.01455
833.38        66.97545
833.79        67.31253
834.20         67.8359
834.60        68.23559
835.01        68.41402
835.42        68.50681
835.82        68.55198
836.23        68.53199
836.64        68.49593
837.04        68.38715
837.45        68.34328
837.86        68.66882
838.26        69.41888
838.67        70.47194
839.08        71.47148
839.48        71.73161
839.89          71.096
840.29           69.82
840.70        68.49177
841.11        67.78244
841.51         67.8623
841.92        68.51311
842.33        69.47723
842.73        70.28336
843.14        70.63805
843.54        70.72326
843.95        70.64606
844.35        70.63985
844.76        70.74982
845.17        70.87493
845.57        70.93893
845.98        70.81044
846.38        70.49103
846.79        70.04919
847.19        69.58463
847.60        69.21477
848.00        68.99425
848.41        68.86684
848.81        68.83488
849.22        68.81752
849.62        68.82454
850.03        68.86287
850.43        68.92097
850.84        68.90861
851.24        68.85739
851.65        68.72274
852.05        68.65331
852.46        68.80316
852.86        69.18849
853.27        69.72629
853.67        70.19782
854.07          70.424
854.48        70.34213
854.88        70.03922
855.29        69.55529
855.69        69.10423
856.10        68.71011
856.50        68.41105
856.90        68.18395
857.31        68.00366
857.71        67.91483
858.12        67.87546
858.52        67.93745
858.92        68.05553
859.33        68.19505
859.73        68.40402
860.13        68.58077
860.54        68.59032
860.94        68.45318
861.34        68.17436
861.75        67.90838
862.15        67.96416
862.55        68.36758
862.96         68.9793
863.36        69.60947
863.76        69.84691
864.17         69.5717
864.57        68.96174
864.97        68.13727
865.38        67.28622
865.78        66.54129
866.18        65.86969
866.58        65.40564
866.99        65.37667
867.39        65.82443
867.79        66.64991
868.19        67.63442
868.60        68.42014
869.00        68.92667
869.40        69.19681
869.80        69.24536
870.21        69.13892
870.61        68.98989
871.01        68.73666
871.41        68.42067
871.81        68.10093
872.22         67.7847
872.62        67.47437
873.02        67.21658
873.42        67.05529
873.82        67.00148
874.22        67.06026
874.63        67.11835
875.03        67.01707
875.43        66.71601
875.83        66.24915
876.23        65.81162
876.63        65.70881
877.03        66.00076
877.44        66.58986
877.84        67.23011
878.24        67.50656
878.64        67.28518
879.04        66.57064
879.44        65.77849
879.84        65.64841
880.24        66.27117
880.64        67.36038
881.04        68.44173
881.44        68.75806
881.84        68.12832
882.24        66.83214
882.65        65.33626
883.05        64.35111
883.45        64.09653
883.85        64.38438
884.25        64.98269
884.65        65.49005
885.05        65.75241
885.45        65.88071
885.85        65.98204
886.25        66.21215
886.65        66.59759
887.05         67.0477
887.45         67.4175
887.85        67.49945
888.25        67.25529
888.65        66.77599
889.04        66.23889
889.44        65.93938
889.84        65.93475
890.24        66.13784
890.64        66.42494
891.04        66.58493
891.44        66.55638
891.84         66.4275
892.24         66.2438
892.64        66.06129
893.04        65.92311
893.44        65.81892
893.83        65.82228
894.23        66.00998
894.63        66.39583
895.03        66.91451
895.43        67.48236
895.83        67.96066
896.23        68.27875
896.63        68.45585
897.02        68.41865
897.42         68.0955
897.82        67.51557
898.22        66.74624
898.62         65.9805
899.01         65.4931
899.41        65.36374
899.81        65.51665
900.21        65.82075
900.61        66.04627
901.00        66.11389
901.40        66.07171
901.80        65.97975
902.20        65.93421
902.59        65.97704
902.99        66.07077
903.39        66.16088
903.79        66.16578
904.18        66.06031
904.58        65.87122
904.98        65.73072
905.38        65.84285
905.77        66.23565
906.17         66.8708
906.57        67.48999
906.96        67.66351
907.36        67.29981
907.76        66.55248
908.15        65.82011
908.55        65.71963
908.95        66.37708
909.34         67.5714
909.74        68.86156
910.14        69.60493
910.53        69.57368
910.93         69.0088
911.33        68.07491
911.72        67.01247
912.12          66.044
912.52        65.14014
912.91         64.4543
913.31        64.24139
913.70        64.52226
914.10        65.19055
914.49        66.13725
914.89        67.05173
915.29         67.8069
915.68        68.45856
916.08        68.80608
916.47        68.62933
916.87        67.96446
917.26        66.87552
917.66        65.82854
918.05        65.38865
918.45        65.66588
918.84        66.55443
919.24        67.63497
919.64        68.27073
920.03        68.27201
920.42        67.78697
920.82        67.17473
921.21        66.94688
921.61        67.21483
922.00        67.84448
922.40        68.53008
922.79        68.89088
923.19        68.77679
923.58        68.36334
923.98        67.87571
924.37         67.5632
924.77        67.51804
925.16        67.61615
925.55        67.79708
925.95        67.94685
926.34        68.02655
926.74        68.05187
927.13        67.98386
927.52        67.68614
927.92        67.20977
928.31        66.60127
928.70        66.01475
929.10         65.6582
929.49        65.56548
929.89        65.61585
930.28        65.86205
930.67        66.27283
931.07        66.76447
931.46        67.41309
931.85        67.89546
932.24        67.73781
932.64        66.93852
933.03         65.6358
933.42        64.40347
933.82        64.08001
934.21        64.82447
934.60        66.43033
934.99        68.34151
935.39        69.53311
935.78        69.71519
936.17        69.07383
936.56        68.07524
936.96        67.46725
937.35        67.45776
937.74        67.81818
938.13        68.18843
938.53        68.04195
938.92        67.28397
939.31        66.16445
939.70        65.05551
940.09        64.44703
940.49         64.4213
940.88        64.85679
941.27        65.51477
941.66        65.95837
942.05        66.04873
942.44        65.93689
942.84         65.7978
943.23        65.89721
943.62        66.29935
944.01         66.8383
944.40        67.44034
944.79        68.02303
945.18        68.50076
945.57        68.88673
945.97        68.96788
946.36        68.50079
946.75        67.46441
947.14        66.04964
947.53        64.61413
947.92        63.64382
948.31        63.26701
948.70        63.37521
949.09        63.84704
949.48        64.44775
949.87         65.0461
950.26        65.65397
950.65        66.22575
951.04        66.69937
951.43         67.0387
951.82        67.22234
952.21        67.19501
952.60        66.90773
952.99        66.41885
953.38        65.81336
953.77        65.29874
954.16        65.18745
954.55         65.5286
954.94        66.19089
955.33        67.02106
955.72         67.7278
956.11        68.16032
956.50        68.38939
956.89        68.25916
957.28        67.54946
957.66        66.30864
958.05        64.70459
958.44        63.19135
958.83        62.40724
959.22        62.45892
959.61        63.18816
960.00        64.23276
960.39         64.8811
960.78        64.88337
961.16        64.42852
961.55        63.82051
961.94        63.44514
962.33        63.42994
962.72        63.67033
963.11        64.05285
963.49        64.41389
963.88        64.59145
964.27        64.62005
964.66        64.68214
965.04         65.0743
965.43        65.78705
965.82        66.79637
966.21        67.62287
966.60        67.39368
966.98        65.94406
967.37        63.68792
967.76         61.5024
968.15        60.47583
968.53        60.78281
968.92        62.17146
969.31        63.95076
969.69        64.72815
970.08        64.00192
970.47        62.25548
970.86        60.43483
971.24        59.86693
971.63        60.82302
972.02        62.92337
972.40         65.4408
972.79        66.65769
973.17        66.08665
973.56        64.34573
973.95        62.32547
974.33        61.16719
974.72        61.14245
975.11        61.86339
975.49        63.03695
975.88        64.04058
976.26        64.62601
976.65        64.93703
977.04        65.01398
977.42        64.86712
977.81        64.51324
978.19        63.90432
978.58         63.2696
978.96        62.97812
979.35        63.09106
979.74        63.56059
980.12        64.23147
980.51        64.56111
980.89        64.52605
981.28         64.2569
981.66        63.96441
982.05        63.92939
982.43        64.23058
982.82        64.71964
983.20        65.45452
983.59        66.42786
983.97        67.63923
984.35        69.05486
984.74        70.20207
985.12        70.54819
985.51        69.92239
985.89        68.49863
986.28         66.9511
986.66        66.22289
987.04        66.58595
987.43        67.79027
987.81        69.24911
988.20        69.69341
988.58        68.78722
988.96        66.87607
989.35          64.751
989.73        63.50879
990.12        63.38223
990.50        64.12231
990.88        65.08176
991.27        65.14075
991.65        64.05851
992.03        62.26006
992.42        60.62605
992.80        60.34101
993.18        61.63404
993.56        64.13818
993.95        66.96046
994.33        68.55877
994.71        68.26625
995.10        66.67652
995.48        64.59294
995.86        63.27195
996.24        63.03954
996.63        63.37088
997.01        64.17475
997.39        64.92265
997.77        65.32323
998.15        65.69559
998.54         65.7486
998.92        64.87868
999.30        63.19838
999.68        60.88494
1000.06        58.89284
1000.45        58.59255
1000.83        60.33621
1001.21        63.92289
1001.59        68.33205
1001.97        71.01909
1002.35        70.99097
1002.73        68.98872
1003.12        66.55824
1003.50        65.70706
1003.88        66.97987
1004.26        69.63779
1004.64         72.9752
1005.02        75.45805
1005.40        76.28331
1005.78        76.06712
1006.16        74.69524
1006.54        71.94481
1006.92        68.23981
1007.30        63.88858
1007.69        60.19029
1008.07        58.81718
1008.45         60.2266
1008.83        64.07164
1009.21        69.45532
1009.59        73.81077
1009.97        75.59871
1010.35        75.29098
1010.73        73.23112
1011.11        70.14961
1011.49         66.7055
1011.86         62.9427
1012.24        59.67943
1012.62        57.93775
1013.00        57.82684
1013.38        59.18549
1013.76        61.58898
1014.14        63.69007
1014.52         64.7161
1014.90        64.90376
1015.28        64.42911
1015.66        63.68765
1016.04        62.87217
1016.41        61.78802
1016.79        60.71944
1017.17        60.34484
1017.55        60.78382
1017.93         61.8575
1018.31        63.08425
1018.69        63.71702
1019.06        63.60318
1019.44        62.93419
1019.82        61.87373
1020.20        60.92159
1020.58        60.38679
1020.95        60.04618
1021.33        60.08511
1021.71        60.62723
1022.09        61.69286
1022.46        63.51162
1022.84        65.53994
1023.22        66.38321
1023.60        65.51517
1023.97        63.14645
1024.35        60.94437
1024.73        60.77411
