SpectraSmart Spectrum 2.9.0.0
--------- Device Information -----------
Spectrum Name :  反射率_0
Saving Time :  2024/04/27 00:05:42
Spectro-Module Model Name : SE2030-DUVN
Spectro-Module Serial Number : OS361AC55029948
Wavelength Start : 200
Wavelength End : 1025
Wavelength Unit : Wavelength(nm)
Spectrum Unit : Reflectance(%)
-----------Spectrum Setting ------------
Integration Time : 20ms
Average : 10
Boxcar : 0
Background removal :  enabled
linearity correction :  enabled
SC :  disabled
Intensity correction :  disabled
DWT denoise :  enabled
savitzky-golay :  disabled
FFT :  disabled
Running average :  disabled
Kalman :  disabled
High pass :  disabled
---------------BEGIN--------------------
Wavelength(nm)             Reflectance(%)
200.29               0
200.75        32.91836
201.21        38.18189
201.67        42.76311
202.13        44.41924
202.58        43.02468
203.04        39.27568
203.50        34.09897
203.96        30.91483
204.42        32.21734
204.88        37.43205
205.34        44.39256
205.80        48.70683
206.26        48.74076
206.72        45.87572
207.18        42.01953
207.64         38.4472
208.10        35.03102
208.55        31.15127
209.01        25.52951
209.47        19.37661
209.93        15.89327
210.39        15.38932
210.85        16.76064
211.31        19.49881
211.77        24.56508
212.23          35.793
212.69        63.99459
213.14        113.9407
213.60        116.4035
214.06        84.03303
214.52         61.3243
214.98        51.88012
215.44        48.93258
215.90        48.07206
216.36        48.29739
216.81        48.51831
217.27        48.60917
217.73        49.98454
218.19        51.68539
218.65        49.71592
219.11        44.59043
219.57        39.14226
220.02        36.61918
220.48        39.12554
220.94        46.61696
221.40        60.46734
221.86         79.7654
222.32        90.52564
222.77        82.10419
223.23        64.39558
223.69        48.44255
224.15        40.22727
224.61        37.98259
225.06        38.42831
225.52        39.74806
225.98        40.07806
226.44        39.20611
226.90        37.92617
227.36        36.52835
227.81        35.43414
228.27        34.92505
228.73        34.60075
229.19        34.62859
229.65        35.28728
230.10        36.51099
230.56        38.29606
231.02        39.95673
231.48        40.36692
231.93        39.39709
232.39        37.68796
232.85        36.17619
233.31        36.16312
233.77        37.71222
234.22        40.36114
234.68         43.2336
235.14        45.03975
235.60        45.41556
236.05        44.79588
236.51        43.59112
236.97        42.70586
237.43        42.62701
237.88        43.13938
238.34        44.30971
238.80        46.53567
239.26        50.05132
239.71        55.55458
240.17        62.57663
240.63        69.21632
241.08        73.98545
241.54        75.96424
242.00         76.5951
242.46         79.9633
242.91        89.20982
243.37        105.6314
243.83        130.4094
244.28        154.0667
244.74        159.9934
245.20        146.3601
245.66        125.8381
246.11        110.6707
246.57        102.1986
247.03         97.2365
247.48        92.22955
247.94        83.33401
248.40        73.11834
248.85        64.58174
249.31        59.53088
249.77        58.29934
250.22        60.16609
250.68        64.78941
251.14        71.50294
251.59        76.62388
252.05        77.75314
252.51         76.6021
252.96        73.91064
253.42         71.1289
253.88        68.72412
254.33        65.99564
254.79        65.26482
255.25        68.31478
255.70        74.52152
256.16        83.06762
256.62        90.08567
257.07        89.79134
257.53        84.10557
257.99         76.8303
258.44        70.93528
258.90        69.11346
259.35        70.05092
259.81        72.58743
260.27         75.1129
260.72        75.73682
261.18        74.62529
261.63        72.36526
262.09        70.12496
262.55        68.48174
263.00        67.36781
263.46        66.67557
263.91        65.85159
264.37        64.62597
264.83        62.96614
265.28        61.04183
265.74        59.38841
266.19        58.29485
266.65        57.83286
267.11        57.71796
267.56        57.62523
268.02        57.06569
268.47        55.92792
268.93        54.44748
269.38        52.77557
269.84        51.20794
270.30         49.8344
270.75        48.55134
271.21        47.47945
271.66        46.72894
272.12        46.28156
272.57         46.0774
273.03        45.84812
273.48        45.13995
273.94        43.95002
274.39        42.40841
274.85        40.90379
275.31        39.82652
275.76        39.21676
276.22        38.96075
276.67        38.82248
277.13        38.57448
277.58        38.09042
278.04        37.48136
278.49        36.76781
278.95        36.10427
279.40        35.47616
279.86        34.92044
280.31        34.33004
280.77        33.68193
281.22        32.94265
281.68        32.20747
282.13        31.55783
282.59        31.19195
283.04        31.08625
283.50        31.20246
283.95        31.36745
284.41         31.3237
284.86        31.01997
285.32        30.57357
285.77         30.1443
286.22        30.02753
286.68        30.26259
287.13        30.69943
287.59        31.19015
288.04        31.46063
288.50        31.46792
288.95        31.27336
289.41        30.99389
289.86        30.72284
290.32        30.54728
290.77        30.43382
291.22        30.40777
291.68        30.48814
292.13        30.68193
292.59        31.03654
293.04        31.57664
293.50        32.34543
293.95        33.33129
294.40        34.50977
294.86        35.83749
295.31        37.24116
295.77        38.68992
296.22         40.1585
296.68        41.64607
297.13        43.14355
297.58        44.65943
298.04        46.19888
298.49        47.74149
298.95        49.28193
299.40        50.80864
299.85        52.32946
300.31          53.894
300.76        55.54883
301.21        57.30594
301.67        59.16506
302.12        61.01546
302.58         62.7813
303.03        64.39711
303.48        65.91511
303.94        67.43786
304.39        69.05009
304.84        70.79407
305.30        72.64025
305.75        74.45807
306.20        76.14326
306.66        77.68475
307.11        79.08718
307.57        80.42371
308.02        81.69404
308.47        82.93647
308.93        84.14127
309.38        85.31051
309.83        86.56709
310.29        87.92161
310.74        89.33579
311.19        90.66762
311.65         91.6555
312.10        92.23392
312.55        92.48645
313.00        92.63356
313.46        93.02055
313.91        93.70625
314.36        94.62173
314.82        95.58725
315.27         96.3216
315.72        96.72974
316.18        96.92709
316.63        97.02744
317.08         97.2569
317.53        97.67389
317.99        98.18432
318.44        98.71493
318.89        99.12368
319.35        99.36295
319.80        99.49303
320.25        99.55167
320.70        99.59406
321.16        99.65177
321.61        99.75448
322.06        99.90516
322.51        100.1203
322.97        100.3845
323.42        100.6849
323.87        101.0623
324.32        101.6041
324.78        102.2651
325.23        103.0805
325.68        103.7804
326.13        103.9405
326.59        103.4888
327.04         102.589
327.49        101.6347
327.94        101.2755
328.39        101.6691
328.85        102.6143
329.30        103.8643
329.75        104.7095
330.20         104.917
330.66        104.6527
331.11        104.2529
331.56        104.1927
332.01        104.6152
332.46         105.338
332.92        106.1009
333.37        106.6352
333.82        106.7832
334.27        106.7026
334.72        106.5234
335.17        106.4332
335.63        106.5085
336.08        106.7414
336.53        107.1587
336.98        107.8535
337.43        108.8045
337.88        109.9531
338.34        111.1147
338.79        112.0907
339.24        112.7352
339.69        113.0901
340.14         113.168
340.59        113.0233
341.05        112.7584
341.50        112.3989
341.95        112.1086
342.40        112.1253
342.85        112.5055
343.30         113.184
343.75        114.0653
344.20        114.9675
344.66        115.7934
345.11        116.5533
345.56        117.1582
346.01        117.4901
346.46        117.5606
346.91        117.4233
347.36        117.2164
347.81        117.1788
348.26        117.3614
348.72         117.674
349.17        118.0707
349.62        118.5058
350.07        118.9249
350.52        119.3628
350.97         119.611
351.42        119.3376
351.87        118.5327
352.32        117.3208
352.77        116.1228
353.22        115.5583
353.67        115.7372
354.13        116.4773
354.58        117.3765
355.03         117.712
355.48        117.2879
355.93        116.3145
356.38        115.1883
356.83        114.5102
357.28        114.4002
357.73        114.6376
358.18        114.8807
358.63        114.5957
359.08        113.6613
359.53        112.2936
359.98        110.7831
360.43        109.5335
360.88        108.6467
361.33        107.9896
361.78        107.4183
362.23        106.7156
362.68          105.83
363.13        104.8646
363.58        103.8932
364.03        103.0057
364.48        102.2252
364.93        101.4972
365.38        100.8189
365.83        100.2056
366.28        99.64932
366.73        99.15134
367.18        98.64699
367.63        98.02729
368.08        97.27308
368.53        96.41394
368.98        95.53546
369.43        94.77561
369.88        94.16843
370.33        93.67677
370.78        93.22252
371.23        92.68139
371.68        92.01725
372.13        91.25897
372.58         90.4845
373.03        89.81281
373.48        89.26311
373.93        88.79472
374.38        88.29848
374.83        87.61115
375.28        86.71151
375.72        85.64861
376.17        84.61616
376.62        83.79441
377.07        83.23656
377.52        82.90673
377.97        82.68177
378.42        82.37228
378.87        81.93027
379.32        81.38287
379.77        80.89436
380.22        80.70634
380.67        80.83067
381.11        81.20532
381.56        81.48085
382.01        81.16994
382.46        80.21239
382.91        78.84027
383.36        77.47174
383.81        76.67287
384.26          76.537
384.71        76.86823
385.15         77.4117
385.60        77.72062
386.05        77.64457
386.50        77.31185
386.95        76.80435
387.40        76.25386
387.85        75.73083
388.29         75.1529
388.74        74.64805
389.19        74.20696
389.64        73.83073
390.09        73.52553
390.54        73.27814
390.98        73.04008
391.43         72.8283
391.88        72.62601
392.33        72.43674
392.78        72.22755
393.23        71.98738
393.67        71.80392
394.12        71.69021
394.57        71.27082
395.02         70.6611
395.47         70.4441
395.91        70.59736
396.36        70.52995
396.81        70.23869
397.26        70.07512
397.71        69.99445
398.15        69.78825
398.60        69.53519
399.05        69.11125
399.50        68.64064
399.95        68.59751
400.39         68.8727
400.84        68.68287
401.29        68.05944
401.74        67.68739
402.18        67.61276
402.63        67.41891
403.08         67.1452
403.53        67.01627
403.97        67.02437
404.42        67.09582
404.87         67.1607
405.32        67.07566
405.76        66.81129
406.21        66.54928
406.66        66.30686
407.11        65.94937
407.55        65.63715
408.00        65.65683
408.45        65.98027
408.90        66.45901
409.34        66.80889
409.79        66.41032
410.24        65.49131
410.68        65.02502
411.13        65.09367
411.58         65.1452
412.03        65.06318
412.47        64.92769
412.92        64.69643
413.37        64.38986
413.81        64.10081
414.26        64.02145
414.71        64.15389
415.15         64.4657
415.60        64.82753
416.05        65.08195
416.49        65.17226
416.94        65.13165
417.39        65.02454
417.83        64.93912
418.28        64.91286
418.73        64.92094
419.17        64.94682
419.62        64.96868
420.07        64.96547
420.51        64.92407
420.96        64.89264
421.41        64.84457
421.85        64.75233
422.30         64.8082
422.74        64.87271
423.19        64.56149
423.64        63.97136
424.08        63.78791
424.53        64.02486
424.98        64.14272
425.42        64.12197
425.87        64.36713
426.31        64.74991
426.76        64.64825
427.21        64.13049
427.65        63.79695
428.10         63.7257
428.54        63.70531
428.99        63.78991
429.44        63.88048
429.88        64.03269
430.33        64.67615
430.77        65.49423
431.22         65.8078
431.66        65.54665
432.11        64.99224
432.56        64.40607
433.00        64.18995
433.45        64.52371
433.89        65.22985
434.34        65.65262
434.78        66.53462
435.23        65.56871
435.67        63.77813
436.12        64.21182
436.57        64.29743
437.01        64.83121
437.46        65.05058
437.90        64.97539
438.35        64.29634
438.79        64.57397
439.24         64.5985
439.68        64.78178
440.13        65.17873
440.57         65.6811
441.02        65.77924
441.46        65.51984
441.91        65.70042
442.35        66.15113
442.80        66.19202
443.24        65.86523
443.69        65.88935
444.13        66.22943
444.58        66.40832
445.02        66.39383
445.47        66.41917
445.91        66.50739
446.36        66.62286
446.80        66.75046
447.24        66.97094
447.69        67.09928
448.13        67.23405
448.58        67.32701
449.02        67.37016
449.47        67.37553
449.91        67.33183
450.36        67.26998
450.80         67.1786
451.25        67.10046
451.69        67.04868
452.13        67.03965
452.58         67.0505
453.02        67.07607
453.47        67.11386
453.91         67.1479
454.36        67.20045
454.80        67.22809
455.24        67.03601
455.69        66.58932
456.13        66.18702
456.58        66.08416
457.02        65.23118
457.46        65.33971
457.91        66.08136
458.35          65.874
458.79        65.84019
459.24        65.44124
459.68        64.78275
460.13        64.12486
460.57        63.84471
461.01        64.06003
461.46        64.48859
461.90        64.92171
462.34        65.66479
462.79          65.256
463.23         65.4808
463.68        65.76472
464.12        65.57336
464.56        64.90866
465.01        64.00893
465.45        63.14624
465.89        63.06051
466.34        63.57695
466.78        63.84544
467.22        63.76463
467.67        63.42849
468.11        63.11039
468.55        63.24017
468.99        63.33393
469.44        63.29699
469.88        62.98763
470.32        62.77494
470.77        62.69232
471.21        62.61412
471.65        62.53505
472.10        62.49134
472.54        62.48397
472.98        62.46382
473.42        62.40825
473.87        62.49723
474.31        62.59811
474.75        62.20165
475.20        61.52389
475.64        61.36644
476.08        61.88053
476.52        61.94773
476.97        61.55544
477.41        61.42756
477.85        61.71242
478.29        61.27823
478.74         61.5205
479.18         62.1493
479.62        61.74781
480.06        61.78906
480.50        61.72063
480.95        61.62307
481.39        61.51414
481.83        61.21978
482.27        61.15132
482.72        61.46468
483.16        61.32253
483.60        61.40826
484.04        61.41935
484.48        61.52117
484.93        61.61385
485.37        61.32941
485.81        61.08036
486.25        60.85744
486.69        61.69793
487.14        62.43858
487.58        61.07389
488.02        61.60104
488.46        60.55604
488.90        60.77965
489.34        61.66955
489.79        62.23856
490.23        61.55838
490.67        60.97169
491.11        60.46436
491.55         60.2976
491.99         60.4275
492.43        60.34564
492.88        60.05305
493.32        59.97834
493.76        60.13882
494.20        60.26728
494.64        60.32892
495.08        60.49056
495.52        60.67645
495.96        60.54343
496.41        60.17262
496.85        60.11945
497.29        60.28487
497.73        60.39689
498.17        59.74417
498.61        59.81231
499.05        60.29217
499.49        60.47765
499.93         60.1445
500.37        60.11833
500.82         60.3213
501.26        60.27982
501.70        60.03832
502.14        60.01452
502.58        60.21711
503.02        60.35258
503.46        60.42735
503.90        60.57428
504.34        60.73125
504.78        60.70613
505.22        60.47131
505.66        60.12077
506.10        59.78469
506.54        59.52475
506.98        59.35629
507.42        59.70951
507.86         59.8731
508.30        59.77987
508.74        60.00124
509.18        59.94049
509.62        59.86484
510.06        59.80958
510.50        59.80279
510.94        59.80379
511.38        59.80032
511.82        59.80093
512.26        59.80124
512.70        59.80832
513.14        59.81445
513.58        59.80122
514.02        59.76852
514.46        59.72281
514.90        59.68195
515.34        59.67632
515.78        59.70932
516.22        59.76495
516.66        59.82662
517.10         59.8679
517.54        59.87906
517.98        59.87082
518.42        59.83546
518.86        59.76189
519.30        59.65601
519.74        59.52337
520.18        59.40367
520.62        59.35692
521.06        59.39642
521.50        59.51255
521.93        59.65959
522.37        59.73986
522.81        59.73861
523.25        59.67596
523.69        59.61018
524.13        59.63645
524.57        59.76513
525.01        59.95079
525.45        60.12256
525.89        60.16884
526.32        60.05815
526.76         59.8537
527.20        59.59679
527.64        59.35525
528.08        59.16302
528.52        59.00552
528.96        58.91168
529.40        58.92457
529.83        59.03802
530.27        59.24229
530.71        59.46478
531.15        59.59265
531.59        59.59669
532.03        59.50033
532.46        59.34901
532.90        59.26193
533.34        59.25858
533.78        59.27549
534.22         59.2803
534.66        59.29756
535.09        59.27299
535.53        59.08776
535.97        58.80317
536.41        58.66443
536.85        58.69925
537.28        58.78873
537.72        58.89581
538.16        59.00659
538.60        59.09788
539.04        59.16777
539.47        59.21275
539.91        59.26799
540.35        59.32215
540.79        59.36443
541.22        59.37236
541.66        59.33237
542.10        59.24046
542.54         59.1144
542.97        58.97116
543.41        58.86361
543.85        58.79564
544.29         58.7591
544.72        58.74224
545.16         58.7516
545.60        58.77269
546.04        58.84235
546.47        58.93867
546.91        58.97308
547.35        58.97078
547.79        59.01929
548.22        59.11152
548.66        59.25266
549.10        59.42394
549.53        59.32863
549.97        59.03212
550.41        58.78686
550.84        58.68129
551.28        58.69251
551.72        58.76973
552.15        58.87069
552.59        59.01295
553.03        58.77409
553.46        59.06977
553.90        59.05107
554.34        58.97943
554.77        58.94163
555.21        58.84663
555.65        58.84731
556.08        58.96249
556.52        59.02847
556.96        59.03914
557.39        59.13721
557.83        59.27479
558.27        59.11898
558.70        58.72848
559.14        58.57012
559.57        58.63917
560.01        58.58855
560.45        58.46508
560.88        58.61699
561.32          58.977
561.75        59.17683
562.19        59.16916
562.63        58.92982
563.06        58.57957
563.50        58.51491
563.93        58.67254
564.37        58.75959
564.80        58.76139
565.24        58.67291
565.68        58.38225
566.11        58.98264
566.55        58.35963
566.98        58.16345
567.42         57.9321
567.85        58.05603
568.29        58.48795
568.72        58.83797
569.16        59.11408
569.60        59.20681
570.03        59.29587
570.47        59.36094
570.90        59.57039
571.34         58.8221
571.77        59.38805
572.21        59.50637
572.64        59.70138
573.08        59.61359
573.51        59.24947
573.95         59.1951
574.38        59.52952
574.82        59.70491
575.25        59.20175
575.69        59.20349
576.12        59.51661
576.56        59.19269
576.99        59.00376
577.42        59.18242
577.86        59.22066
578.29        59.80536
578.73        59.90001
579.16        59.70024
579.60        58.99274
580.03        59.01286
580.47        59.02953
580.90        59.68711
581.33        59.60156
581.77        60.09855
582.20        59.78313
582.64        60.01521
583.07        59.57695
583.51        59.31406
583.94        59.16574
584.37         59.2058
584.81        59.46413
585.24        59.49432
585.68        59.26105
586.11        59.53889
586.54        59.38493
586.98        59.02219
587.41        58.29359
587.85        58.87297
588.28        58.59911
588.71        58.84221
589.15        58.42332
589.58        58.78559
590.01        58.63841
590.45        58.64868
590.88         59.3393
591.31        59.20457
591.75        58.68487
592.18        58.35456
592.61        58.30982
593.05        59.06538
593.48        59.42073
593.91         59.1134
594.35        59.39551
594.78        58.88269
595.21        58.22741
595.65        58.49701
596.08        59.71199
596.51        59.51962
596.94        58.80466
597.38        58.42169
597.81        58.70493
598.24        58.89735
598.68        58.88025
599.11        58.32617
599.54        59.61337
599.97        58.76933
600.41        58.91003
600.84        58.36455
601.27        58.69978
601.70        58.71458
602.14        58.75267
602.57        58.64017
603.00        58.58982
603.43        57.96623
603.87        58.88952
604.30        58.93218
604.73        58.76104
605.16          58.396
605.60        58.22046
606.03        57.98621
606.46        57.80215
606.89        57.91156
607.32        58.62004
607.76        58.15915
608.19        58.58568
608.62        58.39127
609.05        58.27605
609.48        58.22264
609.92        59.02111
610.35        58.64414
610.78        58.13907
611.21        58.26163
611.64        58.22993
612.07        58.45149
612.50        58.28159
612.94        58.28913
613.37        58.36132
613.80        58.15286
614.23         57.7624
614.66        57.77947
615.09        58.15459
615.52         58.2538
615.96        58.03571
616.39         57.9963
616.82        58.20532
617.25        57.85752
617.68        58.08511
618.11        58.10376
618.54        58.23111
618.97        58.26054
619.40        58.16619
619.84        58.28408
620.27        58.06726
620.70        57.99135
621.13         57.8722
621.56        57.57456
621.99        57.18283
622.42        57.02329
622.85        57.13401
623.28        57.27717
623.71        57.38462
624.14        57.47292
624.57        57.80828
625.00        57.45231
625.43         57.7538
625.86         57.7445
626.29        57.87574
626.72        57.31226
627.15        57.61247
627.58        57.52587
628.01        57.47439
628.44        57.35802
628.87         57.2034
629.30        57.10356
629.73        57.07985
630.16        57.11868
630.59        57.21435
631.02        57.40339
631.45        57.63134
631.88        57.73996
632.31        57.68879
632.74        57.68785
633.17        57.46452
633.60        57.34354
634.03        57.25904
634.46        57.19561
634.89        57.13692
635.32        57.07702
635.75        57.01763
636.18         56.9034
636.61        56.77402
637.04        56.72385
637.47         56.7625
637.89        56.85528
638.32        56.93599
638.75        56.95311
639.18         56.8915
639.61         56.7706
640.04        56.64467
640.47        56.59978
640.90        56.65529
641.33        56.78515
641.76        56.93948
642.18         57.0422
642.61        57.05143
643.04        56.99656
643.47        56.91522
643.90        56.86956
644.33        56.87335
644.76        56.90346
645.18        56.93092
645.61        56.89399
646.04        56.79237
646.47        56.66186
646.90         56.5318
647.33        56.44345
647.75         56.3879
648.18        56.37701
648.61        56.45509
649.04        56.52252
649.47        56.49652
649.89        57.16982
650.32        56.95613
650.75        56.93539
651.18        56.73159
651.61        56.60796
652.03        56.63616
652.46        56.80408
652.89        57.01698
653.32        57.05837
653.74        57.06216
654.17        56.68755
654.60        56.91488
655.03        57.26314
655.46        56.47477
655.88        56.20064
656.31        59.10209
656.74         60.3801
657.16        59.93145
657.59        59.87812
658.02        57.63066
658.45        57.68174
658.87        56.81626
659.30        57.06011
659.73        56.98714
660.15        57.77406
660.58        56.69252
661.01        56.46013
661.44         56.4337
661.86        56.40566
662.29        56.28379
662.72        56.66071
663.14        56.43047
663.57        56.34361
664.00        56.18718
664.42        56.23068
664.85        56.48979
665.27        56.82534
665.70        57.09826
666.13        57.19624
666.55        57.08923
666.98        56.75314
667.41        56.28358
667.83        56.20666
668.26        55.98652
668.69        56.04399
669.11        56.17487
669.54        56.32164
669.96        56.45577
670.39        56.61897
670.82        56.78557
671.24         56.8285
671.67        56.77227
672.09        56.73109
672.52        56.72993
672.94        56.74366
673.37         56.7372
673.80        56.56408
674.22        56.29951
674.65        56.19328
675.07        56.28642
675.50        56.43135
675.92        56.55403
676.35        56.58418
676.77        56.49734
677.20        56.30938
677.62        56.10384
678.05         56.0171
678.47        56.07582
678.90        56.24033
679.32        56.42341
679.75        56.49781
680.17        56.43114
680.60        56.27198
681.02        56.09274
681.45        56.01107
681.87        56.06999
682.30        56.19382
682.72         56.3475
683.15        56.51225
683.57        56.63943
684.00        56.57836
684.42        56.40764
684.85        56.40313
685.27        56.58078
685.70        56.80613
686.12        56.99378
686.54        57.07484
686.97        57.02045
687.39        56.86614
687.82        56.65951
688.24        56.49263
688.66        56.39665
689.09        56.34998
689.51        56.35529
689.94        56.38706
690.36        56.43935
690.78         56.5047
691.21        56.58569
691.63        56.67411
692.06        56.76682
692.48        56.87228
692.90        56.94135
693.33        56.90516
693.75        56.75371
694.17        56.47901
694.60        56.20665
695.02        56.13293
695.44        56.26522
695.87         56.5997
696.29         56.9686
696.71         56.8093
697.14        56.22905
697.56        55.99589
697.98        56.16328
698.41        56.21035
698.83        56.13401
699.25        56.30281
699.68        56.61478
700.10        56.75979
700.52        56.67555
700.94        56.46472
701.37        56.23276
701.79        56.15522
702.21        56.26846
702.64        56.49673
703.06        56.75917
703.48         56.9147
703.90        56.92007
704.33        56.82255
704.75        56.66927
705.17        56.52634
705.59        56.42968
706.01        56.36191
706.44        56.33091
706.86         56.3805
707.28        56.50113
707.70        56.64175
708.12        56.78861
708.55         56.9935
708.97        57.19816
709.39        57.19556
709.81        57.00801
710.23        56.88605
710.66        56.85715
711.08        56.80192
711.50        56.70232
711.92        56.60464
712.34        56.51565
712.76        56.43861
713.19        56.38483
713.61        56.40099
714.03        56.47891
714.45        56.60434
714.87        56.76477
715.29         56.9439
715.71        57.12366
716.13        57.29081
716.56        57.40242
716.98        57.46827
717.40        57.45629
717.82        57.38025
718.24        57.24643
718.66        57.06516
719.08        56.86287
719.50        56.65965
719.92        56.50855
720.34        56.48338
720.76         56.5913
721.19        56.78686
721.61        57.04182
722.03        57.26459
722.45        57.41161
722.87        57.49277
723.29        57.48721
723.71        57.36914
724.13        57.15566
724.55        56.87255
724.97        56.58592
725.39        56.41131
725.81        56.38239
726.23        56.44818
726.65        56.58298
727.07         56.8653
727.49        57.06101
727.91        57.33642
728.33        57.57813
728.75        57.70733
729.17        57.70227
729.59        57.57638
730.01        57.39476
730.43        57.26896
730.85        57.23025
731.27        57.25039
731.69        57.28628
732.10        57.26438
732.52        57.16747
732.94        57.03849
733.36        56.92561
733.78        56.79438
734.20        56.64959
734.62         56.6957
735.04        56.99015
735.46        56.56501
735.88        57.09117
736.30        57.20612
736.72        57.38647
737.13        57.54125
737.55        57.61443
737.97        57.73003
738.39        57.82372
738.81        57.58542
739.23         57.1381
739.65        57.12271
740.06        57.47451
740.48        57.62197
740.90        57.51997
741.32        57.51069
741.74        57.61858
742.16        57.70353
742.57        57.76264
742.99        57.81953
743.41        57.84601
743.83        57.78365
744.25        57.63139
744.67        57.40092
745.08        57.18515
745.50        57.11419
745.92        57.22404
746.34        57.47425
746.75        57.75962
747.17        57.89394
747.59         57.8374
748.01        57.64859
748.42        57.42785
748.84         57.3228
749.26        57.38113
749.68        57.57264
750.09        57.79526
750.51        57.88713
750.93        57.79081
751.35        57.52139
751.76        57.15831
752.18        56.88618
752.60        56.74425
753.01         56.6829
753.43        56.65502
753.85         56.6968
754.27        56.79078
754.68        56.93882
755.10        57.11285
755.52        57.26442
755.93        57.36929
756.35        57.41966
756.77        57.45654
757.18        57.48466
757.60         57.5112
758.02        57.67354
758.43        57.91226
758.85        57.56627
759.26         57.5329
759.68        57.24274
760.10        57.06248
760.51        57.18877
760.93        57.53497
761.34        57.70304
761.76        57.66449
762.18        57.63848
762.59        57.69442
763.01        57.80412
763.42        57.99297
763.84        58.04605
764.26        57.95573
764.67        57.90546
765.09        57.90695
765.50        57.61663
765.92        57.16294
766.33        57.06632
766.75         57.2398
767.16        57.11515
767.58        56.73192
768.00        56.72177
768.41        57.10303
768.83        57.55432
769.24        57.88715
769.66        57.84336
770.07        57.51077
770.49        57.25391
770.90        57.23291
771.32        57.65904
771.73        58.34883
772.15        58.60535
772.56        58.36435
772.97        57.98294
773.39        57.62869
773.80        57.43347
774.22        57.44384
774.63        57.66557
775.05        57.94283
775.46        58.08059
775.88        58.00067
776.29        57.79348
776.70         57.5697
777.12        57.52603
777.53         57.7121
777.95        58.01312
778.36        58.34908
778.77        58.56124
779.19        58.61723
779.60        58.59318
780.02        58.47494
780.43         58.3279
780.84        58.20511
781.26        57.79193
781.67        57.30053
782.09        57.75327
782.50        58.86492
782.91        58.98687
783.33        58.17253
783.74        57.93126
784.15        58.31284
784.57        58.41549
784.98        58.24149
785.39        58.21629
785.81        58.35155
786.22        58.52974
786.63        58.70829
787.04        58.82217
787.46        58.86419
787.87        58.84623
788.28        58.80404
788.70        58.77142
789.11        58.74063
789.52         58.7214
789.93        58.70447
790.35        58.66576
790.76        58.61269
791.17          58.555
791.58        58.50385
792.00        58.42475
792.41         58.3299
792.82        58.31786
793.23        58.37701
793.65        58.27344
794.06          58.142
794.47        58.48297
794.88        59.07902
795.29        59.52661
795.71         59.0534
796.12        58.67238
796.53        58.34659
796.94        58.13818
797.35         58.1698
797.76          58.639
798.18        59.32938
798.59        59.68641
799.00        59.58846
799.41        59.26636
799.82        58.88552
800.23         58.6579
800.64        58.65554
801.06        58.77645
801.47        58.95895
801.88        59.02243
802.29        58.91657
802.70        58.71733
803.11        58.47252
803.52        58.24929
803.93        58.09152
804.34        57.97399
804.75         57.9426
805.17        58.09731
805.58        58.46822
805.99        58.90211
806.40        59.29251
806.81        59.70347
807.22        59.96265
807.63         59.5612
808.04        58.70813
808.45         58.2425
808.86          58.285
809.27        58.45304
809.68        58.62749
810.09        58.75655
810.50        58.78183
810.91        58.72108
811.32        58.66774
811.73         58.7676
812.14        59.04158
812.55        59.42714
812.96        59.78396
813.37        59.86366
813.78        59.60876
814.19        59.13261
814.60        58.58144
815.01        58.14253
815.42        57.86515
815.83        57.69164
816.24        57.63245
816.65        57.70024
817.05        57.88796
817.46        58.18435
817.87        58.49747
818.28        58.64123
818.69        58.58069
819.10        58.32913
819.51        58.06371
819.92        58.11561
820.33        58.54909
820.74        59.25339
821.14        59.95384
821.55        60.20952
821.96        59.92709
822.37        59.25003
822.78        58.44008
823.19        57.94322
823.60        57.90271
824.00        58.20922
824.41        58.66577
824.82        59.01293
825.23        59.13976
825.64        59.13707
826.04        59.05327
826.45        58.92562
826.86        58.79966
827.27        58.65258
827.68        58.51354
828.08         58.4741
828.49        58.50466
828.90        58.59857
829.31        58.74838
829.72        58.93011
830.12        59.14225
830.53        59.34388
830.94        59.45151
831.35        59.29247
831.75        58.86425
832.16        58.20774
832.57        57.54865
832.97        57.22228
833.38        57.30642
833.79        57.69755
834.20         58.2171
834.60        58.57162
835.01        58.68161
835.42        58.66058
835.82        58.59813
836.23        58.58862
836.64        58.69328
837.04        58.82654
837.45         59.0273
837.86        59.42791
838.26        60.03833
838.67        60.78949
839.08        61.41731
839.48        61.41628
839.89        60.69896
840.29        59.47276
840.70        58.24547
841.11        57.58968
841.51        57.64512
841.92        58.23019
842.33        59.11761
842.73         59.8837
843.14        60.26294
843.54        60.40542
843.95        60.39339
844.35        60.41789
844.76        60.52004
845.17         60.6202
845.57        60.65969
845.98        60.54108
846.38        60.26867
846.79        59.88669
847.19        59.50119
847.60        59.24521
848.00        59.16371
848.41        59.20772
848.81        59.30197
849.22         59.2453
849.62        59.03251
850.03        58.71622
850.43        58.42284
850.84        58.29974
851.24        58.42078
851.65        58.67321
852.05         59.0564
852.46        59.46827
852.86        59.83991
853.27        60.18498
853.67         60.3657
854.07         60.2886
854.48        59.93809
854.88        59.36579
855.29        58.69067
855.69        58.25242
856.10        58.10649
856.50        58.24581
856.90        58.51593
857.31        58.65422
857.71        58.62482
858.12         58.4432
858.52        58.23705
858.92        58.12428
859.33          58.131
859.73        58.24754
860.13        58.36489
860.54        58.33548
860.94        58.15964
861.34        57.86811
861.75        57.58353
862.15        57.53412
862.55        57.75145
862.96        58.14796
863.36        58.58899
863.76        58.77777
864.17        58.62632
864.57        58.24861
864.97        57.77806
865.38        57.43307
865.78        57.30504
866.18        57.32933
866.58        57.44358
866.99        57.53624
867.39         57.5819
867.79        57.61176
868.19        57.66895
868.60        57.78652
869.00        57.99474
869.40        58.25606
869.80        58.50851
870.21        58.64348
870.61        58.67436
871.01        58.58989
871.41        58.43063
871.81        58.25453
872.22        58.07493
872.62        57.87306
873.02         57.6691
873.42        57.48866
873.82        57.34523
874.22         57.2518
874.63        57.17295
875.03        57.06612
875.43        56.91144
875.83        56.71696
876.23        56.55437
876.63        56.53924
877.03        56.69003
877.44        56.94369
877.84         57.1976
878.24        57.31603
878.64        57.21379
879.04        56.77438
879.44        56.22854
879.84        56.06728
880.24        56.33766
880.64         56.8404
881.04        57.29491
881.44        57.27525
881.84        56.69471
882.24        55.72955
882.65        54.69253
883.05        54.05667
883.45        53.95975
883.85        54.26833
884.25        54.82357
884.65        55.34417
885.05        55.70933
885.45        55.98687
885.85        56.19815
886.25        56.38154
886.65         56.5501
887.05        56.65697
887.45        56.69405
887.85        56.67416
888.25        56.60289
888.65        56.49952
889.04        56.36848
889.44        56.22788
889.84         56.0831
890.24         55.9481
890.64         55.8468
891.04        55.81575
891.44        55.85792
891.84        55.95123
892.24        56.07407
892.64        56.19247
893.04         56.2952
893.44        56.40022
893.83        56.49802
894.23        56.52469
894.63        56.49537
895.03        56.41329
895.43        56.35616
895.83        56.45921
896.23        56.72908
896.63        57.09753
897.02        57.43235
897.42        57.54445
897.82        57.38839
898.22        57.06222
898.62        56.62828
899.01        56.17172
899.41        55.75959
899.81        55.35908
900.21        55.08371
900.61        55.11679
901.00        55.46601
901.40        56.06847
901.80        56.69347
902.20         56.9592
902.59        56.79052
902.99        56.29478
903.39        55.68715
903.79        55.33158
904.18        55.32211
904.58        55.53595
904.98        55.88012
905.38        56.21932
905.77        56.50069
906.17        56.80258
906.57        57.02822
906.96        57.01273
907.36        56.73122
907.76        56.21809
908.15        55.74933
908.55        55.75581
908.95        56.31672
909.34        57.31536
909.74        58.33632
910.14        58.75988
910.53        58.41208
910.93        57.51672
911.33         56.4179
911.72        55.64191
912.12        55.39437
912.52        55.51423
912.91        55.82078
913.31        56.05434
913.70        56.13232
914.10        56.10425
914.49        56.11534
914.89        56.32458
915.29        56.77182
915.68         57.3888
916.08        57.89207
916.47        57.89201
916.87        57.34407
917.26        56.38126
917.66        55.42829
918.05        54.98851
918.45        55.16892
918.84         55.8654
919.24         56.7203
919.64        57.21393
920.03        57.19772
920.42        56.79739
920.82        56.34594
921.21         56.3136
921.61        56.79145
922.00        57.63983
922.40        58.53399
922.79        59.03074
923.19        58.96581
923.58        58.53383
923.98        57.96101
924.37        57.52066
924.77        57.31233
925.16        57.19718
925.55        57.18515
925.95        57.28187
926.34        57.46504
926.74        57.73802
927.13        57.90641
927.52         57.5855
927.92        56.78769
928.31        55.63882
928.70        54.51814
929.10        53.98346
929.49        54.13977
929.89         54.7798
930.28        55.70039
930.67        56.43677
931.07        56.78227
931.46        56.92192
931.85        56.81117
932.24        56.43528
932.64        55.89238
933.03        55.16053
933.42        54.53896
933.82        54.46122
934.21        55.00088
934.60        56.09881
934.99        57.39978
935.39        58.23582
935.78        58.43154
936.17        58.05097
936.56        57.46026
936.96        57.25631
937.35        57.56548
937.74        58.20419
938.13        58.73902
938.53        58.51502
938.92        57.44932
939.31        55.84691
939.70        54.22678
940.09        53.30555
940.49        53.22197
940.88        53.78725
941.27        54.69992
941.66        55.39348
942.05        55.66019
942.44        55.67931
942.84        55.59027
943.23         55.6048
943.62        55.79518
944.01        56.01527
944.40        56.27198
944.79        56.62364
945.18        57.03352
945.57        57.49032
945.97        57.76138
946.36        57.53844
946.75        56.75689
947.14        55.59381
947.53        54.36692
947.92         53.5142
948.31        53.15162
948.70        53.17718
949.09         53.4721
949.48        53.81617
949.87        54.10915
950.26        54.38983
950.65        54.67062
951.04        54.97618
951.43        55.29174
951.82        55.56202
952.21        55.70865
952.60        55.63832
952.99        55.36399
953.38        54.96181
953.77        54.55528
954.16        54.33011
954.55        54.32784
954.94        54.47138
955.33        54.73627
955.72        55.06059
956.11        55.39286
956.50        55.77366
956.89        56.01242
957.28        55.79962
957.66        55.10857
958.05         54.0686
958.44        53.08631
958.83        52.76057
959.22        53.17917
959.61        54.17296
960.00        55.30473
960.39        55.75543
960.78         55.2828
961.16        54.15382
961.55        52.84421
961.94        51.96194
962.33        51.69003
962.72        51.91433
963.11         52.4216
963.49         52.8339
963.88        52.94142
964.27        52.81071
964.66        52.79172
965.04        53.43902
965.43        54.78584
965.82        56.73293
966.21        58.51001
966.60        58.66968
966.98        56.90379
967.37        53.85377
967.76        50.80477
968.15         49.3727
968.53        49.82095
968.92        51.72927
969.31        54.23777
969.69        55.58315
970.08        55.09209
970.47        53.37261
970.86        51.37754
971.24        50.42654
971.63        50.82529
972.02         52.1637
972.40         53.9053
972.79        54.80989
973.17        54.50102
973.56        53.42311
973.95        52.15332
974.33        51.40141
974.72        51.33521
975.11        51.68465
975.49        52.22607
975.88        52.53368
976.26        52.48947
976.65        52.23643
977.04         51.8936
977.42        51.58482
977.81        51.33816
978.19        51.07885
978.58        50.98048
978.96        51.28942
979.35        51.99933
979.74        53.04534
980.12        54.15115
980.51        54.60122
980.89        54.34262
981.28        53.58432
981.66        52.71047
982.05        52.23526
982.43         52.3147
982.82        52.76736
983.20        53.62306
983.59        54.84797
983.97        56.35911
984.35        58.08913
984.74        59.52309
985.12        60.03496
985.51        59.43855
985.89        57.98913
986.28        56.22712
986.66        54.89834
987.04        54.28022
987.43        54.14364
987.81         54.4318
988.20        54.92043
988.58        55.45123
988.96        56.00832
989.35        56.35208
989.73        56.13194
990.12        55.29903
990.50        53.98249
990.88        52.35924
991.27        50.87338
991.65        49.77684
992.03        49.00933
992.42        48.71346
992.80        49.04556
993.18        49.97227
993.56        51.46384
993.95        53.04755
994.33        53.92574
994.71        53.74816
995.10        52.82004
995.48         51.5952
995.86        50.86184
996.24        50.82421
996.63        51.12933
997.01        51.83487
997.39        52.74147
997.77        53.62954
998.15         54.6119
998.54        55.21597
998.92        54.62658
999.30        52.92524
999.68        50.44927
1000.06        48.14602
1000.45        47.35712
1000.83         48.4439
1001.21         51.1171
1001.59        54.70924
1001.97        57.43692
1002.35        58.47646
1002.73        58.33418
1003.12        57.65566
1003.50        57.23963
1003.88        57.42495
1004.26        57.71277
1004.64        58.28367
1005.02         59.4985
1005.40        61.24355
1005.78        63.57914
1006.16        65.25151
1006.54        64.25458
1006.92        60.53578
1007.30        54.91721
1007.69        49.50761
1008.07        47.13877
1008.45        48.59038
1008.83        53.28827
1009.21        59.70704
1009.59        63.95794
1009.97         64.1216
1010.35        61.22577
1010.73        56.93174
1011.11        53.69159
1011.49        52.21957
1011.86        51.75687
1012.24        51.79076
1012.62        51.70447
1013.00        51.28878
1013.38        50.77826
1013.76        50.45796
1014.14        50.78342
1014.52        51.84765
1014.90        53.35703
1015.28        54.61338
1015.66        54.77446
1016.04        53.74136
1016.41        51.77024
1016.79        49.56516
1017.17         48.4674
1017.55        48.88259
1017.93          50.402
1018.31         52.3198
1018.69        53.65434
1019.06        54.17021
1019.44        54.12088
1019.82        53.80373
1020.20        53.87597
1020.58        54.46981
1020.95        55.09884
1021.33        55.53415
1021.71        55.45717
1022.09        54.83596
1022.46        53.95411
1022.84        52.60037
1023.22        50.55698
1023.60        48.17198
1023.97        45.59505
1024.35        44.01413
1024.73         44.5775
