SpectraSmart Spectrum 2.9.0.0
--------- Device Information -----------
Spectrum Name :  反射率_0
Saving Time :  2024/04/27 00:06:13
Spectro-Module Model Name : SE2030-DUVN
Spectro-Module Serial Number : OS361AC55029948
Wavelength Start : 200
Wavelength End : 1025
Wavelength Unit : Wavelength(nm)
Spectrum Unit : Reflectance(%)
-----------Spectrum Setting ------------
Integration Time : 20ms
Average : 10
Boxcar : 0
Background removal :  enabled
linearity correction :  enabled
SC :  disabled
Intensity correction :  disabled
DWT denoise :  enabled
savitzky-golay :  disabled
FFT :  disabled
Running average :  disabled
Kalman :  disabled
High pass :  disabled
---------------BEGIN--------------------
Wavelength(nm)             Reflectance(%)
200.29               0
200.75        42.69443
201.21        39.01373
201.67        36.61571
202.13        35.78055
202.58        36.25537
203.04        38.52517
203.50        42.59774
203.96        47.15076
204.42        50.82021
204.88        53.01731
205.34        53.59151
205.80        53.38472
206.26        52.76844
206.72        51.57364
207.18        49.71413
207.64        46.68714
208.10        42.16453
208.55        35.75158
209.01        27.87288
209.47        25.00344
209.93         29.9098
210.39        37.84021
210.85        44.80455
211.31        50.22654
211.77        56.05304
212.23        66.09184
212.69        89.26517
213.14        130.7463
213.60        133.2671
214.06        106.7353
214.52         88.1007
214.98         80.5988
215.44        78.52827
215.90         78.1743
216.36        78.43992
216.81        77.85983
217.27        75.98289
217.73        73.74311
218.19         69.8423
218.65        62.84452
219.11        56.30587
219.57        52.33922
220.02        51.68856
220.48        55.18533
220.94        62.78386
221.40        75.80795
221.86        94.25262
222.32        107.0212
222.77        103.4694
223.23        90.93401
223.69        77.06738
224.15        66.14565
224.61        58.13997
225.06        51.56173
225.52         47.1323
225.98        45.37715
226.44        45.77496
226.90        47.83937
227.36        50.06048
227.81        49.88969
228.27        47.18946
228.73        43.05775
229.19        39.18143
229.65        37.41632
230.10        37.83142
230.56        39.69806
231.02        42.02699
231.48        43.25483
231.93         42.9942
232.39        42.10671
232.85        41.18171
233.31        41.02829
233.77        41.76374
234.22         43.0368
234.68        44.63552
235.14        46.42521
235.60        48.30404
236.05        50.45547
236.51        52.50849
236.97        53.62395
237.43        53.54067
237.88        52.43206
238.34         51.0953
238.80        51.24113
239.26        53.58534
239.71        58.52006
240.17          65.556
240.63        72.67434
241.08        78.31492
241.54        81.93491
242.00        84.77891
242.46        90.42186
242.91        102.0273
243.37        120.6889
243.83        147.9447
244.28        175.2084
244.74        184.9208
245.20        173.6976
245.66        153.0532
246.11        134.8365
246.57        121.0323
247.03         109.076
247.48        97.15031
247.94        85.18037
248.40        75.96624
248.85         70.1452
249.31        67.78307
249.77        68.09367
250.22         70.5042
250.68        75.17306
251.14        81.55921
251.59        86.41087
252.05         87.4525
252.51         85.8511
252.96         82.6966
253.42        79.91035
253.88        77.78133
254.33        75.57501
254.79        74.80613
255.25        76.23498
255.70        79.44539
256.16        84.12794
256.62         87.9413
257.07         87.4491
257.53        83.88885
257.99        79.23221
258.44        75.23856
258.90        73.84912
259.35        74.02306
259.81        75.29533
260.27        76.28447
260.72        75.43291
261.18        73.15292
261.63        69.93421
262.09        67.23817
262.55        65.99798
263.00        65.96541
263.46        66.75626
263.91        67.26597
264.37        66.48643
264.83        64.36869
265.28        61.43498
265.74        58.67111
266.19        56.92886
266.65        56.37444
267.11        56.53633
267.56        56.88964
268.02        56.62888
268.47         55.5525
268.93        54.01268
269.38        52.28208
269.84        50.82411
270.30        49.75453
270.75          48.873
271.21        48.18505
271.66        47.65309
272.12        47.21824
272.57        46.86573
273.03        46.39951
273.48         45.4787
273.94        44.14178
274.39        42.49808
274.85        40.89175
275.31        39.64655
275.76        38.80178
276.22        38.28153
276.67        37.91924
277.13        37.57555
277.58         37.1377
278.04        36.68413
278.49        36.15834
278.95         35.6032
279.40        34.98157
279.86        34.35583
280.31        33.69802
280.77        33.09714
281.22        32.52588
281.68        32.02985
282.13        31.59208
282.59        31.27787
283.04        31.05057
283.50        30.92315
283.95        30.82579
284.41        30.66496
284.86        30.42745
285.32        30.17334
285.77        29.96432
286.22        29.95899
286.68        30.16618
287.13        30.47409
287.59        30.80771
288.04         31.0028
288.50        31.03866
288.95        30.94358
289.41        30.75371
289.86        30.44567
290.32          30.099
290.77        29.73405
291.22        29.47941
291.68         29.5055
292.13        29.84038
292.59        30.46559
293.04         31.3112
293.50        32.27198
293.95        33.29281
294.40        34.39954
294.86        35.58786
295.31        36.84584
295.77        38.17687
296.22        39.54513
296.68        40.97546
297.13        42.50045
297.58        44.13192
298.04        45.86448
298.49        47.64613
298.95        49.41349
299.40        51.13359
299.85        52.82446
300.31        54.53482
300.76        56.31583
301.21        58.18674
301.67        60.14534
302.12        62.10549
302.58        64.03069
303.03        65.86382
303.48        67.65535
303.94        69.48071
304.39        71.37698
304.84        73.38374
305.30        75.48862
305.75        77.59508
306.20         79.6558
306.66        81.65794
307.11        83.56327
307.57         85.4046
308.02        87.11602
308.47          88.721
308.93        90.24149
309.38        91.67486
309.83        93.14555
310.29        94.68409
310.74        96.25619
311.19        97.78838
311.65        99.12401
312.10        100.1994
312.55        101.0497
313.00        101.7921
313.46        102.6231
313.91        103.5649
314.36        104.5913
314.82        105.5815
315.27        106.3599
315.72        106.8627
316.18        107.1757
316.63        107.3881
317.08        107.6917
317.53        108.1428
317.99        108.6799
318.44        109.2404
318.89        109.6883
319.35        109.9812
319.80        110.1665
320.25        110.3125
320.70        110.5275
321.16        110.8409
321.61        111.2685
322.06        111.7238
322.51        112.0766
322.97        112.2831
323.42        112.3776
323.87        112.5208
324.32        113.0004
324.78        113.8202
325.23        114.9693
325.68        116.0681
326.13        116.4976
326.59        116.1199
327.04        115.1542
327.49         114.073
327.94        113.6567
328.39        114.0972
328.85        115.1403
329.30        116.4949
329.75        117.3508
330.20        117.4483
330.66        116.9996
331.11        116.3928
331.56        116.1657
332.01        116.4882
332.46        117.1563
332.92        117.9116
333.37         118.505
333.82        118.7663
334.27        118.8544
334.72        118.8531
335.17        118.8677
335.63        118.9603
336.08        119.1544
336.53         119.535
336.98        120.3035
337.43         121.464
337.88        122.9116
338.34        124.4238
338.79        125.7478
339.24         126.696
339.69        127.3262
340.14        127.5911
340.59        127.4557
341.05         127.023
341.50        126.3409
341.95        125.7118
342.40        125.5879
342.85        126.0691
343.30        127.0415
343.75         128.254
344.20        129.2598
344.66        129.9014
345.11        130.2697
345.56        130.4459
346.01        130.5841
346.46        130.7511
346.91        130.9009
347.36        131.0132
347.81         131.083
348.26        131.1081
348.72        131.0971
349.17        131.1157
349.62        131.2928
350.07        131.6314
350.52        132.1065
350.97        132.4836
351.42        132.3887
351.87        131.7813
352.32        130.7991
352.77        129.8154
353.22        129.3764
353.67        129.5788
354.13        130.2398
354.58        131.0223
355.03        131.3184
355.48        130.9526
355.93         130.099
356.38        129.0699
356.83        128.3331
357.28        127.9921
357.73        127.8869
358.18         127.764
358.63        127.2334
359.08         126.219
359.53        124.8862
359.98        123.4863
360.43        122.3648
360.88        121.5876
361.33        121.0282
361.78        120.5073
362.23          119.75
362.68        118.7032
363.13        117.4955
363.58        116.2426
364.03        115.1057
364.48        114.1316
364.93         113.243
365.38        112.4592
365.83        111.8248
366.28        111.3231
366.73        110.9492
367.18        110.5461
367.63        109.8575
368.08        108.8441
368.53        107.5802
368.98        106.2778
369.43        105.2814
369.88        104.6739
370.33        104.3589
370.78        104.1462
371.23        103.7193
371.68        102.9857
372.13        102.0331
372.58         101.021
373.03        100.1986
373.48        99.62084
373.93         99.1969
374.38        98.76825
374.83        98.09798
375.28         97.1437
375.72          95.986
376.17        94.84473
376.62        93.92233
377.07        93.28333
377.52        92.87946
377.97        92.59425
378.42        92.25592
378.87        91.81015
379.32        91.26903
379.77        90.77602
380.22        90.53797
380.67        90.55975
381.11        90.80289
381.56         90.9082
382.01        90.38953
382.46        89.21356
382.91        87.62826
383.36         86.1142
383.81        85.32379
384.26        85.34652
384.71        85.94044
385.15        86.76833
385.60        87.23912
386.05        87.15681
386.50        86.69554
386.95        85.96213
387.40         85.1346
387.85         84.3251
388.29        83.45044
388.74        82.71212
389.19        82.17455
389.64        81.84368
390.09        81.70708
390.54        81.67509
390.98        81.55959
391.43         81.3392
391.88          81.035
392.33        80.72098
392.78        80.42435
393.23        80.14529
393.67        80.06876
394.12        80.14967
394.57        79.61169
395.02        78.70284
395.47        78.72372
395.91         79.5265
396.36        79.67461
396.81        79.10139
397.26         78.6111
397.71        78.29255
398.15        77.94128
398.60        77.68033
399.05        77.40649
399.50        77.13542
399.95        77.12212
400.39        77.27989
400.84        76.98537
401.29        76.30429
401.74        76.00034
402.18        76.02357
402.63        75.54184
403.08        74.70683
403.53        74.32034
403.97        74.42392
404.42        74.63652
404.87        74.80135
405.32        74.80228
405.76        74.58384
406.21        74.22681
406.66        73.82207
407.11        73.58159
407.55        73.58548
408.00          73.562
408.45        73.52007
408.90        73.88488
409.34        74.40569
409.79        74.11378
410.24        73.21346
410.68         72.8026
411.13        72.95633
411.58        73.08006
412.03        73.04408
412.47        72.91396
412.92        72.64115
413.37        72.25813
413.81        71.88077
414.26        71.73907
414.71        71.84061
415.15        72.15072
415.60        72.52051
416.05        72.76482
416.49        72.82167
416.94        72.73541
417.39        72.58791
417.83        72.49077
418.28        72.48692
418.73        72.54029
419.17        72.62215
419.62        72.69339
420.07         72.7227
420.51        72.69543
420.96        72.66245
421.41        72.59406
421.85        72.46068
422.30        72.47359
422.74          72.493
423.19         72.1024
423.64        71.40571
424.08        71.18569
424.53        71.47372
424.98         71.4825
425.42         71.5919
425.87        71.87248
426.31        72.31754
426.76         72.3457
427.21        72.03083
427.65         71.8447
428.10        71.77954
428.54        71.97584
428.99        71.93043
429.44        71.79495
429.88        71.61912
430.33        72.44651
430.77        73.77354
431.22        74.19065
431.66        73.62113
432.11        72.69952
432.56        71.87665
433.00        71.81348
433.45        72.62474
433.89        73.67452
434.34        74.10968
434.78         74.6958
435.23        73.29789
435.67        71.14526
436.12        72.53562
436.57        72.70267
437.01        72.85926
437.46         72.9084
437.90        72.88074
438.35        72.48001
438.79        72.45368
439.24        72.36404
439.68        72.38329
440.13        72.59005
440.57         72.9884
441.02        73.02233
441.46        72.75742
441.91        73.51638
442.35        74.75272
442.80        74.31689
443.24        72.61482
443.69        72.52754
444.13        73.91099
444.58        74.37235
445.02        73.83743
445.47        73.65974
445.91        73.92551
446.36        74.15865
446.80        74.33792
447.24        74.62782
447.69        74.95253
448.13        75.02404
448.58        74.95473
449.02         74.9297
449.47        74.98757
449.91        74.92908
450.36        74.79164
450.80        74.67989
451.25        74.65353
451.69        74.67948
452.13        74.77701
452.58        74.95224
453.02        75.14592
453.47        75.26037
453.91        75.25382
454.36        75.15144
454.80        74.97227
455.24        74.68694
455.69        74.31839
456.13        74.03875
456.58        73.88267
457.02        73.30229
457.46        72.56596
457.91         72.8046
458.35         73.6006
458.79        73.66148
459.24        72.94994
459.68        72.10297
460.13        71.42269
460.57        71.17976
461.01          71.528
461.46        71.69655
461.90        72.12641
462.34        73.24871
462.79        72.72645
463.23        72.88937
463.68        72.93992
464.12        72.66904
464.56         72.0808
465.01        71.41202
465.45         70.7936
465.89        70.51131
466.34        70.50923
466.78        70.62336
467.22        70.86018
467.67        70.38475
468.11           70.72
468.55        70.77007
468.99        70.90915
469.44        70.84145
469.88        70.57332
470.32         70.2377
470.77         69.9192
471.21        69.73609
471.65        69.70803
472.10        69.80668
472.54        69.95245
472.98        69.98168
473.42        69.84285
473.87        69.74959
474.31        69.65939
474.75         69.2114
475.20        68.62318
475.64        68.69147
476.08        69.29779
476.52        69.42622
476.97        68.97509
477.41        68.74487
477.85        68.83968
478.29        68.26162
478.74        68.94189
479.18        69.54973
479.62         68.9531
480.06         68.9097
480.50         68.8917
480.95        68.86333
481.39        68.86284
481.83        68.22836
482.27        68.41083
482.72        68.57258
483.16        68.68373
483.60        68.46096
484.04        68.71412
484.48        68.85825
484.93         69.0726
485.37        68.66455
485.81        68.27179
486.25        67.94937
486.69        69.94933
487.14        70.09187
487.58        68.12299
488.02        68.71577
488.46        67.89755
488.90         67.5154
489.34        68.85694
489.79        69.69834
490.23        68.71807
490.67        68.07428
491.11        67.53171
491.55        67.54959
491.99        67.99378
492.43        68.05222
492.88        67.70831
493.32        67.59875
493.76        67.74458
494.20        67.81245
494.64        67.78166
495.08        67.74351
495.52        67.71046
495.96        67.69447
496.41        67.68667
496.85        67.72055
497.29        67.66979
497.73        67.64129
498.17        66.87075
498.61        66.86291
499.05        67.29994
499.49        67.47596
499.93        67.14273
500.37        67.22255
500.82        67.59981
501.26        67.63846
501.70        67.39074
502.14        67.45073
502.58        67.78517
503.02        67.91694
503.46        67.82285
503.90        67.75394
504.34        67.71597
504.78        67.61037
505.22        67.44518
505.66        67.25612
506.10        67.08509
506.54         66.9604
506.98        66.88777
507.42        66.91961
507.86        67.04166
508.30        66.88999
508.74        66.98876
509.18        66.91291
509.62        66.84746
510.06        66.81908
510.50        66.84184
510.94        66.90073
511.38        66.96045
511.82        66.98116
512.26        66.95318
512.70        66.88728
513.14        66.83082
513.58        66.85929
514.02        66.98306
514.46        67.17346
514.90        67.35892
515.34        67.42652
515.78        67.35049
516.22          67.166
516.66        66.94243
517.10        66.79132
517.54        66.74446
517.98        66.77261
518.42        66.82926
518.86        66.83258
519.30        66.76371
519.74        66.67081
520.18        66.59197
520.62         66.5424
521.06        66.55589
521.50        66.70043
521.93        66.92879
522.37        67.06674
522.81         67.0926
523.25        67.07427
523.69        67.05688
524.13        67.06937
524.57        67.11497
525.01        67.20912
525.45        67.31496
525.89        67.16451
526.32        67.07541
526.76        66.83581
527.20         66.5787
527.64        66.35041
528.08        66.18057
528.52        66.05413
528.96        65.99479
529.40        66.04551
529.83        66.19675
530.27        66.43571
530.71        66.68557
531.15        66.83105
531.59        66.84107
532.03        66.73679
532.46         66.5666
532.90        66.45983
533.34        66.43704
533.78        66.43165
534.22        66.40348
534.66        66.37232
535.09        66.28006
535.53         65.9996
535.97        65.61517
536.41        65.42476
536.85        65.46236
537.28        65.58469
537.72        65.73732
538.16        65.88307
538.60         65.9884
539.04        66.05972
539.47        66.09088
539.91        66.11699
540.35        66.13177
540.79        66.12946
541.22        66.10665
541.66        66.08176
542.10        66.05506
542.54        66.03303
542.97        66.01521
543.41        66.02041
543.85        66.02559
544.29         66.0655
544.72        66.13158
545.16        66.11053
545.60        65.95692
546.04        66.23135
546.47        66.08833
546.91         66.0333
547.35        65.88896
547.79        66.02789
548.22        66.35755
548.66        66.44182
549.10        66.33643
549.53        66.22566
549.97        66.16944
550.41        66.03416
550.84        65.91185
551.28        65.96509
551.72        66.10884
552.15        66.28704
552.59        66.54425
553.03        65.88065
553.46        66.30892
553.90        66.17539
554.34        66.10873
554.77         66.0226
555.21        65.98804
555.65        66.03439
556.08        66.27281
556.52          66.328
556.96        66.23907
557.39        66.29294
557.83        66.44873
558.27        66.27965
558.70        65.83765
559.14        65.63681
559.57        65.66717
560.01        65.56471
560.45        65.39021
560.88        65.51081
561.32        65.87531
561.75        66.14382
562.19        66.25591
562.63        66.09956
563.06        65.78786
563.50        65.81601
563.93        66.08654
564.37        66.15807
564.80        66.05154
565.24        65.93655
565.68        65.68085
566.11        66.37704
566.55        65.65075
566.98        65.42015
567.42        65.16679
567.85        65.38742
568.29        66.00057
568.72        66.36289
569.16        66.49595
569.60        66.75224
570.03        66.79076
570.47        66.95247
570.90        67.23267
571.34        66.37955
571.77        66.97652
572.21        67.16025
572.64        66.99839
573.08         67.2802
573.51        66.79874
573.95        66.67313
574.38        66.79643
574.82        67.07008
575.25          66.616
575.69        66.91343
576.12        67.02574
576.56        66.27199
576.99        66.32692
577.42        66.61867
577.86        66.49871
578.29        67.34969
578.73        67.50246
579.16        67.39976
579.60        66.71698
580.03        66.73412
580.47        66.56522
580.90        67.56327
581.33        67.43465
581.77        67.50173
582.20        67.79128
582.64        67.89233
583.07        67.56461
583.51        67.11776
583.94        66.73146
584.37         66.7234
584.81        67.12628
585.24        67.25623
585.68        67.04665
586.11        67.07023
586.54        66.91612
586.98         66.4436
587.41        66.34634
587.85        66.77771
588.28        66.60501
588.71        66.56923
589.15        66.14826
589.58        66.48637
590.01        65.73413
590.45        65.91968
590.88        66.88957
591.31        66.94656
591.75        66.29527
592.18        65.76981
592.61        65.71358
593.05        66.08104
593.48        67.30308
593.91        67.32283
594.35        66.80239
594.78        66.11449
595.21        65.74934
595.65        66.17397
596.08        67.38765
596.51        67.05727
596.94        66.60465
597.38        66.15491
597.81        66.07458
598.24        67.18327
598.68        66.58567
599.11        66.18493
599.54        67.40232
599.97        67.00832
600.41        66.56363
600.84         65.9697
601.27        66.51216
601.70        66.17445
602.14        66.48483
602.57        66.13689
603.00        66.46348
603.43        65.79574
603.87         66.5176
604.30         66.5158
604.73        66.48867
605.16        65.80604
605.60        65.95002
606.03        65.69083
606.46        65.48325
606.89        65.44355
607.32        66.16261
607.76        65.77772
608.19        66.15363
608.62        66.02771
609.05        66.01083
609.48        65.97255
609.92        66.78933
610.35        66.45379
610.78        65.84693
611.21         65.9991
611.64        65.97525
612.07         66.2889
612.50        66.22229
612.94        66.16281
613.37        65.92529
613.80        66.08739
614.23        65.18175
614.66        65.19817
615.09        65.63297
615.52        65.85524
615.96        65.75832
616.39        65.82018
616.82        66.08162
617.25        65.59138
617.68        65.58744
618.11        65.56323
618.54        65.80481
618.97        65.96859
619.40        65.61621
619.84        65.75732
620.27        65.63422
620.70        65.77853
621.13        65.93325
621.56        65.33562
621.99        64.54544
622.42        64.40768
622.85        64.99778
623.28        64.59594
623.71        64.64201
624.14        65.24045
624.57        65.51733
625.00        65.08546
625.43        65.54497
625.86        65.44722
626.29        65.43705
626.72        64.83114
627.15        65.30856
627.58        65.01003
628.01        64.84743
628.44        65.24706
628.87        64.80247
629.30        64.67485
629.73        64.74964
630.16        64.92053
630.59        64.90466
631.02        65.06273
631.45        65.27769
631.88        65.40942
632.31        65.41905
632.74        65.54558
633.17        65.41844
633.60        65.31335
634.03        65.13607
634.46        64.89965
634.89         64.6574
635.32        64.51799
635.75        64.51131
636.18        64.53967
636.61        64.58102
637.04        64.63627
637.47        64.68793
637.89        64.72676
638.32        64.72762
638.75        64.71646
639.18        64.69601
639.61        64.65378
640.04        64.60658
640.47        64.58521
640.90        64.59608
641.33        64.63941
641.76        64.68613
642.18        64.69264
642.61         64.6316
643.04        64.52531
643.47        64.42384
643.90        64.40837
644.33        64.49108
644.76        64.64312
645.18        64.80194
645.61        64.84888
646.04        64.76798
646.47        64.60229
646.90        64.41415
647.33        64.30469
647.75        64.28065
648.18        64.33731
648.61         64.4813
649.04        64.56614
649.47        64.46886
649.89        65.02032
650.32        64.52127
650.75        64.45383
651.18        64.40508
651.61        64.57334
652.03          64.903
652.46        65.09563
652.89         65.0809
653.32        64.89669
653.74        64.80737
654.17        64.37005
654.60        65.15321
655.03        65.27246
655.46        63.96804
655.88         63.9716
656.31        67.26868
656.74        69.96481
657.16        69.28984
657.59        68.72161
658.02        66.24517
658.45        65.88993
658.87        64.96643
659.30        64.85845
659.73        64.82864
660.15         65.7382
660.58        64.91759
661.01         64.7634
661.44        64.60873
661.86        64.28242
662.29        63.81292
662.72        64.32343
663.14        64.45959
663.57        64.33854
664.00         63.7513
664.42        63.67533
664.85        64.14558
665.27        64.61441
665.70        64.89668
666.13        65.01512
666.55        64.93096
666.98        64.56568
667.41        64.04043
667.83        63.97871
668.26        63.77402
668.69        63.90762
669.11        64.11839
669.54        64.29573
669.96        64.40095
670.39         64.4752
670.82        64.54224
671.24        64.58562
671.67        64.61976
672.09        64.66228
672.52        64.71198
672.94        64.71185
673.37        64.65599
673.80        64.52896
674.22        64.38793
674.65        64.32002
675.07        64.35951
675.50        64.45437
675.92         64.5549
676.35        64.58086
676.77        64.51517
677.20        64.37901
677.62         64.2344
678.05         64.1821
678.47        64.23893
678.90        64.37175
679.32        64.51602
679.75        64.58302
680.17        64.54787
680.60        64.44977
681.02         64.3279
681.45        64.24796
681.87        64.24417
682.30        64.25173
682.72        64.28676
683.15        64.41012
683.57        64.59081
684.00        64.65069
684.42        64.60516
684.85        64.63487
685.27        64.73698
685.70        64.81237
686.12        64.84035
686.54        64.85704
686.97        64.85718
687.39        64.83825
687.82        64.79995
688.24        64.76019
688.66        64.72203
689.09        64.68626
689.51        64.66672
689.94        64.65251
690.36        64.65098
690.78        64.64857
691.21        64.66414
691.63        64.72009
692.06        64.81694
692.48        64.95292
692.90         65.0665
693.33        65.06488
693.75        64.93466
694.17        64.67964
694.60        64.41204
695.02        64.33505
695.44        64.46113
695.87        64.70516
696.29        64.96313
696.71         64.9409
697.14        64.68115
697.56        64.55364
697.98        64.60993
698.41        64.63091
698.83        64.61395
699.25        64.75263
699.68        64.94321
700.10        64.98047
700.52        64.81635
700.94        64.52797
701.37        64.25035
701.79        64.20428
702.21        64.42651
702.64        64.82903
703.06        65.27442
703.48        65.52172
703.90        65.50414
704.33        65.29647
704.75        64.99965
705.17        64.76842
705.59        64.66424
706.01        64.64382
706.44        64.68468
706.86        64.77657
707.28        64.89201
707.70        65.01723
708.12        65.15273
708.55        65.32777
708.97        65.50951
709.39        65.56988
709.81        65.50759
710.23        65.45913
710.66        65.43468
711.08        65.36749
711.50        65.26287
711.92        65.18448
712.34        65.14338
712.76        65.13795
713.19        65.13397
713.61        65.10767
714.03        65.04487
714.45        64.96934
714.87        64.93711
715.29        65.03456
715.71        65.26704
716.13        65.58406
716.56        65.90202
716.98        66.16977
717.40        66.31152
717.82        66.34794
718.24        66.26096
718.66        66.02645
719.08        65.67939
719.50        65.26189
719.92        64.87364
720.34        64.66707
720.76        64.67755
721.19        64.82163
721.61        65.12184
722.03        65.46321
722.45        65.79805
722.87        66.12307
723.29        66.35323
723.71        66.35738
724.13        66.12557
724.55        65.71056
724.97        65.23827
725.39        64.91263
725.81        64.79912
726.23        64.85311
726.65        65.03871
727.07        65.28681
727.49        65.55447
727.91         65.8548
728.33        66.14233
728.75        66.33977
729.17        66.42268
729.59        66.39195
730.01        66.28176
730.43        66.16686
730.85        66.07319
731.27        65.98543
731.69        65.90227
732.10        65.81642
732.52        65.72454
732.94        65.65154
733.36        65.61611
733.78        65.51358
734.20        65.33745
734.62        65.35439
735.04        65.64614
735.46        65.14418
735.88        65.78622
736.30        65.90942
736.72        66.09471
737.13        66.45806
737.55        66.85091
737.97        67.04044
738.39        66.95502
738.81        66.51187
739.23        65.91566
739.65        65.89741
740.06        66.36997
740.48        66.57326
740.90        66.45006
741.32        66.49394
741.74        66.70921
742.16        66.82571
742.57        66.82655
742.99        66.77399
743.41        66.68528
743.83        66.56703
744.25        66.43477
744.67        66.27824
745.08        66.15482
745.50        66.13449
745.92        66.23263
746.34         66.4205
746.75        66.62247
747.17        66.68994
747.59        66.59779
748.01        66.42529
748.42        66.23561
748.84         66.0657
749.26        65.98834
749.68         66.1021
750.09        66.34711
750.51        66.56291
750.93         66.6674
751.35        66.59922
751.76        66.39288
752.18        66.23523
752.60         66.1453
753.01        66.02729
753.43        65.88035
753.85        65.78805
754.27        65.77048
754.68        65.82851
755.10        65.93815
755.52        66.05147
755.93        66.13379
756.35        66.17667
756.77        66.27485
757.18        66.37701
757.60        66.46022
758.02        66.95522
758.43        67.70852
758.85        66.78296
759.26        66.62276
759.68        66.16327
760.10        66.13819
760.51        66.61071
760.93        67.10189
761.34        66.64562
761.76        67.11438
762.18        67.03579
762.59        67.07687
763.01        67.14354
763.42        67.27415
763.84        67.27078
764.26        67.12791
764.67        66.95418
765.09        66.82935
765.50        66.69709
765.92        66.61596
766.33        66.63654
766.75        66.65879
767.16         66.6106
767.58        66.45906
768.00        66.25675
768.41        66.12381
768.83        66.33714
769.24        66.76273
769.66         66.9101
770.07        66.75175
770.49        66.45837
770.90        66.21616
771.32        66.55759
771.73        67.33018
772.15        67.60172
772.56        67.31643
772.97        66.98889
773.39        66.75878
773.80        66.63081
774.22        66.63335
774.63        66.81323
775.05        67.05086
775.46        67.22085
775.88        67.25254
776.29        67.20802
776.70        67.14379
777.12        67.17418
777.53        67.33268
777.95         67.5342
778.36        67.73808
778.77        67.84089
779.19        67.83478
779.60        67.78297
780.02        67.68182
780.43        67.58386
780.84        67.52986
781.26        67.27646
781.67        66.99612
782.09         67.4408
782.50        68.39464
782.91        68.65659
783.33        68.19647
783.74        67.98874
784.15        68.04619
784.57        67.81294
784.98        67.39493
785.39        67.13338
785.81        67.14246
786.22        67.58545
786.63        68.27094
787.04         68.6328
787.46        68.59267
787.87        68.37392
788.28        68.14528
788.70        68.04282
789.11        68.08458
789.52        68.32911
789.93        68.62366
790.35        68.49504
790.76        68.01468
791.17        67.76708
791.58        67.80317
792.00        67.72035
792.41        67.54754
792.82        67.57092
793.23        67.76242
793.65        67.85096
794.06        67.84807
794.47        67.99764
794.88        68.25121
795.29        68.33871
795.71        68.20943
796.12        68.10733
796.53         68.0724
796.94        67.90307
797.35        67.72015
797.76        68.05326
798.18         68.7279
798.59        69.00472
799.00        68.77967
799.41        68.43497
799.82        68.12677
800.23        67.96129
800.64        67.99746
801.06        68.16648
801.47        68.40817
801.88        68.53094
802.29        68.47553
802.70         68.2952
803.11        68.05292
803.52        67.85128
803.93        67.75361
804.34        67.74365
804.75        67.80486
805.17         68.0035
805.58        68.37796
805.99        68.56265
806.40         68.6104
806.81        69.38673
807.22        70.50837
807.63        70.17683
808.04        68.64281
808.45         67.8909
808.86        68.09402
809.27        68.19373
809.68        68.05909
810.09        67.97824
810.50        67.92486
810.91        67.83089
811.32        67.79879
811.73        67.98357
812.14        68.39783
812.55        68.98788
812.96        69.57368
813.37        69.81645
813.78        69.62486
814.19        69.12656
814.60         68.5091
815.01        68.02393
815.42        67.74119
815.83        67.59555
816.24        67.57076
816.65         67.6308
817.05        67.75584
817.46        67.94028
817.87        68.15511
818.28        68.29881
818.69        68.34958
819.10         68.3048
819.51        68.23798
819.92        68.29741
820.33        68.51093
820.74        68.82698
821.14         69.1348
821.55        69.25153
821.96        69.14059
822.37        68.86496
822.78        68.53069
823.19        68.31657
823.60        68.28133
824.00         68.3965
824.41        68.55696
824.82        68.68611
825.23        68.74042
825.64        68.75471
826.04        68.74503
826.45        68.69336
826.86        68.62451
827.27        68.54574
827.68        68.48006
828.08        68.49829
828.49        68.56255
828.90        68.66418
829.31        68.81463
829.72        69.03291
830.12        69.32504
830.53         69.6205
830.94         69.8159
831.35        69.69491
831.75        69.24698
832.16        68.53995
832.57        67.79053
832.97        67.31685
833.38        67.20792
833.79        67.35571
834.20        67.67744
834.60        68.03031
835.01        68.34933
835.42        68.71215
835.82        69.03606
836.23         69.0995
836.64        68.90259
837.04        68.46376
837.45        68.04823
837.86        68.16138
838.26         68.9155
838.67         70.1237
839.08        71.36249
839.48        71.82329
839.89        71.28733
840.29        70.04157
840.70        68.66983
841.11        67.83054
841.51        67.70615
841.92        68.08533
842.33        68.74987
842.73        69.31749
843.14        69.53642
843.54          69.572
843.95        69.54067
844.35        69.67377
844.76        70.00058
845.17         70.4239
845.57        70.78132
845.98         70.8007
846.38        70.45603
846.79        69.84259
847.19        69.18914
847.60        68.83127
848.00        68.86861
848.41        69.18125
848.81        69.62315
849.22        69.86044
849.62        69.83783
850.03        69.64117
850.43        69.39494
850.84        69.23145
851.24        69.24364
851.65        69.30859
852.05        69.48904
852.46        69.78503
852.86         70.1589
853.27        70.59734
853.67        70.90434
854.07        70.91975
854.48        70.60144
854.88        70.02498
855.29        69.29648
855.69        68.75995
856.10        68.46798
856.50         68.4221
856.90        68.49908
857.31          68.496
857.71        68.40257
858.12        68.22235
858.52        68.05975
858.92        67.96883
859.33        67.95601
859.73        68.03502
860.13        68.12134
860.54        68.10931
860.94         68.0184
861.34        67.86287
861.75        67.73341
862.15        67.82247
862.55        68.13599
862.96        68.56577
863.36        69.01846
863.76        69.25074
864.17        69.18425
864.57        68.93997
864.97          68.533
865.38        67.99662
865.78        67.40768
866.18        66.74989
866.58         66.2159
866.99        66.13808
867.39        66.58996
867.79        67.45776
868.19        68.41962
868.60        68.95672
869.00        68.97017
869.40        68.55003
869.80        67.93593
870.21        67.61003
870.61        67.79241
871.01        68.28624
871.41        68.80206
871.81        68.93714
872.22        68.60362
872.62        67.91788
873.02        67.17024
873.42         66.8353
873.82        67.03837
874.22        67.64154
874.63        68.27261
875.03        68.36747
875.43        67.80028
875.83        66.76295
876.23        65.69226
876.63        65.25144
877.03        65.58997
877.44        66.48525
877.84         67.5387
878.24        68.07771
878.64        67.87582
879.04        67.02821
879.44        66.01399
879.84        65.65592
880.24        66.08557
880.64        66.99327
881.04        67.91625
881.44        68.13021
881.84        67.46365
882.24        66.19392
882.65        64.79186
883.05        63.96326
883.45        63.91219
883.85        64.44002
884.25        65.25051
884.65        65.84283
885.05        66.03914
885.45        65.97208
885.85        65.83332
886.25        65.90977
886.65        66.26389
887.05        66.78577
887.45        67.25628
887.85         67.3393
888.25        66.97124
888.65        66.28421
889.04        65.56866
889.44        65.29035
889.84        65.53513
890.24        66.15826
890.64        66.88449
891.04        67.25867
891.44        67.15942
891.84        66.74596
892.24        66.22578
892.64        65.89973
893.04        65.86597
893.44        66.04761
893.83        66.37373
894.23        66.68011
894.63        66.92793
895.03        67.13747
895.43        67.38525
895.83        67.79242
896.23        68.34293
896.63        68.94611
897.02        69.38351
897.42        69.35461
897.82        68.82001
898.22         67.9361
898.62        66.93803
899.01        66.16046
899.41        65.72771
899.81        65.54371
900.21        65.56992
900.61        65.73165
901.00        65.96907
901.40        66.29151
901.80         66.6038
902.20        66.74129
902.59        66.68306
902.99        66.46087
903.39        66.16198
903.79         65.9478
904.18        65.85999
904.58        65.84676
904.98        65.93679
905.38        66.17722
905.77        66.55589
906.17        67.09235
906.57        67.58451
906.96        67.69237
907.36        67.34708
907.76        66.65323
908.15        65.98325
908.55        65.91864
908.95        66.57255
909.34        67.75599
909.74        69.00018
910.14         69.6102
910.53         69.3712
910.93        68.54743
911.33        67.41745
911.72        66.40015
912.12        65.72806
912.52         65.2884
912.91        65.08987
913.31        65.16886
913.70        65.49207
914.10         66.0235
914.49        66.71262
914.89        67.35698
915.29        67.88412
915.68        68.31464
916.08        68.50292
916.47        68.31842
916.87        67.79803
917.26        66.98649
917.66        66.22279
918.05        65.87547
918.45          66.027
918.84        66.62921
919.24        67.38235
919.64        67.87437
920.03        67.97239
920.42        67.72995
920.82        67.41528
921.21        67.40382
921.61        67.75543
922.00        68.38908
922.40         68.9599
922.79         69.0248
923.19        68.46655
923.58        67.50448
923.98         66.5242
924.37        66.00564
924.77         66.0728
925.16        66.53439
925.55        67.18694
925.95         67.6548
926.34        67.80929
926.74        67.73771
927.13        67.47646
927.52        67.01595
927.92        66.46171
928.31        65.82648
928.70        65.26386
929.10        64.99055
929.49        65.03334
929.89         65.2673
930.28        65.74227
930.67        66.40717
931.07        67.15347
931.46        68.05154
931.85        68.70376
932.24        68.52802
932.64        67.51984
933.03        65.86157
933.42        64.26263
933.82        63.76538
934.21        64.57194
934.60        66.42425
934.99        68.65902
935.39        70.04523
935.78        70.22659
936.17        69.45468
936.56        68.26939
936.96        67.54068
937.35        67.51312
937.74        67.90291
938.13        68.34368
938.53        68.30118
938.92        67.66782
939.31        66.71497
939.70        65.74598
940.09        65.14514
940.49        64.97827
940.88        65.12458
941.27        65.48569
941.66        65.88087
942.05        66.22456
942.44        66.60423
942.84        66.94035
943.23        67.09032
943.62        67.04961
944.01        66.78848
944.40        66.55301
944.79        66.78404
945.18        67.53132
945.57        68.64964
945.97        69.64631
946.36        69.78165
946.75        68.86784
947.14        67.24693
947.53         65.4473
947.92        64.21015
948.31        63.73443
948.70        63.80976
949.09        64.27787
949.48        64.85137
949.87        65.38978
950.26        65.98506
950.65        66.55784
951.04        66.96589
951.43        67.17231
951.82        67.14199
952.21        66.99423
952.60        66.97565
952.99        67.14635
953.38         67.4578
953.77        67.77419
954.16        67.87045
954.55        67.69246
954.94        67.29607
955.33        66.84391
955.72        66.61398
956.11        66.68391
956.50        66.98843
956.89        67.29952
957.28        67.23106
957.66        66.69811
958.05        65.88371
958.44        65.07909
958.83        64.69904
959.22        64.81519
959.61        65.28432
960.00        65.87604
960.39        66.17255
960.78        66.02954
961.16        65.57694
961.55        65.01176
961.94        64.53605
962.33        64.23933
962.72        64.09405
963.11        64.08125
963.49         64.2098
963.88        64.38605
964.27        64.57729
964.66        64.88508
965.04        65.50512
965.43         66.3783
965.82        67.48148
966.21        68.32858
966.60         68.0356
966.98        66.45308
967.37        64.04095
967.76        61.65127
968.15        60.31789
968.53        60.23206
968.92        61.16251
969.31        62.61957
969.69        63.59003
970.08        63.62469
970.47        63.01042
970.86        62.34796
971.24        62.52286
971.63        63.71184
972.02        65.64293
972.40         67.6736
972.79        68.30721
973.17        67.21252
973.56        64.97439
973.95        62.56771
974.33        61.22037
974.72        61.19478
975.11        62.12283
975.49        63.58077
975.88        64.66271
976.26        65.04029
976.65        64.91954
977.04        64.53205
977.42        64.20217
977.81        64.01268
978.19        63.81683
978.58        63.65802
978.96        63.60642
979.35        63.64247
979.74        63.81089
980.12        64.11405
980.51         64.2865
980.89        64.39312
981.28        64.47176
981.66        64.60351
982.05        64.89457
982.43        65.38562
982.82        65.98595
983.20        66.82866
983.59        68.02791
983.97        69.60666
984.35        71.45909
984.74        73.02117
985.12        73.61916
985.51        73.04727
985.89        71.55221
986.28        69.84615
986.66        68.92789
987.04        69.09765
987.43        70.05699
987.81        71.34189
988.20        71.89456
988.58        71.40403
988.96        70.15793
989.35        68.61794
989.73        67.39992
990.12         66.6582
990.50        66.24141
990.88        65.91958
991.27        65.35532
991.65        64.51379
992.03        63.58254
992.42        62.89856
992.80        62.85685
993.18        63.53484
993.56        64.78681
993.95        66.18761
994.33         67.1329
994.71         67.2683
995.10        66.85199
995.48        66.17789
995.86        65.80296
996.24        65.86936
996.63        66.04152
997.01        66.41376
997.39        66.82693
997.77        67.15494
998.15        67.57365
998.54        67.72271
998.92        66.90604
999.30        65.22523
999.68        62.96285
1000.06        61.05815
1000.45        60.83491
1000.83        62.63768
1001.21        66.20351
1001.59        70.64973
1001.97        73.71227
1002.35        74.39181
1002.73        73.29362
1003.12        71.50916
1003.50        70.42439
1003.88        70.49532
1004.26        71.12117
1004.64        72.12611
1005.02        73.13474
1005.40        73.86217
1005.78        74.68959
1006.16        74.93649
1006.54         73.4465
1006.92        70.32464
1007.30        66.04097
1007.69        62.26647
1008.07        61.25937
1008.45        63.61168
1008.83         68.8485
1009.21        75.44412
1009.59        79.51689
1009.97        79.20219
1010.35        75.60476
1010.73        70.39565
1011.11        66.03582
1011.49        63.37494
1011.86        61.75698
1012.24        61.07676
1012.62        61.20933
1013.00        61.99817
1013.38        63.59779
1013.76        65.78632
1014.14        67.66171
1014.52        68.65607
1014.90        68.79031
1015.28        68.11492
1015.66        66.89698
1016.04        65.32193
1016.41        63.33207
1016.79        61.42108
1017.17        60.59436
1017.55        61.06872
1017.93         62.5446
1018.31         64.3064
1018.69        65.28028
1019.06         65.2379
1019.44        64.45316
1019.82        63.16428
1020.20        62.07961
1020.58        61.57344
1020.95         61.2641
1021.33        61.35779
1021.71        62.02434
1022.09        63.28078
1022.46         65.4566
1022.84        67.73484
1023.22        68.10732
1023.60        66.00489
1023.97        61.97501
1024.35        58.44751
1024.73        58.21202
