SpectraSmart Spectrum 2.9.0.0
--------- Device Information -----------
Spectrum Name :  反射率_0
Saving Time :  2024/04/26 23:51:21
Spectro-Module Model Name : SE2030-DUVN
Spectro-Module Serial Number : OS361AC55029948
Wavelength Start : 200
Wavelength End : 1025
Wavelength Unit : Wavelength(nm)
Spectrum Unit : Reflectance(%)
-----------Spectrum Setting ------------
Integration Time : 20ms
Average : 10
Boxcar : 0
Background removal :  enabled
linearity correction :  enabled
SC :  disabled
Intensity correction :  disabled
DWT denoise :  enabled
savitzky-golay :  disabled
FFT :  disabled
Running average :  disabled
Kalman :  disabled
High pass :  disabled
---------------BEGIN--------------------
Wavelength(nm)             Reflectance(%)
200.29               0
200.75        44.89704
201.21        46.69566
201.67        49.31691
202.13        51.83079
202.58        54.17294
203.04        57.30914
203.50        61.45287
203.96         65.6889
204.42        68.97098
204.88         70.7094
205.34        70.53027
205.80        69.06966
206.26         66.8837
206.72        64.02811
207.18        61.42686
207.64        59.49694
208.10        58.07683
208.55        57.59064
209.01        56.92179
209.47        54.80241
209.93        52.02317
210.39        49.77462
210.85         49.2586
211.31        51.52631
211.77        57.62848
212.23        71.97884
212.69        107.1618
213.14        162.1472
213.60        151.8447
214.06        107.6675
214.52        80.37801
214.98        69.98697
215.44        67.58514
215.90        67.66245
216.36        69.74697
216.81        73.77892
217.27        79.98794
217.73        91.53186
218.19        104.2567
218.65        100.0482
219.11        78.61208
219.57        54.71476
220.02        40.45237
220.48        40.42608
220.94        52.97025
221.40        79.48763
221.86        118.9479
222.32        144.8743
222.77         134.509
223.23        105.2039
223.69        76.15566
224.15        58.09779
224.61        49.29557
225.06        44.79335
225.52        43.05463
225.98        42.70423
226.44        43.08202
226.90        44.55293
227.36        46.39791
227.81        47.13602
228.27        46.60262
228.73        45.07501
229.19        43.42762
229.65        42.79274
230.10        43.19947
230.56        44.22655
231.02        45.24619
231.48        45.28904
231.93        44.20965
232.39        42.76872
232.85        41.37315
233.31        40.55802
233.77        40.41922
234.22        40.75074
234.68        41.54317
235.14        42.97725
235.60        45.02275
236.05        47.72984
236.51        50.57861
236.97        52.38551
237.43        52.69629
237.88        51.76339
238.34        50.34013
238.80        50.07903
239.26        51.71682
239.71        55.56161
240.17        61.41917
240.63        68.22683
241.08        75.02512
241.54        81.25524
242.00        87.67739
242.46        96.93961
242.91        111.9622
243.37        134.1616
243.83        164.2687
244.28        190.5541
244.74        193.2623
245.20        171.4527
245.66        141.9423
246.11        119.4969
246.57        105.3299
247.03        95.70087
247.48        88.49739
247.94        82.02695
248.40        77.11789
248.85         74.3028
249.31        73.46235
249.77        73.74296
250.22        74.72027
250.68        76.20928
251.14        78.05811
251.59        79.48692
252.05        80.11835
252.51        80.62683
252.96        80.10795
253.42         78.3728
253.88        75.75014
254.33        72.20255
254.79        70.41705
255.25        72.35386
255.70        77.37022
256.16        84.49533
256.62        89.99488
257.07        88.51873
257.53         82.1517
257.99        74.59013
258.44        68.52881
258.90        66.38223
259.35        66.85023
259.81        68.83176
260.27        70.90058
260.72        71.41163
261.18        70.48353
261.63         68.5695
262.09        66.60965
262.55        64.98206
263.00        63.63792
263.46        62.55471
263.91        61.35865
264.37        59.97982
264.83        58.40832
265.28        56.74357
265.74        55.35347
266.19        54.33459
266.65        53.74625
267.11        53.38539
267.56        53.10157
268.02        52.67949
268.47        52.03915
268.93        51.27872
269.38        50.34701
269.84        49.23724
270.30        47.96807
270.75        46.54629
271.21        45.18723
271.66        44.14829
272.12        43.47584
272.57        43.06906
273.03        42.71127
273.48        42.03613
273.94        41.02687
274.39        39.77951
274.85        38.56083
275.31        37.58862
275.76        36.88464
276.22        36.40294
276.67        35.99282
277.13        35.54287
277.58         34.9709
278.04         34.3519
278.49        33.70405
278.95        33.17329
279.40        32.72333
279.86        32.36757
280.31        31.97485
280.77        31.47437
281.22        30.82729
281.68        30.14952
282.13        29.50307
282.59         29.0564
283.04        28.79836
283.50        28.69184
283.95        28.67017
284.41        28.64131
284.86        28.57268
285.32        28.52507
285.77        28.48185
286.22         28.4836
286.68        28.53811
287.13        28.57832
287.59        28.65021
288.04        28.78304
288.50        28.98339
288.95        29.20392
289.41        29.36089
289.86        29.25891
290.32        28.93368
290.77        28.46301
291.22        28.03202
291.68        27.89555
292.13        28.10976
292.59        28.62725
293.04        29.36693
293.50        30.20903
293.95        31.09743
294.40        32.07668
294.86        33.14977
295.31        34.30761
295.77        35.55714
296.22        36.86314
296.68        38.25124
297.13        39.75887
297.58        41.39344
298.04        43.13954
298.49        44.94076
298.95        46.72745
299.40        48.46043
299.85         50.1563
300.31        51.84796
300.76        53.56573
301.21         55.3321
301.67        57.16008
302.12        58.99666
302.58        60.84976
303.03         62.6764
303.48        64.51264
303.94        66.41599
304.39        68.40006
304.84        70.49077
305.30        72.67712
305.75        74.86262
306.20        76.99567
306.66        79.06431
307.11         81.0371
307.57        82.94062
308.02         84.7055
308.47        86.35785
308.93        87.91806
309.38        89.41359
309.83        91.01336
310.29        92.74636
310.74         94.5567
311.19        96.31238
311.65        97.76183
312.10        98.82137
312.55        99.56052
313.00        100.1493
313.46        100.8641
313.91        101.7541
314.36        102.7733
314.82        103.7931
315.27        104.6197
315.72        105.1818
316.18        105.5768
316.63        105.8815
317.08        106.2651
317.53         106.777
317.99        107.3477
318.44         107.937
318.89        108.4501
319.35        108.8479
319.80        109.1663
320.25        109.4186
320.70        109.6263
321.16        109.8063
321.61        110.0013
322.06        110.2058
322.51        110.4251
322.97        110.6459
323.42        110.8589
323.87        111.1412
324.32        111.6412
324.78        112.3255
325.23        113.2298
325.68        114.0359
326.13        114.2306
326.59        113.7274
327.04        112.7289
327.49        111.6917
327.94        111.3693
328.39        111.9411
328.85        113.1564
329.30        114.7362
329.75        115.8851
330.20        116.3212
330.66        116.2245
331.11        115.9045
331.56        115.7911
332.01        116.0364
332.46        116.4712
332.92        116.9204
333.37         117.286
333.82        117.4526
334.27        117.5424
334.72        117.6103
335.17        117.7019
335.63        117.8509
336.08         118.108
336.53        118.5225
336.98        119.2305
337.43        120.2341
337.88        121.4437
338.34        122.7241
338.79        123.9778
339.24        125.0556
339.69        125.9688
340.14         126.582
340.59        126.7106
341.05        126.4083
341.50        125.7634
341.95         125.112
342.40        124.9644
342.85        125.4408
343.30        126.4011
343.75        127.6055
344.20        128.6288
344.66          129.32
345.11        129.7868
345.56        130.0727
346.01        130.2621
346.46         130.418
346.91        130.5124
347.36        130.6076
347.81        130.8315
348.26         131.189
348.72        131.6219
349.17        132.0774
349.62        132.5005
350.07        132.8465
350.52        133.1528
350.97        133.2475
351.42        132.8648
351.87        132.0173
352.32          130.82
352.77        129.6782
353.22        129.1809
353.67        129.4236
354.13        130.2259
354.58        131.1829
355.03        131.5597
355.48        131.1566
355.93        130.1859
356.38        129.0404
356.83        128.3202
357.28         128.149
357.73        128.3033
358.18        128.4717
358.63        128.1686
359.08        127.2787
359.53        126.0071
359.98        124.5856
360.43        123.3269
360.88        122.3208
361.33        121.4635
361.78        120.6841
362.23        119.8859
362.68        119.0388
363.13        118.1964
363.58        117.3615
364.03        116.5138
364.48        115.6458
364.93        114.7422
365.38        113.8256
365.83        112.9556
366.28        112.1501
366.73        111.3966
367.18        110.6637
367.63        109.8926
368.08        109.0692
368.53        108.2195
368.98        107.3643
369.43        106.5316
369.88        105.7337
370.33         104.959
370.78        104.2159
371.23        103.5299
371.68        102.8983
372.13        102.3011
372.58        101.7158
373.03        101.1001
373.48        100.4344
373.93        99.73363
374.38        98.97054
374.83        98.11315
375.28        97.17838
375.72        96.16676
376.17        95.23241
376.62        94.48767
377.07        93.96274
377.52        93.64304
377.97        93.40904
378.42        93.07615
378.87        92.59648
379.32        91.98305
379.77        91.40968
380.22        91.13449
380.67        91.17294
381.11        91.47398
381.56        91.65706
382.01        91.19577
382.46        90.03686
382.91        88.43419
383.36        86.87643
383.81        86.02415
384.26        85.97676
384.71        86.50585
385.15        87.26524
385.60        87.65186
386.05         87.4772
386.50        86.91424
386.95        86.13677
387.40        85.42248
387.85        84.87291
388.29        84.34699
388.74        83.91171
389.19        83.45251
389.64        82.94745
390.09        82.43449
390.54        81.95549
390.98         81.5481
391.43        81.26522
391.88        81.07801
392.33        80.95946
392.78        80.75253
393.23        80.42091
393.67        80.17886
394.12        80.17332
394.57        79.37549
395.02        79.54951
395.47        79.24923
395.91        79.00641
396.36        78.77157
396.81        78.58768
397.26        78.45021
397.71        78.29019
398.15        78.06326
398.60        77.85312
399.05         77.4584
399.50        77.00629
399.95        77.04817
400.39        77.44799
400.84        77.24081
401.29        76.46942
401.74        76.05987
402.18        76.02798
402.63        75.65922
403.08        75.06433
403.53        74.79747
403.97        74.88068
404.42        75.09917
404.87        75.29032
405.32        75.23489
405.76        74.87403
406.21        74.35529
406.66        73.82128
407.11        73.44516
407.55        73.35978
408.00        73.56085
408.45        73.92569
408.90        74.27882
409.34        74.38584
409.79        73.83784
410.24        72.92225
410.68        72.49738
411.13        72.65714
411.58        72.96923
412.03        73.21461
412.47        73.19936
412.92        72.82745
413.37        72.21933
413.81        71.58931
414.26        71.30589
414.71        71.40848
415.15        71.81097
415.60        72.31757
416.05        72.66375
416.49        72.75414
416.94        72.66185
417.39        72.48114
417.83         72.3373
418.28        72.28822
418.73        72.29823
419.17        72.35238
419.62        72.43771
420.07        72.52216
420.51        72.57557
420.96        72.65062
421.41        72.69527
421.85        72.66316
422.30         72.8308
422.74        73.00641
423.19        72.53459
423.64        71.57321
424.08        71.29673
424.53         71.7702
424.98        71.67133
425.42        71.84351
425.87        72.17187
426.31        72.75564
426.76        72.80715
427.21        72.37968
427.65        72.07341
428.10        71.96523
428.54        71.94699
428.99        72.08738
429.44        72.11428
429.88        72.13948
430.33        72.93842
430.77        74.05267
431.22        74.31108
431.66        73.67294
432.11        72.76831
432.56        72.00646
433.00        71.84756
433.45        72.43909
433.89        73.39343
434.34        74.17332
434.78        74.71162
435.23        73.34625
435.67        71.35048
436.12         72.2178
436.57        72.61321
437.01        73.28152
437.46        73.68126
437.90        73.84274
438.35        72.49088
438.79        72.92969
439.24        72.71099
439.68         72.7627
440.13        73.15205
440.57        73.79035
441.02         73.8978
441.46        73.52767
441.91        74.07933
442.35        75.13693
442.80        74.92999
443.24        73.73735
443.69        73.75256
444.13        74.85705
444.58        75.27127
445.02         74.9164
445.47        74.82204
445.91        75.06612
446.36         75.1948
446.80        75.16369
447.24        75.72757
447.69        75.66451
448.13        75.81569
448.58        75.83304
449.02        75.74038
449.47        75.59658
449.91        75.48871
450.36        75.47312
450.80        75.49098
451.25        75.53658
451.69        75.53619
452.13        75.49448
452.58         75.4302
453.02        75.36321
453.47        75.33891
453.91        75.35159
454.36        75.36597
454.80        75.35358
455.24        75.24023
455.69        74.99539
456.13        74.72588
456.58        74.52426
457.02        73.87966
457.46        73.38594
457.91         73.6368
458.35        74.39578
458.79        74.48565
459.24         73.9274
459.68        73.07982
460.13         72.1983
460.57        72.31054
461.01        72.43356
461.46        72.12283
461.90        72.99295
462.34        73.38256
462.79        73.40916
463.23        73.46088
463.68        73.36551
464.12        73.12627
464.56        72.69021
465.01        71.90229
465.45        71.00311
465.89        70.77112
466.34        71.09502
466.78        71.51627
467.22        71.89812
467.67         71.2616
468.11        70.98112
468.55        70.87528
468.99        71.25116
469.44        71.21767
469.88        70.77461
470.32        70.45553
470.77        70.32034
471.21        70.24007
471.65        70.21777
472.10         70.2339
472.54        70.35078
472.98        70.37048
473.42        70.29495
473.87        70.23637
474.31         70.1469
474.75        69.83437
475.20          69.411
475.64        69.30915
476.08        69.53745
476.52        69.49146
476.97        69.09438
477.41        69.25552
477.85        69.49372
478.29        68.76233
478.74        69.45197
479.18         69.6195
479.62        69.41001
480.06        69.17506
480.50        69.22532
480.95        69.09161
481.39        68.91864
481.83        68.88145
482.27        68.33349
482.72        68.97789
483.16        69.00237
483.60        68.45892
484.04        68.94697
484.48         69.1084
484.93        69.42545
485.37        68.79986
485.81        68.85028
486.25        68.39285
486.69         70.3073
487.14        71.42607
487.58        68.77068
488.02        68.94086
488.46        68.26582
488.90        68.00312
489.34        69.21033
489.79        69.61575
490.23        68.97311
490.67        68.58086
491.11         68.3631
491.55        68.07166
491.99        67.73389
492.43        67.45907
492.88        67.30573
493.32        67.39025
493.76        67.65679
494.20        67.86757
494.64        67.96538
495.08        68.05782
495.52        68.12071
495.96        68.03294
496.41        67.83469
496.85        67.73276
497.29        67.63882
497.73        67.67163
498.17        67.01011
498.61        66.92306
499.05        67.13168
499.49        67.27663
499.93        67.11033
500.37        67.24887
500.82        67.55987
501.26         67.6387
501.70        67.49209
502.14        67.43745
502.58        67.51813
503.02        67.58679
503.46        67.64789
503.90        67.80238
504.34        67.97079
504.78        67.94703
505.22        67.67549
505.66        67.32866
506.10        67.09548
506.54        66.79064
506.98        66.35954
507.42        67.29818
507.86        67.52153
508.30        66.84069
508.74        67.50005
509.18        67.26841
509.62        67.04632
510.06        66.85751
510.50        66.77299
510.94        66.71042
511.38        66.65438
511.82        66.66811
512.26        66.75357
512.70        66.87431
513.14        66.97707
513.58        67.07896
514.02        67.18671
514.46        66.86597
514.90         66.9437
515.34        66.87983
515.78        66.92227
516.22        67.01809
516.66        67.12852
517.10        67.17618
517.54        67.13538
517.98        67.04634
518.42        66.92519
518.86        66.79658
519.30        66.67883
519.74        66.56592
520.18        66.48694
520.62        66.48622
521.06        66.56799
521.50        66.72256
521.93        66.90133
522.37        67.00051
522.81        67.00227
523.25        66.92487
523.69        66.82223
524.13        66.78432
524.57        66.82615
525.01        66.91212
525.45        66.98705
525.89        66.96277
526.32        66.81588
526.76        66.60561
527.20        66.37122
527.64        66.17641
528.08        66.04695
528.52        65.96314
528.96        65.93662
529.40        65.98522
529.83        66.09673
530.27        66.26842
530.71        66.43963
531.15        66.51985
531.59        66.48998
532.03        66.37109
532.46        66.20773
532.90        66.12096
533.34        66.12715
533.78        66.15722
534.22        66.17841
534.66        66.22159
535.09        66.22511
535.53        66.05389
535.97        65.75993
536.41        65.59498
536.85         65.5862
537.28         65.6037
537.72        65.63696
538.16        65.72005
538.60        65.83737
539.04        65.97727
539.47         66.0899
539.91        66.14163
540.35        66.11109
540.79        66.01308
541.22        65.88686
541.66        65.81868
542.10        65.82242
542.54        65.87915
542.97        65.94311
543.41        65.97209
543.85        65.94527
544.29        65.88591
544.72        65.81352
545.16        65.79874
545.60        65.83823
546.04        65.91167
546.47        65.99865
546.91        66.06681
547.35        66.10381
547.79        66.11288
548.22        66.08617
548.66        66.04935
549.10        66.06541
549.53        65.96524
549.97        65.80495
550.41        65.74202
550.84        65.78802
551.28        65.77602
551.72        65.69164
552.15        65.74769
552.59        65.99972
553.03        65.74359
553.46        66.16207
553.90        66.15617
554.34        66.06496
554.77        65.94994
555.21         65.8925
555.65        65.74758
556.08        65.89222
556.52         65.9656
556.96        66.02095
557.39        66.12597
557.83        66.21194
558.27        65.94145
558.70        65.43665
559.14        65.24908
559.57        65.35892
560.01        65.57611
560.45          65.554
560.88        65.64805
561.32        65.76965
561.75        65.93311
562.19        66.09358
562.63        65.91935
563.06        65.52323
563.50        65.50558
563.93        65.76764
564.37        65.83152
564.80          65.713
565.24        65.57597
565.68        65.30294
566.11        66.00578
566.55        65.32129
566.98        65.16574
567.42        65.00313
567.85        65.21316
568.29         65.7324
568.72        66.11498
569.16        66.37448
569.60        66.49208
570.03        66.68032
570.47        66.74951
570.90        66.84261
571.34        66.36896
571.77        66.79006
572.21        67.11519
572.64        67.08194
573.08        67.47857
573.51        66.45856
573.95        66.45421
574.38        67.19467
574.82        66.94176
575.25        66.79295
575.69        67.24255
576.12         67.0347
576.56        66.12402
576.99        66.45605
577.42        66.46819
577.86        66.64381
578.29        67.64098
578.73        67.83017
579.16        67.74323
579.60        66.74058
580.03        66.66806
580.47        66.60613
580.90        67.59387
581.33        67.44702
581.77        67.69275
582.20        67.67174
582.64        67.92833
583.07        67.50836
583.51        67.15054
583.94        66.85245
584.37        66.83073
584.81        67.16551
585.24        67.29954
585.68        67.10726
586.11        67.39885
586.54        67.22108
586.98        66.42897
587.41        66.03741
587.85        66.68728
588.28        66.23311
588.71        66.47933
589.15         66.1294
589.58        66.08395
590.01        66.00123
590.45        65.94415
590.88        66.56581
591.31        66.49097
591.75        66.05051
592.18        65.75099
592.61        65.80825
593.05        66.45355
593.48        67.31337
593.91        67.42876
594.35        66.75661
594.78        65.92767
595.21         65.4682
595.65        65.87102
596.08        67.15341
596.51        66.95465
596.94        66.32012
597.38        65.88566
597.81        65.93603
598.24        66.86734
598.68        66.30283
599.11        65.83611
599.54        67.57666
599.97        66.78522
600.41        66.41776
600.84         65.7308
601.27        66.35474
601.70        66.03927
602.14        66.40238
602.57        66.07391
603.00        65.96648
603.43        65.58583
603.87        66.34839
604.30        66.41752
604.73        66.19224
605.16        65.81194
605.60         65.4734
606.03         65.2459
606.46         65.1044
606.89        65.55871
607.32        65.87276
607.76        65.52331
608.19        65.93742
608.62        65.76285
609.05        65.59776
609.48        65.49569
609.92        66.38024
610.35        65.93612
610.78        65.50066
611.21        65.69057
611.64        65.61723
612.07        65.87593
612.50        65.75097
612.94        65.70024
613.37        65.55167
613.80        65.65339
614.23        64.93907
614.66        64.91627
615.09        65.49123
615.52        65.68497
615.96        65.46617
616.39        65.50835
616.82        65.84981
617.25        65.00488
617.68        64.95761
618.11        65.06084
618.54        65.73008
618.97        65.79248
619.40        65.25838
619.84        65.27122
620.27        65.24328
620.70        65.35669
621.13        65.32948
621.56        64.85248
621.99        64.05796
622.42        63.82778
622.85        64.22913
623.28        64.06963
623.71        64.09212
624.14        64.26009
624.57        64.98972
625.00         64.6386
625.43         64.9185
625.86        64.77209
626.29        64.83633
626.72        64.10875
627.15        64.49773
627.58        64.49525
628.01        64.55972
628.44        64.46543
628.87        64.25958
629.30        64.13972
629.73        64.10762
630.16        64.31988
630.59        64.29644
631.02        64.44301
631.45         64.7044
631.88        64.84825
632.31        64.88041
632.74        64.83772
633.17        64.73808
633.60        64.59875
634.03         64.4415
634.46        64.26239
634.89        64.08838
635.32        63.98236
635.75        63.96363
636.18        63.93664
636.61         63.9096
637.04        63.96896
637.47        64.10686
637.89        64.15053
638.32        64.32336
638.75        64.27881
639.18        64.07554
639.61        64.03837
640.04        63.72707
640.47        63.59969
640.90        63.55034
641.33         63.6625
641.76        63.87362
642.18        64.00992
642.61        64.02063
643.04        63.98576
643.47        63.93748
643.90        63.90127
644.33        63.88965
644.76        63.89283
645.18        63.88843
645.61        63.82531
646.04        63.70881
646.47          63.568
646.90         63.4477
647.33        63.40668
647.75        63.42913
648.18        63.54273
648.61        63.74973
649.04        63.81258
649.47        63.64813
649.89        64.28425
650.32        63.97585
650.75         63.8862
651.18        63.62098
651.61        63.57489
652.03        63.77858
652.46        64.03239
652.89        64.20671
653.32        64.13134
653.74        64.02634
654.17        63.43804
654.60        63.99167
655.03        64.22475
655.46        63.31952
655.88         63.7422
656.31        66.94594
656.74        70.34488
657.16        70.19689
657.59        69.70934
658.02        65.83221
658.45        65.26603
658.87        64.30288
659.30         64.3679
659.73        64.23389
660.15        64.80745
660.58         63.8832
661.01        63.69844
661.44        63.70595
661.86        63.56237
662.29        63.22902
662.72        63.77468
663.14         63.8646
663.57        63.73965
664.00        63.20213
664.42        63.12492
664.85        63.54811
665.27        63.99854
665.70        64.29118
666.13        64.40691
666.55        64.30519
666.98        63.92319
667.41        63.38749
667.83        63.32415
668.26        63.13408
668.69        63.28618
669.11        63.51589
669.54        63.70962
669.96        63.83125
670.39        63.91399
670.82         63.9782
671.24         64.0511
671.67        64.14046
672.09        64.12142
672.52        64.09962
672.94        64.15901
673.37        64.27333
673.80        64.16405
674.22        63.88318
674.65        63.72279
675.07        63.72649
675.50        63.72097
675.92        63.69355
676.35        63.67131
676.77        63.62719
677.20        63.61748
677.62        63.67649
678.05        63.62988
678.47        63.42863
678.90        63.98797
679.32        63.70181
679.75        63.79225
680.17        63.77755
680.60        63.74426
681.02        63.72144
681.45        63.62834
681.87        63.74391
682.30        63.83886
682.72        63.97551
683.15        64.08121
683.57        64.15724
684.00        64.21479
684.42        64.27317
684.85        64.36052
685.27        64.46908
685.70         64.6087
686.12         64.7235
686.54        64.71664
686.97        64.59301
687.39        64.42888
687.82         64.3158
688.24         64.1933
688.66        64.09779
689.09        64.06213
689.51        64.08382
689.94        64.10033
690.36        64.09727
690.78        64.08979
691.21        64.11777
691.63        64.16955
692.06        64.20998
692.48        64.56908
692.90        64.46074
693.33        64.46077
693.75        64.34389
694.17         64.0826
694.60        63.79702
695.02        63.73378
695.44         63.9138
695.87        64.25001
696.29          64.607
696.71        64.59987
697.14        64.27853
697.56        64.11347
697.98        64.17408
698.41        64.19698
698.83        64.18455
699.25        64.36314
699.68        64.61308
700.10        64.67905
700.52        64.50166
700.94        64.17303
701.37        63.83491
701.79        63.71791
702.21        63.86625
702.64        64.19218
703.06        64.56537
703.48         64.7559
703.90        64.70264
704.33        64.48266
704.75        64.19516
705.17        63.98962
705.59         63.9208
706.01        63.94016
706.44        64.02509
706.86        64.15499
707.28        64.29696
707.70        64.47005
708.12        64.65388
708.55        64.77513
708.97        64.83374
709.39        64.87571
709.81        64.90276
710.23        64.89922
710.66        64.86746
711.08        64.83719
711.50        64.79642
711.92        64.73306
712.34        64.65334
712.76        64.57874
713.19        64.50234
713.61          64.447
714.03        64.40973
714.45         64.3938
714.87        64.43469
715.29        64.58893
715.71        64.85104
716.13        65.18144
716.56        65.49274
716.98        65.72639
717.40        65.81254
717.82        65.77633
718.24        65.62629
718.66        65.38176
719.08        65.08359
719.50        64.75801
719.92          64.479
720.34        64.35284
720.76        64.39906
721.19        64.56748
721.61        64.84185
722.03        65.13719
722.45        65.40328
722.87        65.64338
723.29        65.79494
723.71        65.76614
724.13        65.55567
724.55        65.19862
724.97        64.80502
725.39         64.5667
725.81        64.53691
726.23        64.64518
726.65        64.82283
727.07        65.09495
727.49        65.18642
727.91        65.31641
728.33        65.41876
728.75        65.50642
729.17         65.5778
729.59         65.6105
730.01        65.61797
730.43        65.62811
730.85        65.64532
731.27        65.66857
731.69        65.66778
732.10        65.59229
732.52        65.43791
732.94        65.23566
733.36        65.06752
733.78        64.94311
734.20        64.87448
734.62        65.08541
735.04        65.57977
735.46        65.16264
735.88        65.74436
736.30        65.71431
736.72        65.69821
737.13        65.88971
737.55        66.19121
737.97         66.3335
738.39         66.2465
738.81        65.94787
739.23        65.57693
739.65         65.5446
740.06         65.7904
740.48        65.95689
740.90        66.02467
741.32        65.86603
741.74        66.23055
742.16        66.31412
742.57         66.3283
742.99        66.29633
743.41        66.23295
743.83        66.12559
744.25          65.978
744.67        65.79158
745.08        65.63572
745.50        65.59863
745.92        65.70421
746.34        65.92587
746.75        66.16196
747.17        66.23228
747.59        66.10471
748.01        65.83068
748.42        65.52899
748.84        65.39036
749.26        65.45836
749.68        65.67538
750.09        65.94366
750.51        66.06276
750.93        65.97664
751.35        65.85855
751.76        65.78318
752.18        65.43555
752.60        65.37094
753.01        65.46143
753.43        65.32495
753.85        65.27896
754.27        65.16456
754.68        65.26673
755.10        65.18317
755.52        65.26629
755.93        65.37893
756.35        65.48949
756.77        65.66302
757.18        65.81992
757.60        65.92754
758.02        66.41853
758.43        67.13987
758.85        66.23389
759.26        65.87117
759.68        65.44929
760.10        65.64658
760.51        65.96645
760.93        66.26125
761.34        66.34328
761.76         66.2066
762.18        66.20522
762.59        66.37509
763.01        66.32436
763.42        66.14621
763.84        66.15561
764.26        66.36402
764.67          66.463
765.09        66.45592
765.50        66.42168
765.92        66.38639
766.33        66.24895
766.75        65.98946
767.16        65.82811
767.58        65.75636
768.00        65.64824
768.41        65.56424
768.83        65.72824
769.24        66.03487
769.66        66.15993
770.07        66.08438
770.49        65.85239
770.90        65.64198
771.32        66.04345
771.73        66.88616
772.15         67.1933
772.56        66.89869
772.97        66.51237
773.39        66.20319
773.80        66.03407
774.22        66.04629
774.63        66.27348
775.05        66.55269
775.46        66.68726
775.88        66.59435
776.29        66.35859
776.70         66.1049
777.12        66.05853
777.53        66.27322
777.95        66.62467
778.36        66.99721
778.77        67.16576
779.19        67.09583
779.60        66.89342
780.02        66.60577
780.43        66.40565
780.84        66.37081
781.26          66.103
781.67        65.77939
782.09        66.46422
782.50        67.79073
782.91        67.88638
783.33         66.8528
783.74        66.50029
784.15        66.91105
784.57        67.03158
784.98        66.85654
785.39        66.83955
785.81        67.00179
786.22        67.28181
786.63        67.60232
787.04        67.78004
787.46        67.79451
787.87        67.70527
788.28        67.59085
788.70        67.52286
789.11        67.49933
789.52        67.55248
789.93        67.63261
790.35        67.56423
790.76        67.38471
791.17         67.3178
791.58        67.36159
792.00        67.30527
792.41        67.16817
792.82        67.09357
793.23        67.09657
793.65        67.09296
794.06        67.10506
794.47        67.26108
794.88        67.52347
795.29        67.65542
795.71        67.59192
796.12        67.65987
796.53         67.8176
796.94        67.47298
797.35        66.82559
797.76        67.01558
798.18        67.89613
798.59        68.23569
799.00         67.9183
799.41        67.64777
799.82        67.53337
800.23        67.43343
800.64        67.38054
801.06        67.37603
801.47        67.42959
801.88        67.46808
802.29         67.4678
802.70        67.44218
803.11        67.38631
803.52        67.29484
803.93        67.19167
804.34        67.08939
804.75        67.02717
805.17        67.12035
805.58        67.42204
805.99        67.67726
806.40        67.88164
806.81        68.48346
807.22        69.23103
807.63        69.08871
808.04        68.19316
808.45        67.68954
808.86        67.69003
809.27        67.58656
809.68        67.35342
810.09         67.2509
810.50        67.28936
810.91        67.40145
811.32        67.60564
811.73        67.92576
812.14        68.33519
812.55        68.80523
812.96        69.20721
813.37         69.3073
813.78        69.05563
814.19        68.55483
814.60        67.94636
815.01        67.41414
815.42        67.01492
815.83         66.7049
816.24        66.52814
816.65        66.55818
817.05        66.80174
817.46         67.2112
817.87        67.66599
818.28        67.93004
818.69        67.94845
819.10        67.75498
819.51        67.48759
819.92        67.41386
820.33         67.6058
820.74        67.97919
821.14        68.38459
821.55        68.57764
821.96         68.5006
822.37         68.2374
822.78        67.91322
823.19        67.73242
823.60        67.76304
824.00        67.96851
824.41        68.21871
824.82        68.39947
825.23        68.45631
825.64        68.42535
826.04        68.36763
826.45        68.34116
826.86        68.37737
827.27        68.45515
827.68        68.51514
828.08        68.48848
828.49        68.31364
828.90        68.04485
829.31        67.78631
829.72        67.70397
830.12        67.85889
830.53        68.14669
830.94        68.45555
831.35        68.54641
831.75        68.37128
832.16        67.98483
832.57        67.53414
832.97         67.2299
833.38        67.13684
833.79        67.17464
834.20        67.30325
834.60        67.45681
835.01        67.60758
835.42        67.82265
835.82        68.05296
836.23        68.13017
836.64        68.05747
837.04        67.83842
837.45        67.67477
837.86        67.96368
838.26        68.78555
838.67        69.97689
839.08        71.13902
839.48        71.51914
839.89        70.92886
840.29        69.64281
840.70        68.26025
841.11          67.464
841.51        67.43515
841.92        67.95713
842.33        68.78355
842.73        69.47114
843.14        69.74151
843.54        69.77023
843.95        69.68048
844.35        69.72182
844.76         69.9356
845.17        70.22135
845.57        70.44007
845.98         70.3577
846.38        69.96004
846.79        69.34256
847.19        68.70823
847.60         68.3457
848.00        68.34259
848.41          68.588
848.81        68.96868
849.22        69.20703
849.62        69.25903
850.03        69.19458
850.43        69.08986
850.84        68.99989
851.24        69.00391
851.65        69.00734
852.05        69.13176
852.46        69.47823
852.86        70.02882
853.27        70.72055
853.67        71.30441
854.07        71.55975
854.48        71.42529
854.88        70.99064
855.29         70.3569
855.69        69.85577
856.10        69.54115
856.50        69.42551
856.90        69.39187
857.31        69.25582
857.71        69.01634
858.12        68.66193
858.52        68.34689
858.92        68.20179
859.33        68.23753
859.73        68.45644
860.13         68.6409
860.54        68.45901
860.94        67.90025
861.34        67.06349
861.75        66.25014
862.15        65.99369
862.55        66.39284
862.96         67.2444
863.36        68.28664
863.76        68.98273
864.17        69.13406
864.57        68.91356
864.97        68.41301
865.38        67.79585
865.78        67.17875
866.18        66.50923
866.58        65.90316
866.99        65.57645
867.39        65.61346
867.79        65.99064
868.19        66.55555
868.60        67.02061
869.00        67.33413
869.40        67.51714
869.80        67.66875
870.21        67.97866
870.61        68.51685
871.01        69.12323
871.41        69.56944
871.81        69.56362
872.22        69.06276
872.62        68.15994
873.02        67.13495
873.42        66.46084
873.82        66.29144
874.22        66.52751
874.63        66.88892
875.03        66.92976
875.43        66.53733
875.83        65.86287
876.23        65.20721
876.63        65.02624
877.03        65.41563
877.44        66.19241
877.84        67.06685
878.24        67.56518
878.64        67.50602
879.04        66.91072
879.44        66.14304
879.84        65.85819
880.24        66.15571
880.64        66.79026
881.04        67.40079
881.44        67.42544
881.84        66.74671
882.24        65.60007
882.65        64.37505
883.05        63.65293
883.45        63.59799
883.85        64.03436
884.25        64.74387
884.65        65.35002
885.05        65.70033
885.45        65.89409
885.85        65.98354
886.25        66.05184
886.65        66.12924
887.05        66.15486
887.45        66.12054
887.85        66.04264
888.25        65.92612
888.65         65.7922
889.04        65.63725
889.44        65.46775
889.84        65.27808
890.24        65.07484
890.64        64.88417
891.04        64.74888
891.44        64.68121
891.84        64.67763
892.24        64.70294
892.64        64.69482
893.04        64.65401
893.44        64.61852
893.83        64.65302
894.23        64.80975
894.63        65.11432
895.03        65.50543
895.43        65.95863
895.83        66.44701
896.23          66.911
896.63        67.31217
897.02        67.52315
897.42        67.37726
897.82        66.87176
898.22        66.12729
898.62        65.28501
899.01        64.54117
899.41        63.99514
899.81        63.59274
900.21        63.41441
900.61        63.57495
901.00        64.04934
901.40        64.78294
901.80        65.52476
902.20         65.8637
902.59        65.72247
902.99        65.20922
903.39        64.56398
903.79        64.20017
904.18        64.22446
904.58        64.49883
904.98        64.92769
905.38        65.37277
905.77        65.77133
906.17        66.20136
906.57        66.53106
906.96        66.53391
907.36        66.17702
907.76        65.52664
908.15        64.90862
908.55        64.83128
908.95        65.39956
909.34        66.47153
909.74        67.62081
910.14        68.21887
910.53        68.05968
910.93        67.34671
911.33         66.3642
911.72         65.5459
912.12        65.09747
912.52        64.90836
912.91        64.84752
913.31        64.73246
913.70        64.52357
914.10        64.26953
914.49        64.17709
914.89        64.49067
915.29        65.25654
915.68        66.36211
916.08        67.42177
916.47        67.87714
916.87        67.61035
917.26        66.77875
917.66        65.81902
918.05        65.24835
918.45        65.21115
918.84         65.6133
919.24         66.1766
919.64        66.54324
920.03        66.60186
920.42        66.41772
920.82        66.24505
921.21        66.42095
921.61        66.97822
922.00        67.81728
922.40        68.56229
922.79        68.71909
923.19        68.15446
923.58        67.11315
923.98        65.97152
924.37        65.19869
924.77        64.93604
925.16        64.99911
925.55        65.30967
925.95        65.69918
926.34        66.08333
926.74        66.50435
927.13         66.7946
927.52        66.61545
927.92        65.99915
928.31        65.03793
928.70        64.11101
929.10        63.79374
929.49        64.18246
929.89        65.04166
930.28        66.16939
930.67        67.07851
931.07        67.54472
931.46        67.78571
931.85        67.66773
932.24        67.04268
932.64        66.02455
933.03        64.64496
933.42        63.43882
933.82        63.18864
934.21        64.01463
934.60        65.74987
934.99        67.76032
935.39        68.86411
935.78        68.74729
936.17        67.63996
936.56        66.15546
936.96        65.28474
937.35        65.29856
937.74        65.90562
938.13        66.63713
938.53        66.77882
938.92        66.17155
939.31        65.11012
939.70        64.01886
940.09        63.47202
940.49        63.56891
940.88        64.14449
941.27        64.91335
941.66        65.36533
942.05        65.34751
942.44        65.05965
942.84        64.71889
943.23        64.64651
943.62        64.93649
944.01        65.41248
944.40         66.0324
944.79        66.76157
945.18        67.51025
945.57        68.27213
945.97        68.74759
946.36        68.53728
946.75         67.5741
947.14         66.0871
947.53        64.50756
947.92        63.44328
948.31        63.05154
948.70        63.17831
949.09        63.68559
949.48        64.30635
949.87        64.89784
950.26        65.50976
950.65        66.05339
951.04        66.38773
951.43        66.47595
951.82        66.30962
952.21        65.97672
952.60        65.66239
952.99        65.45199
953.38        65.34827
953.77        65.34263
954.16        65.40479
954.55        65.51006
954.94        65.63276
955.33        65.81376
955.72        66.11272
956.11        66.50025
956.50         66.9435
956.89        67.18212
957.28        66.80585
957.66        65.77681
958.05        64.32293
958.44        62.88587
958.83         62.0785
959.22        62.02482
959.61        62.56569
960.00        63.40565
960.39        63.98019
960.78        64.06808
961.16         63.7907
961.55        63.39717
961.94        63.19175
962.33        63.27322
962.72        63.58339
963.11        63.92274
963.49        63.97791
963.88        63.60053
964.27        62.89414
964.66        62.30112
965.04        62.48987
965.43        63.51048
965.82        65.24503
966.21        66.96152
966.60        67.24664
966.98        65.75317
967.37        63.09375
967.76        60.36779
968.15        58.95095
968.53        59.09928
968.92        60.45916
969.31        62.38732
969.69        63.57437
970.08        63.47211
970.47        62.50653
970.86        61.41691
971.24        61.25463
971.63        62.24827
972.02        64.06696
972.40        66.09441
972.79        66.89176
973.17        66.09303
973.56        64.23332
973.95        62.15659
974.33        60.91817
974.72        60.75239
975.11        61.33473
975.49        62.30428
975.88        62.90833
976.26        62.92093
976.65        62.55179
977.04         62.0639
977.42        61.81138
977.81        61.86338
978.19        62.04883
978.58        62.37217
978.96        62.83188
979.35        63.36221
979.74        64.00414
980.12        64.64945
980.51        64.86135
980.89        64.68218
981.28        64.20435
981.66         63.7252
982.05        63.65546
982.43        64.10266
982.82        64.93354
983.20        66.09377
983.59        67.33615
983.97        68.57504
984.35         69.7927
984.74         70.6942
985.12        71.06667
985.51        70.79538
985.89        69.94769
986.28        68.89104
986.66        68.11396
987.04        67.79419
987.43        67.78896
987.81        67.88413
988.20        67.53688
988.58        66.67485
988.96        65.48542
989.35        64.28352
989.73        63.46065
990.12        63.09624
990.50        63.10413
990.88        63.28741
991.27        63.33594
991.65         63.1414
992.03        62.75896
992.42        62.44356
992.80        62.52122
993.18          63.073
993.56        64.03687
993.95        64.94119
994.33        65.12659
994.71        64.34447
995.10        62.93292
995.48         61.5556
995.86        61.26731
996.24        62.27913
996.63         64.1759
997.01        66.53426
997.39        68.07807
997.77         68.2487
998.15        67.50859
998.54        66.10465
998.92        64.29013
999.30        62.39647
999.68        60.40398
1000.06        58.94011
1000.45        58.87151
1000.83        60.41495
1001.21        63.48908
1001.59        67.33957
1001.97         69.9687
1002.35        70.52825
1002.73        69.51103
1003.12        67.97515
1003.50        67.29571
1003.88        67.91418
1004.26        69.28272
1004.64        71.08276
1005.02        72.61243
1005.40        73.43518
1005.78        73.91947
1006.16        73.66969
1006.54        72.01554
1006.92        69.14418
1007.30        65.41862
1007.69        62.09567
1008.07        60.76963
1008.45        61.92383
1008.83        65.26925
1009.21        69.85299
1009.59        73.15688
1009.97        73.81768
1010.35        72.32794
1010.73        69.65159
1011.11         67.2913
1011.49        65.76759
1011.86        64.74745
1012.24        63.95055
1012.62        62.91561
1013.00        61.53133
1013.38        59.92916
1013.76        58.66565
1014.14        58.90681
1014.52        60.96872
1014.90        64.29128
1015.28        67.63304
1015.66        69.43187
1016.04        69.41589
1016.41         68.0266
1016.79        65.85575
1017.17        64.16576
1017.55        63.43827
1017.93        63.26262
1018.31        63.46571
1018.69        63.78179
1019.06        64.09721
1019.44        64.65488
1019.82        65.10091
1020.20         64.5964
1020.58        63.04252
1020.95        60.72478
1021.33        58.72878
1021.71        58.21226
1022.09        59.32624
1022.46        61.99051
1022.84        65.39577
1023.22        67.35522
1023.60        66.89774
1023.97        64.52814
1024.35        62.07695
1024.73        61.60447
