SpectraSmart Spectrum 2.9.0.0
--------- Device Information -----------
Spectrum Name :  反射率_0
Saving Time :  2024/04/26 23:53:38
Spectro-Module Model Name : SE2030-DUVN
Spectro-Module Serial Number : OS361AC55029948
Wavelength Start : 200
Wavelength End : 1025
Wavelength Unit : Wavelength(nm)
Spectrum Unit : Reflectance(%)
-----------Spectrum Setting ------------
Integration Time : 20ms
Average : 10
Boxcar : 0
Background removal :  enabled
linearity correction :  enabled
SC :  disabled
Intensity correction :  disabled
DWT denoise :  enabled
savitzky-golay :  disabled
FFT :  disabled
Running average :  disabled
Kalman :  disabled
High pass :  disabled
---------------BEGIN--------------------
Wavelength(nm)             Reflectance(%)
200.29               0
200.75        39.12468
201.21        38.41635
201.67        38.74611
202.13        39.47667
202.58        40.43904
203.04        42.25917
203.50        45.20061
203.96        48.98931
204.42        53.06592
204.88        56.83323
205.34         59.7575
205.80        61.76572
206.26        62.62724
206.72        61.95656
207.18        60.48906
207.64         58.7888
208.10        56.82886
208.55        54.92652
209.01        51.75772
209.47        46.98582
209.93        42.94551
210.39        40.81489
210.85        40.86732
211.31          43.426
211.77          49.561
212.23        63.88823
212.69        99.88824
213.14        160.9666
213.60        158.9802
214.06        115.9003
214.52         86.8477
214.98        74.57686
215.44        70.14977
215.90        67.96122
216.36        66.77642
216.81        65.28526
217.27        63.03224
217.73        61.28008
218.19        58.07395
218.65        49.72881
219.11        40.17746
219.57        33.50181
220.02        31.75871
220.48        36.16162
220.94         46.7945
221.40        65.45763
221.86        92.61685
222.32        113.1397
222.77        111.3301
223.23        96.41844
223.69        78.72935
224.15        64.43498
224.61        53.87431
225.06         45.1146
225.52        39.38175
225.98         37.8872
226.44        39.91859
226.90        44.69658
227.36        49.81399
227.81        51.07742
228.27        48.01604
228.73        42.35778
229.19        36.76531
229.65        34.21919
230.10        34.89174
230.56        37.64198
231.02        40.91138
231.48         42.2697
231.93        41.19493
232.39        38.94442
232.85        36.64555
233.31        35.72039
233.77        36.34868
234.22        37.97807
234.68        39.97366
235.14        41.53201
235.60        42.38885
236.05         42.8801
236.51        43.17815
236.97        43.55045
237.43        44.16899
237.88        44.94685
238.34        45.97632
238.80        47.78833
239.26        50.67523
239.71        55.09036
240.17        60.84605
240.63         67.0376
241.08        72.76859
241.54         77.3016
242.00        80.99135
242.46        85.55536
242.91        92.87075
243.37         103.149
243.83        117.3846
244.28        131.7009
244.74        137.2133
245.20        132.3524
245.66        122.7706
246.11        114.1652
246.57        107.9005
247.03         102.489
247.48        96.76873
247.94        90.26237
248.40        84.61716
248.85        80.45406
249.31        78.11847
249.77        76.84403
250.22         75.9511
250.68        75.00758
251.14        73.88244
251.59        72.67701
252.05        72.03064
252.51        72.62543
252.96        72.76431
253.42         71.1974
253.88        68.30606
254.33        64.53835
254.79        62.85769
255.25        65.58571
255.70        72.10142
256.16        81.16735
256.62        88.75249
257.07        88.89224
257.53        83.33817
257.99        75.94952
258.44        69.74316
258.90        67.38215
259.35        67.60409
259.81        69.33391
260.27        70.99187
260.72         70.7725
261.18        68.92902
261.63        66.08432
262.09        63.47601
262.55        61.79853
263.00        60.91966
263.46        60.59739
263.91        60.14169
264.37        59.05958
264.83        57.31313
265.28        55.18586
265.74        53.26928
266.19        51.94711
266.65        51.32036
267.11        51.08967
267.56        50.98464
268.02        50.60294
268.47        49.82732
268.93        48.83698
269.38        47.68821
269.84         46.5232
270.30        45.38743
270.75        44.21632
271.21        43.13928
271.66        42.29795
272.12        41.69986
272.57        41.28009
273.03        40.84701
273.48        40.07372
273.94        38.97109
274.39        37.64207
274.85        36.35952
275.31        35.35603
275.76        34.65773
276.22        34.20687
276.67        33.87489
277.13        33.57353
277.58        33.20789
278.04         32.8279
278.49        32.38157
278.95        31.90898
279.40        31.37093
279.86        30.83112
280.31        30.23896
280.77         29.6337
281.22        29.00273
281.68        28.41766
282.13        27.91456
282.59        27.62066
283.04        27.51241
283.50        27.56799
283.95        27.69785
284.41        27.76843
284.86        27.73798
285.32        27.66628
285.77        27.58646
286.22        27.61404
286.68          27.767
287.13        27.96193
287.59        28.17572
288.04        28.33083
288.50        28.42299
288.95        28.44875
289.41        28.42248
289.86         28.2914
290.32        28.11226
290.77        27.91482
291.22         27.7862
291.68        27.83555
292.13        28.09141
292.59        28.55432
293.04        29.22443
293.50        30.11223
293.95        31.18319
294.40        32.42007
294.86        33.75572
295.31         35.0754
295.77        36.35842
296.22         37.6177
296.68        38.89635
297.13        40.25502
297.58        41.72688
298.04        43.29184
298.49        44.95567
298.95        46.74755
299.40        48.63403
299.85        50.59467
300.31        52.55994
300.76         54.3987
301.21        56.09756
301.67         57.7177
302.12        59.28203
302.58        60.92114
303.03        62.62409
303.48        64.38482
303.94        66.22514
304.39        68.10639
304.84        70.03931
305.30        72.03864
305.75        74.01599
306.20         75.9255
306.66         77.7643
307.11        79.50008
307.57        81.17084
308.02        82.73246
308.47        84.20782
308.93        85.59966
309.38        86.92624
309.83        88.33442
310.29        89.84969
310.74        91.44003
311.19        92.95055
311.65        94.09677
312.10        94.80872
312.55        95.16824
313.00        95.44498
313.46        96.06145
313.91        97.07825
314.36         98.3978
314.82        99.73243
315.27        100.6273
315.72        100.9492
316.18        100.8678
316.63        100.6288
317.08        100.6629
317.53        101.0853
317.99        101.7604
318.44        102.5083
318.89        103.0053
319.35        103.1629
319.80        103.0986
320.25        102.9806
320.70         103.069
321.16        103.4297
321.61        104.0135
322.06        104.6611
322.51        105.1291
322.97        105.3338
323.42        105.3461
323.87        105.3475
324.32        105.6544
324.78        106.2944
325.23        107.2454
325.68        108.1629
326.13        108.4886
326.59        108.1035
327.04        107.2196
327.49        106.2714
327.94        105.9707
328.39        106.4869
328.85        107.5752
329.30        108.9608
329.75        109.8831
330.20        110.0894
330.66        109.7736
331.11        109.2694
331.56         109.039
332.01        109.2401
332.46        109.6957
332.92        110.2276
333.37        110.7114
333.82         111.018
334.27          111.27
334.72        111.4736
335.17        111.6035
335.63        111.6796
336.08        111.7521
336.53        111.9573
336.98        112.5803
337.43        113.6534
337.88        115.0513
338.34        116.5116
338.79        117.7087
339.24        118.4472
339.69        118.8148
340.14        118.8376
340.59        118.5935
341.05        118.2011
341.50        117.6636
341.95        117.1922
342.40        117.1006
342.85        117.4567
343.30        118.1943
343.75        119.1239
344.20         119.903
344.66        120.4144
345.11        120.7213
345.56        120.8977
346.01        121.0823
346.46        121.3299
346.91        121.6026
347.36        121.8532
347.81        122.0315
348.26         122.121
348.72        122.1242
349.17        122.1369
349.62        122.3408
350.07         122.746
350.52        123.3127
350.97        123.7494
351.42        123.5936
351.87        122.7941
352.32        121.5241
352.77        120.2459
353.22        119.6328
353.67        119.8103
354.13        120.5718
354.58        121.4958
355.03        121.8314
355.48        121.3782
355.93        120.3643
356.38        119.2058
356.83        118.5284
357.28        118.4574
357.73         118.758
358.18        119.0782
358.63        118.8697
359.08        117.9965
359.53        116.6701
359.98        115.1687
360.43        113.8787
360.88        112.9035
361.33        112.1229
361.78         111.403
362.23        110.5439
362.68        109.5088
363.13        108.4016
363.58        107.3227
364.03        106.3992
364.48        105.6536
364.93        105.0162
365.38        104.4346
365.83        103.8426
366.28        103.2112
366.73        102.5632
367.18        101.8742
367.63        101.1026
368.08        100.2489
368.53        99.32409
368.98        98.39423
369.43        97.56536
369.88        96.86338
370.33        96.26796
370.78        95.71552
371.23        95.10003
371.68        94.39668
372.13        93.63401
372.58        92.88374
373.03        92.25693
373.48        91.76481
373.93        91.35468
374.38        90.92989
374.83        90.34804
375.28        89.58022
375.72        88.66362
376.17        87.73205
376.62        86.87537
377.07        86.14122
377.52        85.52747
377.97        85.00625
378.42        84.54449
378.87        84.12831
379.32        83.73253
379.77        83.42924
380.22        83.32125
380.67        83.38419
381.11        83.59765
381.56         83.6626
382.01        83.18479
382.46        82.14459
382.91        80.75351
383.36        79.39853
383.81        78.60283
384.26        78.44687
384.71        78.74167
385.15         79.2705
385.60        79.64377
386.05        79.71166
386.50         79.5757
386.95        79.22818
387.40        78.67034
387.85        77.96313
388.29        77.07926
388.74         76.2633
389.19        75.66124
389.64        75.29702
390.09        75.12154
390.54        75.04247
390.98        74.87902
391.43        74.62155
391.88        74.31121
392.33        73.99355
392.78        73.71687
393.23        73.49103
393.67        73.29742
394.12        73.17471
394.57         72.9458
395.02        72.64294
395.47        72.48463
395.91        72.45797
396.36        72.30972
396.81         72.0564
397.26          71.847
397.71        71.66042
398.15        71.42298
398.60        71.22386
399.05        70.88139
399.50        70.49598
399.95        70.56537
400.39        70.96091
400.84        70.75675
401.29        70.00497
401.74        69.67335
402.18        69.74238
402.63        69.34396
403.08        68.61793
403.53        68.32126
403.97        68.48533
404.42         68.7739
404.87        69.02121
405.32        69.02853
405.76        68.72421
406.21        68.31759
406.66        67.90437
407.11        67.41364
407.55        67.04053
408.00        67.19905
408.45        67.76738
408.90        68.14429
409.34        68.11386
409.79         67.6543
410.24         66.9772
410.68         66.5932
411.13        66.58064
411.58        66.65011
412.03        66.69138
412.47        66.65871
412.92        66.49564
413.37        66.25221
413.81         66.0158
414.26        65.97589
414.71        66.13538
415.15        66.45766
415.60        66.81432
416.05        67.05754
416.49        67.13559
416.94        67.08274
417.39        66.96631
417.83         66.8777
418.28        66.85507
418.73        66.87129
419.17        66.91401
419.62        66.96749
420.07        67.01083
420.51        67.02698
420.96        67.04473
421.41        67.02184
421.85        66.92458
422.30         66.9132
422.74        66.88586
423.19        66.58897
423.64        66.10212
424.08        65.94599
424.53        66.11042
424.98        66.20899
425.42        66.23717
425.87         66.3833
426.31        66.61308
426.76        66.78734
427.21        66.85924
427.65         66.7003
428.10        66.38486
428.54        66.28662
428.99        66.46989
429.44         66.5083
429.88        66.47425
430.33        66.95736
430.77        67.68828
431.22        67.96397
431.66        67.86606
432.11        67.32613
432.56        66.67406
433.00        66.49253
433.45        66.90405
433.89         67.6337
434.34        68.08759
434.78        68.56541
435.23        67.61469
435.67        66.24165
436.12        66.68815
436.57        66.89191
437.01        67.37138
437.46         67.7194
437.90        67.37933
438.35        67.22498
438.79        67.15704
439.24        67.14435
439.68        67.16972
440.13        67.28036
440.57         67.5294
441.02        67.71358
441.46         67.8048
441.91        68.44872
442.35        69.26469
442.80        68.84912
443.24        67.84167
443.69        67.78821
444.13        68.68701
444.58        69.21845
445.02        68.84845
445.47         68.8942
445.91        69.22602
446.36        69.47504
446.80        69.61111
447.24        69.74292
447.69        69.86098
448.13         69.9152
448.58         69.9212
449.02        69.86141
449.47        69.78075
449.91        69.72458
450.36        69.72835
450.80        69.75957
451.25        69.82229
451.69        69.86307
452.13         69.8828
452.58        69.89125
453.02        69.91457
453.47        69.92302
453.91        69.89555
454.36        69.98241
454.80        70.17601
455.24         69.6582
455.69        69.66769
456.13        69.30771
456.58        69.04923
457.02        68.66738
457.46        68.33723
457.91         68.5789
458.35        69.10882
458.79        69.07415
459.24        68.46657
459.68        67.67487
460.13        67.00921
460.57         66.7129
461.01        66.90394
461.46        67.32907
461.90        67.76895
462.34        68.59223
462.79        68.26355
463.23        68.42905
463.68        68.57325
464.12        68.35746
464.56        67.78561
465.01        67.14228
465.45        66.54024
465.89        66.22569
466.34         66.1843
466.78         66.3078
467.22        66.51068
467.67        66.31637
468.11        66.11384
468.55        66.07072
468.99        66.26043
469.44        66.24755
469.88        66.03726
470.32        65.89243
470.77        65.83447
471.21        65.78487
471.65        65.73194
472.10        65.69069
472.54        65.67809
472.98        65.67461
473.42        65.66814
473.87        65.83347
474.31        65.99206
474.75        65.58654
475.20         64.8977
475.64        64.49654
476.08        65.32993
476.52         65.3829
476.97        64.86835
477.41        64.68642
477.85         65.0616
478.29        64.33455
478.74        65.05608
479.18         65.4689
479.62        64.96342
480.06        64.86678
480.50        64.73712
480.95        64.71683
481.39        64.87344
481.83        64.07887
482.27        64.29194
482.72        64.93812
483.16        64.70836
483.60        64.83487
484.04        64.80982
484.48        65.02301
484.93        65.45657
485.37        64.39165
485.81        64.24662
486.25        64.02447
486.69        64.60621
487.14        65.09035
487.58        64.18569
488.02         64.8696
488.46        63.67109
488.90        63.93002
489.34        65.16096
489.79        65.58769
490.23        64.79164
490.67        64.34544
491.11        64.27122
491.55         64.2138
491.99        64.13995
492.43        64.00482
492.88        63.82195
493.32        63.75417
493.76        63.81515
494.20        63.88953
494.64        63.96106
495.08        64.07865
495.52        64.17867
495.96        64.16325
496.41        64.02774
496.85        63.79435
497.29        63.48238
497.73        63.57427
498.17        63.28055
498.61        63.43559
499.05        63.70374
499.49        63.91832
499.93        63.82079
500.37        63.81318
500.82        63.84904
501.26        63.84946
501.70        63.80615
502.14        63.76199
502.58        63.76208
503.02        63.69725
503.46        63.86712
503.90        64.01032
504.34         64.1481
504.78         64.1648
505.22        64.03339
505.66        63.81027
506.10        63.58789
506.54        63.42588
506.98        63.33672
507.42        63.63828
507.86        63.69916
508.30        63.73729
508.74         63.7688
509.18        63.66698
509.62        63.54131
510.06        63.46804
510.50         63.4754
510.94        63.52839
511.38         63.5909
511.82        63.61267
512.26        63.58158
512.70        63.52121
513.14        63.46284
513.58        63.45302
514.02        63.50388
514.46        63.59523
514.90         63.7055
515.34        63.80379
515.78        63.87289
516.22        63.91372
516.66        63.92586
517.10        63.90862
517.54        63.86696
517.98        63.81017
518.42        63.73264
518.86        63.62745
519.30        63.50208
519.74         63.3603
520.18        63.25274
520.62        63.25369
521.06        63.37205
521.50        63.58976
521.93        63.82149
522.37        63.90559
522.81        63.81788
523.25         63.6009
523.69        63.36571
524.13        63.28926
524.57        63.40255
525.01        63.63826
525.45        63.89035
525.89        63.98734
526.32        63.88015
526.76        63.65321
527.20        63.36696
527.64        63.11908
528.08         62.9494
528.52        62.82505
528.96        62.76607
529.40        62.80538
529.83         62.9313
530.27        63.14146
530.71        63.35376
531.15        63.43854
531.59        63.37037
532.03        63.18268
532.46        62.94857
532.90        62.83347
533.34        62.86261
533.78        62.95033
534.22         63.0403
534.66        63.12408
535.09        63.13184
535.53        62.94869
535.97        62.63234
536.41         62.4336
536.85        62.38721
537.28        62.37003
537.72        62.38065
538.16        62.46613
538.60        62.61293
539.04         62.8021
539.47        62.98145
539.91        63.11067
540.35         63.1618
540.79        63.14791
541.22        63.08565
541.66        63.02736
542.10        62.98245
542.54        62.93975
542.97        62.89008
543.41        62.84944
543.85        62.80949
544.29         62.7787
544.72        62.74087
545.16        62.70555
545.60        62.66486
546.04        62.62816
546.47        62.60978
546.91        62.64494
547.35        62.73547
547.79        62.81542
548.22        62.87209
548.66        62.99958
549.10          63.194
549.53         63.1421
549.97        62.90113
550.41        62.68589
550.84        62.59523
551.28        62.61893
551.72          62.678
552.15        62.77365
552.59        62.96869
553.03        62.35452
553.46        62.82387
553.90        62.76697
554.34        62.73529
554.77        62.70018
555.21         62.7107
555.65        62.82413
556.08        62.98628
556.52        63.09842
556.96        63.11439
557.39        63.10509
557.83        63.06724
558.27        62.86422
558.70        62.54518
559.14        62.36128
559.57        62.31978
560.01        62.27603
560.45        62.23759
560.88        62.37463
561.32        62.64151
561.75        62.73526
562.19         62.6699
562.63         62.6075
563.06        62.59034
563.50        62.61724
563.93        62.62999
564.37        62.72628
564.80        62.87039
565.24        62.71705
565.68        62.19599
566.11        62.75591
566.55        62.16425
566.98        62.05693
567.42        61.90147
567.85        62.08484
568.29        62.53686
568.72        62.84959
569.16        63.05214
569.60        63.06736
570.03        63.10031
570.47        63.11992
570.90        63.28644
571.34        62.47735
571.77        63.00309
572.21        63.14757
572.64        63.09486
573.08        63.28804
573.51        63.02057
573.95        62.88437
574.38        62.93496
574.82        62.87339
575.25         62.9114
575.69        62.87757
576.12        62.83561
576.56        62.69668
576.99        62.63689
577.42        62.79164
577.86        62.91763
578.29        63.68986
578.73        63.28884
579.16        63.13739
579.60         62.7394
580.03        62.87989
580.47        62.69704
580.90        63.36551
581.33        63.60757
581.77        63.50211
582.20        63.25427
582.64        63.17093
583.07        62.95557
583.51        62.75433
583.94        62.66954
584.37        62.86282
584.81        63.25665
585.24        63.29065
585.68        63.00231
586.11        62.77256
586.54        62.81795
586.98        62.37627
587.41        62.15933
587.85        62.79488
588.28        62.47507
588.71        62.41936
589.15        62.15838
589.58        62.59961
590.01         62.1512
590.45        62.06359
590.88        63.15661
591.31        63.07976
591.75        62.42891
592.18        62.04277
592.61        62.04241
593.05        63.00862
593.48        63.51564
593.91        63.05949
594.35        62.92733
594.78        62.37999
595.21        62.01982
595.65        62.43673
596.08        63.65577
596.51        63.14511
596.94        62.84184
597.38        62.45107
597.81        62.58144
598.24        63.21297
598.68        62.59938
599.11        62.63015
599.54        63.56666
599.97         62.6799
600.41        62.65978
600.84        62.06533
601.27        62.55304
601.70        62.50186
602.14        62.85846
602.57        62.65619
603.00        62.49976
603.43        61.76801
603.87        62.86246
604.30        62.94606
604.73        62.63699
605.16        62.05206
605.60        62.45599
606.03        62.24072
606.46           61.84
606.89        61.86127
607.32        62.27774
607.76        62.43873
608.19        62.37555
608.62        62.26774
609.05        62.24345
609.48        62.22451
609.92        63.00778
610.35        62.60767
610.78        62.15424
611.21        61.93158
611.64         62.2086
612.07        62.50045
612.50        62.42284
612.94        62.47232
613.37        62.50859
613.80        62.39418
614.23        61.83379
614.66        61.84011
615.09        62.25289
615.52        62.37278
615.96        62.14059
616.39        62.14407
616.82        62.43237
617.25        61.95802
617.68        62.03291
618.11        62.06462
618.54         62.3633
618.97         62.5149
619.40        62.48583
619.84        62.31672
620.27        62.07955
620.70        62.07541
621.13        62.22419
621.56        61.85506
621.99        61.08849
622.42         60.8759
622.85        61.24722
623.28        61.18538
623.71        61.29758
624.14        61.28844
624.57        61.85273
625.00        61.83092
625.43        61.79794
625.86        61.67229
626.29        61.73192
626.72        61.09445
627.15        61.58786
627.58        61.70094
628.01        61.83604
628.44        61.90564
628.87        61.95737
629.30        61.33381
629.73        61.51708
630.16        61.42279
630.59        61.44227
631.02         61.6246
631.45        61.90891
631.88        62.05301
632.31         61.9789
632.74        62.15752
633.17        61.89635
633.60        61.80539
634.03        61.69626
634.46        61.57202
634.89        61.44273
635.32        61.35749
635.75        61.33495
636.18        61.29475
636.61        61.25735
637.04        61.28884
637.47        61.38556
637.89        61.51651
638.32        61.61626
638.75        61.63991
639.18        61.57444
639.61        61.43721
640.04        61.27857
640.47        61.18007
640.90        61.16449
641.33        61.21253
641.76        61.29295
642.18        61.35897
642.61        61.37337
643.04         61.3572
643.47        61.32941
643.90         61.3194
644.33        61.33314
644.76        61.36084
645.18        61.37804
645.61        61.33113
646.04        61.22215
646.47          61.075
646.90        60.94045
647.33        60.88569
647.75        60.90052
648.18        61.02402
648.61         61.2394
649.04        61.27423
649.47        61.05948
649.89        61.60825
650.32        61.27766
650.75        61.25583
651.18          61.125
651.61        61.12586
652.03         61.2924
652.46        61.48419
652.89        61.63717
653.32        61.68085
653.74        61.74734
654.17        61.10799
654.60        62.10727
655.03        61.48315
655.46        60.70822
655.88        60.49988
656.31        63.20036
656.74         63.7433
657.16        62.94626
657.59        62.64485
658.02         62.1022
658.45         61.9933
658.87        61.60154
659.30        61.34077
659.73        61.87506
660.15        62.53638
660.58        61.50496
661.01        61.19737
661.44         61.1356
661.86        60.97902
662.29        60.67927
662.72        61.09515
663.14        60.99686
663.57         60.9392
664.00         60.6916
664.42        60.73738
664.85        61.09338
665.27        61.53915
665.70        61.83617
666.13        61.95212
666.55        61.83202
666.98        61.44166
667.41        60.91003
667.83        60.84822
668.26        60.68144
668.69         60.8533
669.11        61.10044
669.54        61.29134
669.96        61.38235
670.39        61.43208
670.82        61.45613
671.24        61.41434
671.67         61.3425
672.09        61.26921
672.52        61.31985
672.94        61.31918
673.37        61.30235
673.80        61.32339
674.22        61.37015
674.65        61.35181
675.07        61.27377
675.50        61.15147
675.92        61.02132
676.35        60.92981
676.77        60.89325
677.20        60.89486
677.62         60.9209
678.05        60.94823
678.47        60.96501
678.90        60.98313
679.32        60.99598
679.75        61.00472
680.17        61.00477
680.60        60.99508
681.02        60.98694
681.45        60.99126
681.87        61.02219
682.30        61.07953
682.72        61.15584
683.15          61.177
683.57        61.15573
684.00        61.13605
684.42        61.15114
684.85        61.20633
685.27        61.29132
685.70        61.45581
686.12        61.61911
686.54         61.5708
686.97        61.33326
687.39        61.15751
687.82        61.06983
688.24        60.95152
688.66         60.8191
689.09        60.76829
689.51        60.81409
689.94          60.893
690.36        60.99788
690.78        61.12565
691.21        61.25939
691.63        61.36472
692.06        61.43285
692.48        61.47562
692.90        61.47162
693.33        61.39901
693.75        61.26468
694.17        61.05282
694.60        60.85375
695.02        60.83593
695.44        60.99941
695.87        61.26153
696.29        61.51667
696.71        61.49806
697.14         61.2363
697.56        61.03248
697.98        60.96769
698.41        60.93169
698.83        60.93263
699.25        61.10728
699.68        61.34928
700.10        61.46258
700.52        61.38949
700.94        61.20225
701.37        61.00205
701.79        60.95699
702.21        61.09842
702.64        61.35559
703.06        61.64419
703.48        61.81297
703.90        61.81771
704.33        61.70778
704.75        61.53835
705.17        61.38866
705.59        61.29712
706.01        61.24288
706.44        61.22947
706.86        61.28122
707.28        61.38331
707.70        61.51485
708.12        61.67199
708.55        61.79721
708.97        62.03977
709.39        62.00975
709.81        61.80271
710.23        61.70192
710.66        61.73616
711.08        61.75838
711.50        61.73066
711.92        61.68364
712.34        61.61399
712.76        61.53126
713.19        61.43406
713.61        61.35217
714.03        61.28778
714.45        61.24755
714.87        61.26424
715.29        61.38794
715.71        61.61506
716.13         61.9107
716.56        62.20477
716.98        62.46144
717.40        62.61468
717.82        62.67746
718.24         62.6311
718.66        62.45274
719.08        62.17018
719.50        61.81909
719.92        61.48873
720.34        61.31144
720.76         61.3161
721.19        61.44754
721.61        61.68499
722.03        61.93783
722.45        62.15673
722.87        62.35287
723.29        62.47019
723.71        62.42429
724.13        62.21381
724.55         61.8688
724.97        61.49951
725.39        61.28033
725.81         61.2571
726.23        61.39639
726.65        61.62715
727.07        61.78912
727.49        61.89668
727.91        61.93873
728.33        61.96095
728.75        62.01073
729.17        62.09937
729.59         62.1933
730.01        62.27039
730.43        62.30856
730.85        62.29962
731.27        62.25385
731.69        62.17475
732.10        62.08608
732.52        61.99995
732.94        61.88679
733.36        61.77017
733.78        61.79256
734.20        61.59813
734.62        61.70597
735.04        62.06765
735.46        61.64404
735.88        62.26013
736.30        62.36781
736.72        62.51215
737.13         62.8021
737.55        63.11811
737.97        63.17994
738.39        62.97077
738.81        62.67837
739.23        62.40685
739.65        62.35125
740.06         62.4776
740.48        62.55407
740.90        62.54416
741.32        62.63903
741.74        62.81914
742.16        62.93021
742.57        62.95498
742.99        62.92529
743.41        62.86282
743.83        62.78455
744.25        62.70358
744.67        62.60389
745.08        62.53897
745.50        62.56948
745.92        62.70986
746.34        62.94299
746.75        63.17286
747.17        63.22988
747.59        63.08731
748.01        62.79172
748.42        62.47205
748.84        62.33601
749.26           62.43
749.68        62.69188
750.09        62.99377
750.51        63.12214
750.93        63.02277
751.35        62.80867
751.76        62.57022
752.18        62.37402
752.60        62.24084
753.01        62.42251
753.43        62.38629
753.85         62.4207
754.27          62.369
754.68        62.28376
755.10        62.21087
755.52        62.22118
755.93        62.31816
756.35         62.4611
756.77        62.65223
757.18        62.72937
757.60        62.64999
758.02        62.79564
758.43        63.16999
758.85        62.30075
759.26        62.40931
759.68        62.23804
760.10        62.41541
760.51        62.72345
760.93        63.03349
761.34        62.96971
761.76        62.64263
762.18        62.77366
762.59        63.35069
763.01        63.59456
763.42        63.48925
763.84        63.44249
764.26        63.47744
764.67        63.32246
765.09        63.06117
765.50        62.82271
765.92        62.67862
766.33        62.60267
766.75        62.53238
767.16        62.54364
767.58        62.57969
768.00         62.5215
768.41        62.44233
768.83        62.78474
769.24         63.3704
769.66        63.36536
770.07        62.85084
770.49        62.59466
770.90        62.70279
771.32        62.99202
771.73         63.3588
772.15        63.52552
772.56        63.46777
772.97        63.34114
773.39        63.22644
773.80        63.19375
774.22        63.24973
774.63        63.41794
775.05        63.59263
775.46        63.67284
775.88        63.60214
776.29        63.44184
776.70        63.26423
777.12        63.20032
777.53        63.29287
777.95        63.47139
778.36        63.67551
778.77         63.7676
779.19        63.72591
779.60        63.60607
780.02        63.44961
780.43        63.37201
780.84        63.41725
781.26        63.36333
781.67        63.27081
782.09        63.62957
782.50        64.24228
782.91        64.14882
783.33        63.45382
783.74        63.21346
784.15        63.48799
784.57        63.68803
784.98        63.76652
785.39        63.88848
785.81         64.0414
786.22        64.18255
786.63        64.29942
787.04        64.36828
787.46         64.3959
787.87        64.36311
788.28        64.32009
788.70        64.29736
789.11         64.2776
789.52        64.37658
789.93        64.52776
790.35        64.36898
790.76        64.00556
791.17        64.00974
791.58        64.34382
792.00        64.41225
792.41        64.19549
792.82        64.10619
793.23        64.14623
793.65        63.95289
794.06        63.64538
794.47        63.75708
794.88         64.1832
795.29        64.35698
795.71        64.21667
796.12        64.08982
796.53        64.05616
796.94        64.12443
797.35        64.31815
797.76        64.62805
798.18        64.94537
798.59         65.1451
799.00        65.16905
799.41        65.05022
799.82        64.87629
800.23        64.79974
800.64        64.85622
801.06        64.97173
801.47        65.11126
801.88        65.12611
802.29        64.98135
802.70        64.73317
803.11        64.44691
803.52        64.22168
803.93        64.10438
804.34        64.07193
804.75        64.11841
805.17        64.25034
805.58        64.48276
805.99        64.68766
806.40        64.84212
806.81        65.13819
807.22        65.44263
807.63        65.23963
808.04        64.62595
808.45        64.22668
808.86        64.12128
809.27          64.007
809.68        63.87133
810.09        63.83996
810.50        63.91467
810.91        64.05553
811.32        64.28391
811.73         64.6342
812.14        65.08424
812.55        65.60049
812.96        66.04196
813.37         66.1568
813.78        65.89182
814.19        65.35428
814.60        64.71436
815.01        64.19823
815.42        63.86765
815.83        63.66661
816.24        63.60128
816.65         63.6712
817.05        63.86106
817.46        64.15034
817.87        64.45914
818.28        64.61554
818.69        64.58251
819.10        64.37376
819.51        64.11685
819.92        64.05927
820.33         64.2626
820.74        64.65471
821.14         65.0703
821.55        65.23689
821.96         65.0961
822.37         64.7378
822.78        64.32395
823.19        64.12605
823.60         64.2243
824.00        64.55456
824.41        64.94848
824.82        65.21719
825.23        65.28118
825.64         65.2036
826.04        65.05202
826.45         64.8973
826.86        64.78971
827.27         64.7094
827.68        64.64748
828.08         64.6209
828.49        64.58067
828.90        64.54564
829.31        64.55224
829.72        64.65037
830.12        64.86384
830.53        65.12634
830.94        65.33328
831.35        65.27088
831.75         64.9167
832.16         64.3155
832.57        63.69354
832.97        63.38636
833.38        63.47226
833.79        63.84281
834.20        64.31843
834.60        64.60762
835.01        64.63583
835.42        64.52592
835.82        64.38383
836.23        64.31972
836.64        64.40977
837.04        64.57462
837.45        64.84877
837.86        65.35902
838.26        66.11209
838.67        67.02419
839.08        67.83183
839.48        68.02692
839.89        67.49391
840.29        66.41479
840.70        65.26912
841.11        64.58385
841.51        64.50103
841.92        64.86281
842.33        65.47325
842.73        65.97421
843.14        66.13721
843.54        66.11629
843.95        66.02606
844.35        66.10152
844.76        66.37389
845.17        66.74208
845.57         67.0727
845.98        67.13696
846.38         66.9063
846.79        66.46158
847.19        65.94859
847.60        65.57397
848.00        65.41299
848.41        65.38146
848.81        65.44498
849.22        65.46271
849.62        65.43115
850.03        65.39459
850.43        65.36086
850.84        65.27032
851.24        65.16419
851.65        64.97781
852.05        64.88889
852.46         65.1096
852.86        65.64693
853.27        66.39368
853.67         67.0295
854.07        67.22304
854.48        66.90109
854.88        66.20039
855.29         65.2884
855.69        64.60779
856.10        64.26166
856.50        64.21532
856.90        64.34796
857.31        64.46081
857.71        64.52547
858.12        64.54403
858.52        64.56824
858.92        64.56747
859.33        64.52035
859.73        64.44913
860.13        64.30502
860.54        64.05048
860.94        63.73773
861.34        63.38835
861.75        63.08852
862.15        63.00924
862.55         63.1651
862.96        63.47025
863.36        63.88202
863.76        64.24123
864.17        64.46679
864.57        64.62098
864.97        64.62803
865.38        64.38921
865.78        63.94404
866.18        63.31913
866.58        62.71608
866.99        62.49555
867.39        62.76426
867.79        63.40348
868.19        64.19104
868.60        64.75851
869.00        65.02803
869.40        65.06907
869.80        64.95921
870.21         64.8569
870.61        64.88447
871.01        64.93988
871.41        64.95134
871.81        64.82795
872.22        64.54873
872.62        64.14731
873.02        63.74895
873.42        63.54501
873.82        63.58173
874.22        63.80946
874.63        64.04326
875.03        64.00635
875.43        63.64006
875.83        63.04929
876.23        62.46228
876.63         62.2312
877.03        62.43589
877.44         62.9316
877.84        63.54466
878.24        63.99705
878.64        64.13171
879.04        63.88039
879.44        63.44041
879.84         63.2263
880.24        63.29911
880.64         63.5081
881.04        63.63254
881.44        63.35359
881.84        62.63321
882.24        61.62052
882.65        60.66232
883.05        60.27448
883.45        60.57126
883.85        61.39285
884.25        62.42412
884.65        63.12259
885.05        63.31199
885.45        63.14149
885.85        62.81241
886.25        62.64233
886.65        62.72604
887.05        62.95532
887.45        63.23117
887.85        63.40447
888.25        63.42448
888.65        63.35092
889.04        63.24818
889.44        63.23138
889.84        63.30604
890.24        63.41982
890.64        63.49598
891.04           63.42
891.44        63.17958
891.84        62.84878
892.24        62.49278
892.64        62.19498
893.04        61.99684
893.44         61.8843
893.83        61.91712
894.23        62.13524
894.63        62.54518
895.03        63.10891
895.43        63.70907
895.83        64.16033
896.23        64.38624
896.63        64.38921
897.02        64.22618
897.42        64.03445
897.82         63.8601
898.22        63.71097
898.62        63.51048
899.01        63.12686
899.41        62.58223
899.81        61.92434
900.21        61.37676
900.61        61.28987
901.00        61.71239
901.40        62.51553
901.80        63.37311
902.20        63.75713
902.59        63.55543
902.99        62.92794
903.39        62.15509
903.79        61.70575
904.18        61.70344
904.58        61.98121
904.98        62.42569
905.38        62.87484
905.77        63.26216
906.17        63.68794
906.57        64.01603
906.96        64.01026
907.36        63.63981
907.76        62.95781
908.15        62.33579
908.55        62.36242
908.95        63.14096
909.34        64.49603
909.74        65.88842
910.14        66.49558
910.53        66.08221
910.93        64.94054
911.33        63.48433
911.72        62.34987
912.12        61.79983
912.52        61.65013
912.91        61.74853
913.31        61.87896
913.70        61.96153
914.10          62.051
914.49        62.24107
914.89        62.58133
915.29        63.08326
915.68        63.69323
916.08        64.18895
916.47        64.29952
916.87        63.99372
917.26        63.34456
917.66        62.68962
918.05        62.40503
918.45        62.57921
918.84        63.15456
919.24        63.83477
919.64        64.21794
920.03        64.19601
920.42        63.85435
920.82        63.49031
921.21        63.51744
921.61         64.0004
922.00        64.82135
922.40        65.64672
922.79        66.03373
923.19         65.8251
923.58        65.22148
923.98        64.47237
924.37         63.8708
924.77        63.53189
925.16         63.3279
925.55        63.27268
925.95        63.37262
926.34         63.6063
926.74        63.96033
927.13        64.25943
927.52        64.14693
927.92        63.62451
928.31        62.79779
928.70        61.95689
929.10        61.52886
929.49        61.59827
929.89        61.98278
930.28        62.61476
930.67        63.25593
931.07         63.7623
931.46        64.27615
931.85        64.58045
932.24         64.3748
932.64        63.69535
933.03        62.60025
933.42        61.59127
933.82        61.40831
934.21        62.17809
934.60        63.73856
934.99        65.51883
935.39        66.46742
935.78        66.31399
936.17        65.26287
936.56        63.89196
936.96        63.12539
937.35        63.19855
937.74        63.83049
938.13        64.53822
938.53         64.5793
938.92        63.80981
939.31        62.56277
939.70        61.27587
940.09         60.5416
940.49        60.47771
940.88        60.90282
941.27        61.62628
941.66         62.2996
942.05        62.76587
942.44        63.14195
942.84        63.41316
943.23        63.54257
943.62        63.55078
944.01        63.37669
944.40        63.17358
944.79        63.23957
945.18        63.60281
945.57        64.16886
945.97        64.61375
946.36        64.47544
946.75        63.63944
947.14        62.36743
947.53        60.98766
947.92        59.94095
948.31        59.36771
948.70         59.1492
949.09        59.28853
949.48        59.78089
949.87        60.55595
950.26         61.5888
950.65        62.66207
951.04        63.41034
951.43        63.71815
951.82        63.63501
952.21        63.30114
952.60        62.99369
952.99        62.82655
953.38        62.75418
953.77        62.76138
954.16        62.81861
954.55        62.89694
954.94        62.99187
955.33        63.11964
955.72        63.28122
956.11        63.45659
956.50        63.65589
956.89        63.69792
957.28        63.30239
957.66        62.45546
958.05        61.30877
958.44        60.25437
958.83        59.85261
959.22        60.18245
959.61        61.07992
960.00        62.14348
960.39        62.61678
960.78        62.27217
961.16        61.35344
961.55        60.26711
961.94        59.52785
962.33        59.28922
962.72        59.41882
963.11        59.79176
963.49        60.20192
963.88        60.46645
964.27        60.63362
964.66        60.81941
965.04        61.22403
965.43        61.82608
965.82        62.60352
966.21        63.19485
966.60        62.96472
966.98        61.80285
967.37        60.03489
967.76        58.35193
968.15        57.60831
968.53        57.95074
968.92        59.19724
969.31        60.79302
969.69        61.60662
970.08        61.20322
970.47        59.94456
970.86        58.62267
971.24        58.36916
971.63        59.41472
972.02        61.45124
972.40        63.77561
972.79        64.74064
973.17        63.91422
973.56        61.88822
973.95        59.63408
974.33        58.39593
974.72        58.44149
975.11        59.38078
975.49        60.76344
975.88        61.66428
976.26        61.77435
976.65        61.35035
977.04        60.69516
977.42        60.22749
977.81        60.05026
978.19        59.97763
978.58         60.0337
978.96        60.24978
979.35        60.56969
979.74        61.03456
980.12        61.53872
980.51         61.6413
980.89        61.38787
981.28        60.88983
981.66        60.40137
982.05        60.26965
982.43         60.5815
982.82        61.17797
983.20        62.10758
983.59        63.33033
983.97        64.80447
984.35        66.50287
984.74        67.86454
985.12        68.20944
985.51        67.36999
985.89        65.59512
986.28        63.71413
986.66        62.91566
987.04        63.51856
987.43        65.16776
987.81        67.22225
988.20        68.28864
988.58        67.89606
988.96        66.39566
989.35        64.38117
989.73        62.66418
990.12        61.49202
990.50        60.73785
990.88        60.12818
991.27        59.26516
991.65        58.13177
992.03        56.91897
992.42         56.2253
992.80        56.83244
993.18        58.84286
993.56        62.04972
993.95        65.42277
994.33        67.13801
994.71        66.48964
995.10        64.08501
995.48        61.19199
995.86        59.78775
996.24        60.33567
996.63        62.20504
997.01        64.73223
997.39         66.1649
997.77        65.81702
998.15        64.42649
998.54        62.50121
998.92        60.60494
999.30        59.10624
999.68          57.795
1000.06        57.11652
1000.45         57.7385
1000.83        59.79496
1001.21        63.23592
1001.59        67.27312
1001.97        69.83005
1002.35        70.07076
1002.73        68.57546
1003.12        66.46014
1003.50        65.14613
1003.88        65.10188
1004.26        65.76267
1004.64        67.07132
1005.02        68.81393
1005.40        70.63976
1005.78        72.73239
1006.16        74.10022
1006.54        73.16216
1006.92        69.92647
1007.30        65.01996
1007.69        60.22916
1008.07        57.94299
1008.45        58.82653
1008.83        62.37216
1009.21        67.34354
1009.59        70.58141
1009.97        70.52853
1010.35        68.06965
1010.73        64.43603
1011.11        61.42151
1011.49        59.63597
1011.86        58.56409
1012.24        58.02168
1012.62        57.79565
1013.00        57.75657
1013.38        58.00575
1013.76         58.6312
1014.14        59.59547
1014.52        60.73362
1014.90        61.90562
1015.28        62.62953
1015.66        62.35708
1016.04        61.10511
1016.41        59.06588
1016.79        56.93983
1017.17        56.10456
1017.55        56.88204
1017.93         58.7272
1018.31        60.91655
1018.69         62.4507
1019.06           63.06
1019.44        63.04852
1019.82        62.28982
1020.20        60.68637
1020.58        58.54944
1020.95        56.05774
1021.33         54.0738
1021.71        53.40371
1022.09        54.12756
1022.46        56.30997
1022.84        59.36692
1023.22        61.52062
1023.60        61.90757
1023.97        60.74361
1024.35        59.55989
1024.73        60.24634
