SpectraSmart Spectrum 2.9.0.0
--------- Device Information -----------
Spectrum Name :  反射率_0
Saving Time :  2024/04/26 23:59:28
Spectro-Module Model Name : SE2030-DUVN
Spectro-Module Serial Number : OS361AC55029948
Wavelength Start : 200
Wavelength End : 1025
Wavelength Unit : Wavelength(nm)
Spectrum Unit : Reflectance(%)
-----------Spectrum Setting ------------
Integration Time : 20ms
Average : 10
Boxcar : 0
Background removal :  enabled
linearity correction :  enabled
SC :  disabled
Intensity correction :  disabled
DWT denoise :  enabled
savitzky-golay :  disabled
FFT :  disabled
Running average :  disabled
Kalman :  disabled
High pass :  disabled
---------------BEGIN--------------------
Wavelength(nm)             Reflectance(%)
200.29               0
200.75        50.17611
201.21        52.68847
201.67        54.82504
202.13        55.31012
202.58        54.02671
203.04         51.4594
203.50         48.4256
203.96        47.49458
204.42        50.32127
204.88        56.31733
205.34        63.12814
205.80        66.41335
206.26        64.99641
206.72        60.62759
207.18        55.55108
207.64         51.2051
208.10        47.45066
208.55        43.61457
209.01        39.28934
209.47        37.12803
209.93        38.72617
210.39        42.30661
210.85        46.32914
211.31        51.17064
211.77        58.79267
212.23        74.31283
212.69        111.6768
213.14         174.717
213.60        172.7144
214.06        128.4146
214.52        98.56927
214.98        85.95723
215.44        81.50728
215.90        79.59151
216.36        79.17161
216.81        79.34007
217.27        79.85596
217.73        82.41348
218.19        84.86744
218.65         79.8522
219.11        68.87632
219.57        58.20679
220.02        52.52488
220.48        53.91753
220.94        61.67782
221.40        77.03638
221.86        99.47409
222.32         114.163
222.77        108.2628
223.23        91.60331
223.69        75.34142
224.15        65.80574
224.61        61.85762
225.06        60.43201
225.52        60.54236
225.98        61.06573
226.44        61.65773
226.90        62.64216
227.36         63.7562
227.81         64.3334
228.27        64.32299
228.73        63.71039
229.19         62.8466
229.65        62.19974
230.10        61.79185
230.56        61.56561
231.02        61.25428
231.48        60.50499
231.93        59.31668
232.39         58.1801
232.85         57.3299
233.31        57.14932
233.77        57.61433
234.22        58.51955
234.68         59.6615
235.14        60.86516
235.60        62.00525
236.05        63.18885
236.51        64.00038
236.97        63.72492
237.43        62.18797
237.88         59.6185
238.34        56.80063
238.80        55.26307
239.26        55.58214
239.71         58.1272
240.17        62.35439
240.63        66.57207
241.08        69.66291
241.54        71.22507
242.00        72.83821
242.46        78.32661
242.91         90.9072
243.37        112.5012
243.83        144.2106
244.28        173.5265
244.74        179.4482
245.20        159.8678
245.66        131.8487
246.11        111.8019
246.57         101.048
247.03        95.10793
247.48        90.34763
247.94         82.5722
248.40        73.68229
248.85        66.71029
249.31        62.51903
249.77        60.54487
250.22        60.01913
250.68        60.21972
251.14        61.51372
251.59        64.56044
252.05        68.78265
252.51        73.43822
252.96        75.51516
253.42        73.07166
253.88        67.22133
254.33        59.47877
254.79        53.72619
255.25        52.90421
255.70        56.49207
256.16        63.05782
256.62         69.1614
257.07        69.71394
257.53        65.82071
257.99        60.46471
258.44        56.02082
258.90        54.67229
259.35        55.37834
259.81        57.24551
260.27        58.86015
260.72        58.58871
261.18        56.71109
261.63         53.8966
262.09        51.33693
262.55        49.77627
263.00        49.10364
263.46        49.02337
263.91        48.91088
264.37         48.2691
264.83        47.04105
265.28         45.4864
265.74         44.0821
266.19        43.12352
266.65        42.70504
267.11        42.58184
267.56        42.57435
268.02        42.41773
268.47        42.01997
268.93        41.49524
269.38         40.8318
269.84        40.06161
270.30        39.20297
270.75        38.23394
271.21        37.29556
271.66        36.55515
272.12        36.04011
272.57        35.68343
273.03         35.3363
273.48         34.7432
273.94        33.91036
274.39        32.91508
274.85        31.95669
275.31        31.17874
275.76        30.59772
276.22        30.18537
276.67        29.86498
277.13        29.60935
277.58        29.34826
278.04        29.11172
278.49         28.8322
278.95        28.51576
279.40        28.11832
279.86        27.70651
280.31        27.24633
280.77        26.78997
281.22        26.32092
281.68        25.88364
282.13        25.49368
282.59        25.24683
283.04        25.11418
283.50        25.07888
283.95         25.0576
284.41        24.92852
284.86        24.66765
285.32         24.3452
285.77        24.00986
286.22        23.78321
286.68        23.68798
287.13        23.65053
287.59        23.65758
288.04        23.65114
288.50        23.62434
288.95        23.56599
289.41        23.46873
289.86        23.25979
290.32        22.97879
290.77        22.65805
291.22        22.37742
291.68        22.24067
292.13        22.27667
292.59        22.48096
293.04        22.85845
293.50         23.4268
293.95        24.16063
294.40        25.04803
294.86        26.02538
295.31        26.98502
295.77        27.90739
296.22        28.80924
296.68         29.7446
297.13        30.79029
297.58         31.9864
298.04        33.32697
298.49        34.79779
298.95        36.38739
299.40        38.07172
299.85        39.84672
300.31         41.7165
300.76        43.67088
301.21        45.69867
301.67        47.80227
302.12        49.90096
302.58        51.95247
303.03         53.9188
303.48        55.85542
303.94        57.85023
304.39        59.97858
304.84        62.28312
305.30        64.73537
305.75        67.25742
306.20        69.81072
306.66        72.36836
307.11        74.89134
307.57        77.33791
308.02        79.54656
308.47        81.52216
308.93        83.30248
309.38        84.99121
309.83        86.87402
310.29        89.00761
310.74        91.31165
311.19        93.57066
311.65        95.39182
312.10        96.66245
312.55        97.49785
313.00        98.17911
313.46        99.15314
313.91        100.5037
314.36        102.1286
314.82        103.7789
315.27        105.0606
315.72        105.8437
316.18        106.2806
316.63         106.555
317.08        107.0071
317.53        107.7293
317.99        108.6005
318.44        109.4925
318.89        110.1666
319.35         110.554
319.80         110.753
320.25        110.8662
320.70        111.0505
321.16         111.358
321.61        111.7806
322.06        112.2607
322.51        112.7179
322.97        113.1049
323.42        113.4431
323.87        113.8034
324.32        114.3246
324.78        114.9816
325.23        115.8058
325.68         116.532
326.13        116.7465
326.59        116.3775
327.04        115.5935
327.49        114.7724
327.94        114.5418
328.39        115.0511
328.85        116.0909
329.30        117.4288
329.75        118.3538
330.20        118.6304
330.66        118.4203
331.11        118.0546
331.56         117.992
332.01        118.3784
332.46        119.0368
332.92        119.7295
333.37        120.2469
333.82         120.435
334.27        120.4364
334.72        120.3511
335.17        120.3093
335.63        120.3791
336.08        120.5987
336.53        121.0055
336.98        121.7146
337.43        122.7185
337.88        123.9299
338.34        125.2305
338.79        126.5489
339.24        127.7274
339.69        128.7578
340.14         129.437
340.59        129.4778
341.05        128.9256
341.50        127.9174
341.95        126.8807
342.40        126.4621
342.85        126.8184
343.30        127.7694
343.75        129.0361
344.20        130.1249
344.66        130.8504
345.11         131.332
345.56        131.5979
346.01        131.7083
346.46        131.7258
346.91        131.6281
347.36        131.5003
347.81        131.5106
348.26        131.6835
348.72        131.9639
349.17        132.3059
349.62        132.6586
350.07        132.9774
350.52        133.2978
350.97        133.4426
351.42        133.1362
351.87        132.3757
352.32        131.2618
352.77        130.1817
353.22        129.7029
353.67        129.9179
354.13         130.658
354.58        131.5194
355.03        131.7728
355.48        131.2318
355.93        130.1114
356.38        128.8453
356.83        128.0913
357.28        127.9746
357.73        128.2514
358.18        128.5392
358.63        128.2371
359.08        127.2008
359.53        125.6662
359.98        123.9389
360.43        122.4422
360.88        121.2958
361.33        120.3764
361.78        119.5545
362.23        118.6372
362.68        117.5839
363.13        116.4884
363.58        115.4412
364.03        114.5553
364.48        113.8375
364.93        113.2092
365.38        112.5907
365.83        111.8792
366.28         111.044
366.73        110.1277
367.18        109.1441
367.63        108.1075
368.08        107.0437
368.53        105.9637
368.98        104.9279
369.43        104.0268
369.88        103.2784
370.33        102.6594
370.78        102.1137
371.23        101.5484
371.68         100.926
372.13        100.2525
372.58        99.54922
373.03        98.85361
373.48        98.16782
373.93        97.47377
374.38        96.72506
374.83        95.86321
375.28        94.89175
375.72        93.82428
376.17        92.80592
376.62         91.9311
377.07        91.23514
377.52        90.71776
377.97        90.28596
378.42        89.79987
378.87        89.23038
379.32        88.58254
379.77        88.02409
380.22        87.80234
380.67        87.91983
381.11        88.31623
381.56        88.59593
382.01        88.20113
382.46         87.0655
382.91        85.45115
383.36        83.83995
383.81        82.88607
384.26        82.69506
384.71        83.04028
385.15        83.62534
385.60        83.93053
386.05        83.78538
386.50        83.34524
386.95        82.70749
387.40        82.02986
387.85        81.39329
388.29        80.69607
388.74        80.08808
389.19        79.57847
389.64        79.16337
390.09        78.84445
390.54        78.57121
390.98        78.23245
391.43        77.85553
391.88        77.46136
392.33        77.10922
392.78         76.8701
393.23        76.74584
393.67        76.69836
394.12        76.72619
394.57        76.60456
395.02        76.33734
395.47        76.10609
395.91         75.9408
396.36        75.70103
396.81        75.43279
397.26        75.25301
397.71        75.07426
398.15        74.76318
398.60        74.41695
399.05        73.79587
399.50        73.12227
399.95        73.26808
400.39        74.02937
400.84        73.94704
401.29         73.0552
401.74        72.73014
402.18        72.95985
402.63        72.63648
403.08        71.88164
403.53        71.53639
403.97        71.63952
404.42        71.84226
404.87         72.0033
405.32        71.97025
405.76        71.68581
406.21        71.31737
406.66        70.93903
407.11        70.55511
407.55        70.31216
408.00        70.35275
408.45        70.62589
408.90        71.01432
409.34        71.27158
409.79        70.87491
410.24         70.0486
410.68        69.65813
411.13        69.78376
411.58        69.94727
412.03        70.01489
412.47         69.9881
412.92         69.8052
413.37        69.50753
413.81        69.20643
414.26        69.12794
414.71        69.28336
415.15        69.63583
415.60         70.0406
416.05        70.32029
416.49        70.41365
416.94        70.35957
417.39        70.24626
417.83        70.19702
418.28         70.2542
418.73        70.37933
419.17        70.52279
419.62        70.61128
420.07        70.61526
420.51         70.5401
420.96        70.46936
421.41        70.43999
421.85        70.44186
422.30        70.60874
422.74        70.77825
423.19         70.6618
423.64        70.28271
424.08        70.05424
424.53        70.08378
424.98        70.19718
425.42         70.4005
425.87        71.05182
426.31        71.87035
426.76        71.68587
427.21        70.70994
427.65        70.49444
428.10        71.02412
428.54        71.18165
428.99        71.01028
429.44         70.8437
429.88        70.85924
430.33        71.60425
430.77        72.65989
431.22        73.05593
431.66        72.68758
432.11        71.84857
432.56        70.93168
433.00         70.8458
433.45         71.7825
433.89        72.72961
434.34        72.87782
434.78        74.23203
435.23        73.44272
435.67        71.02274
436.12        71.71856
436.57        71.77761
437.01        72.38815
437.46        73.71184
437.90        72.88457
438.35        72.52944
438.79        72.83289
439.24        72.87108
439.68        72.89346
440.13        73.03448
440.57        73.34088
441.02        73.44473
441.46        73.36368
441.91        73.93958
442.35        74.77862
442.80         74.5014
443.24        73.38856
443.69        73.42899
444.13        74.51514
444.58        74.97954
445.02        74.76299
445.47          74.819
445.91        75.16862
446.36        75.43213
446.80        75.58316
447.24        75.73164
447.69        75.87844
448.13        75.95985
448.58        76.01399
449.02         76.1161
449.47        76.23785
449.91        76.22051
450.36        76.08469
450.80        75.88581
451.25        75.73552
451.69         75.7176
452.13        75.86667
452.58        76.14207
453.02        76.44008
453.47        76.60148
453.91         76.5726
454.36        76.41338
454.80        76.19666
455.24         75.9291
455.69        75.63995
456.13         75.5407
456.58          75.644
457.02        75.01273
457.46        74.82161
457.91        74.97707
458.35        75.51537
458.79        75.44605
459.24         74.7784
459.68        73.95013
460.13        73.28688
460.57        72.97908
461.01        73.13123
461.46        73.63642
461.90        74.26907
462.34         74.8111
462.79        74.42223
463.23        74.67934
463.68        75.16452
464.12        75.04425
464.56        74.29611
465.01        73.39349
465.45        72.58598
465.89         72.3412
466.34        72.59532
466.78        73.03198
467.22        73.48507
467.67        73.20097
468.11         72.9285
468.55         72.8685
468.99        73.17972
469.44        73.13718
469.88        72.75248
470.32        72.47422
470.77        72.36974
471.21        72.33828
471.65        72.37645
472.10        72.51576
472.54        72.69327
472.98        72.77452
473.42        72.71449
473.87        72.68967
474.31        72.63564
474.75        72.21198
475.20        71.61462
475.64        71.54998
476.08        71.94232
476.52        71.96445
476.97        71.56534
477.41        71.31227
477.85          71.382
478.29         70.9684
478.74         71.6516
479.18        71.80447
479.62         71.8538
480.06        71.88532
480.50        71.87309
480.95        71.80833
481.39        71.73392
481.83        71.43118
482.27        71.29438
482.72        71.63375
483.16        71.73965
483.60        71.37794
484.04        71.74502
484.48        71.88625
484.93        72.12496
485.37        71.61055
485.81        71.83881
486.25        71.06635
486.69        72.37675
487.14        73.08861
487.58        71.50927
488.02        71.95795
488.46        70.79542
488.90         70.5339
489.34        72.09942
489.79        72.68382
490.23        72.28013
490.67        71.61366
491.11        70.93758
491.55            70.9
491.99        71.38058
492.43        71.38343
492.88        70.87562
493.32        70.59166
493.76        70.63088
494.20        70.70126
494.64        70.78304
495.08        71.09473
495.52        71.48398
495.96         71.3555
496.41        70.82115
496.85        70.76333
497.29        71.03535
497.73        71.13966
498.17        70.23897
498.61        70.09146
499.05        70.43847
499.49        70.72726
499.93        70.60345
500.37        70.64281
500.82         70.8204
501.26        70.42501
501.70         70.6553
502.14        70.69801
502.58        70.86982
503.02        70.96839
503.46        70.98507
503.90        71.01924
504.34        71.03815
504.78        70.96707
505.22        70.79494
505.66        70.56916
506.10        70.37208
506.54        70.25563
506.98        70.17714
507.42        70.52945
507.86        70.28471
508.30        70.35326
508.74        70.42447
509.18        70.45108
509.62        70.41946
510.06        70.37385
510.50        70.32985
510.94        70.25981
511.38        70.20415
511.82        70.22775
512.26        70.33944
512.70        70.52706
513.14        70.72197
513.58        70.80994
514.02        70.76648
514.46        70.62005
514.90        70.45679
515.34        70.41689
515.78          70.529
516.22        70.74851
516.66        70.97592
517.10        71.05143
517.54         70.9388
517.98         70.6955
518.42        70.41828
518.86        70.24348
519.30         70.2078
519.74        70.31213
520.18         70.4893
520.62        70.51673
521.06        70.42357
521.50        70.51488
521.93        70.75697
522.37        70.83432
522.81        70.73866
523.25        70.61945
523.69        70.55019
524.13        70.58368
524.57        70.72947
525.01        70.96181
525.45        71.17344
525.89        71.18903
526.32         70.9715
526.76        70.60737
527.20        70.19762
527.64        69.91272
528.08        69.80249
528.52         69.7952
528.96        69.86366
529.40         70.0027
529.83        70.16114
530.27        70.27329
530.71        70.30714
531.15        70.29317
531.59        70.23075
532.03        70.07896
532.46        69.88118
532.90         69.7841
533.34        69.80185
533.78        69.85918
534.22        69.91328
534.66        69.98153
535.09        69.99505
535.53        69.81417
535.97        69.50121
536.41        69.33456
536.85        69.34726
537.28        69.40067
537.72        69.47707
538.16        69.60207
538.60        69.75559
539.04        69.92482
539.47        70.06709
539.91         70.1634
540.35        70.18996
540.79        70.15384
541.22        70.07264
541.66        69.99976
542.10        69.94566
542.54        69.90788
542.97        69.86376
543.41        69.80899
543.85        69.73061
544.29        69.64069
544.72        69.55824
545.16        69.53352
545.60        69.55947
546.04        69.68445
546.47        69.85876
546.91         69.8836
547.35        69.80241
547.79        69.86823
548.22        70.06197
548.66        70.22045
549.10        70.34975
549.53        70.29053
549.97        70.09454
550.41        69.87981
550.84        69.73429
551.28         69.6948
551.72        69.72477
552.15        69.80052
552.59        69.97476
553.03        69.61083
553.46        70.20873
553.90        70.04646
554.34        70.06448
554.77        69.96853
555.21        69.82731
555.65        69.83932
556.08        69.93787
556.52         70.1572
556.96        70.36984
557.39         70.3211
557.83        70.06079
558.27        69.84058
558.70        69.70037
559.14        69.58267
559.57        69.58334
560.01        69.46078
560.45         69.3279
560.88        69.57734
561.32        70.11168
561.75        70.35918
562.19        70.30717
562.63        70.15357
563.06         69.9871
563.50        70.10123
563.93        70.22984
564.37        70.25072
564.80        70.13796
565.24        69.94907
565.68        69.59019
566.11        70.30702
566.55        69.58305
566.98        69.52992
567.42        69.50661
567.85        69.60048
568.29        69.79378
568.72        70.14749
569.16        70.69646
569.60        70.77695
570.03        70.56525
570.47        71.20925
570.90        71.12811
571.34        70.43028
571.77        70.91266
572.21        71.02661
572.64        71.00971
573.08        71.10516
573.51        70.64524
573.95        70.68756
574.38        71.16666
574.82        71.20251
575.25        70.77544
575.69        70.72639
576.12        70.95285
576.56        70.32088
576.99        70.41699
577.42        70.81568
577.86        70.67207
578.29        71.58958
578.73        71.47566
579.16        71.26001
579.60        70.50431
580.03        70.52067
580.47        70.40022
580.90        71.51311
581.33        71.54411
581.77        71.77021
582.20        71.63776
582.64        71.56322
583.07        71.21881
583.51        70.80722
583.94        70.51928
584.37        70.68854
584.81        71.27692
585.24        71.41983
585.68        71.02603
586.11         71.2713
586.54        71.21771
586.98        70.39848
587.41        69.97607
587.85          70.712
588.28        70.51244
588.71        70.52464
589.15        70.39768
589.58        70.48333
590.01        70.32391
590.45        70.28448
590.88        70.87449
591.31        70.80061
591.75        70.37514
592.18        69.99473
592.61         69.8453
593.05        70.55682
593.48        71.28344
593.91        71.21523
594.35        70.56344
594.78        69.92507
595.21        69.55759
595.65          70.156
596.08        71.17944
596.51        71.02811
596.94        70.50304
597.38        70.15443
597.81        70.23909
598.24        70.95342
598.68        70.84356
599.11        70.05976
599.54         71.5607
599.97        71.02308
600.41        70.85956
600.84        70.32075
601.27        70.89593
601.70        70.68272
602.14        71.00016
602.57        70.71569
603.00        70.46659
603.43        69.81469
603.87        70.94768
604.30        71.34873
604.73        71.02685
605.16        70.08308
605.60        70.28255
606.03        70.08231
606.46        70.05255
606.89        69.64452
607.32        70.15837
607.76        69.90657
608.19        70.21271
608.62        70.26379
609.05        70.40046
609.48        70.36439
609.92        71.09202
610.35        70.69215
610.78        70.34595
611.21        70.18059
611.64         69.9777
612.07        70.20408
612.50        70.31857
612.94        70.36919
613.37        70.13391
613.80        70.53536
614.23        69.82668
614.66        69.84461
615.09        70.06571
615.52        70.29764
615.96        70.41113
616.39        70.43993
616.82        70.43615
617.25        70.02282
617.68        69.88052
618.11        70.04226
618.54        70.51031
618.97        70.55444
619.40        70.18785
619.84        70.08749
620.27        70.14132
620.70        70.27371
621.13        70.32012
621.56        69.84096
621.99        69.04867
622.42        68.79758
622.85        69.15564
623.28        69.29056
623.71        69.09231
624.14        69.71732
624.57        69.75039
625.00        69.55581
625.43        69.80217
625.86        69.75543
626.29         69.8354
626.72        69.10943
627.15        69.66298
627.58        69.46386
628.01        69.46693
628.44        69.58504
628.87        69.39473
629.30        69.14176
629.73        68.98073
630.16        69.08345
630.59        69.10369
631.02        69.34907
631.45        69.62591
631.88        69.82204
632.31        69.89013
632.74        69.86297
633.17        69.76558
633.60        69.63367
634.03        69.49213
634.46        69.32936
634.89        69.15799
635.32         69.0164
635.75        68.92065
636.18        68.79816
636.61        68.68542
637.04        68.67715
637.47        68.77568
637.89        68.94053
638.32        69.09135
638.75        69.16528
639.18        69.13805
639.61        69.02648
640.04        68.88168
640.47        68.78676
640.90        68.76665
641.33        68.81008
641.76        68.87119
642.18        68.90337
642.61        68.86812
643.04        68.79234
643.47        68.72393
643.90        68.73697
644.33        68.84134
644.76        69.01041
645.18        69.17467
645.61        69.20245
646.04        69.08025
646.47        68.86047
646.90        68.62781
647.33        68.50484
647.75        68.49159
648.18        68.61083
648.61        68.85442
649.04        68.90392
649.47         68.6723
649.89        69.39273
650.32        69.15199
650.75        68.98208
651.18        68.49927
651.61        68.43635
652.03        68.81537
652.46        69.12685
652.89        69.23598
653.32        69.21376
653.74        69.23311
654.17        68.65245
654.60        69.16444
655.03        69.31889
655.46        68.01107
655.88        68.44135
656.31        71.70162
656.74        73.69529
657.16        73.07664
657.59        73.00103
658.02        70.53469
658.45        70.46111
658.87        69.44884
659.30         69.4107
659.73        69.14991
660.15        70.07893
660.58        69.45058
661.01        69.35508
661.44        69.13867
661.86        68.78303
662.29        68.33685
662.72        68.87124
663.14        68.97412
663.57        68.96481
664.00        68.56633
664.42        68.58196
664.85        69.03017
665.27        69.45129
665.70         69.6747
666.13        69.71375
666.55        69.54613
666.98        69.10133
667.41        68.50565
667.83        68.41733
668.26        68.18031
668.69        68.30583
669.11        68.53204
669.54        68.73903
669.96        68.87947
670.39        69.07835
670.82        69.29895
671.24        69.23013
671.67        68.97376
672.09         69.0051
672.52        69.29968
672.94        69.42183
673.37        69.32986
673.80        69.15263
674.22        68.96546
674.65        68.85976
675.07         68.8785
675.50        68.93234
675.92        68.98579
676.35        69.01043
676.77        68.99309
677.20        68.93643
677.62        68.87348
678.05        68.86124
678.47        68.90706
678.90        68.99223
679.32        69.08242
679.75        69.13953
680.17        69.14908
680.60        69.13059
681.02        69.09993
681.45        69.08714
681.87        69.11622
682.30        69.12954
682.72        69.14649
683.15          69.246
683.57          69.396
684.00        69.37806
684.42        69.23993
684.85        69.24467
685.27        69.39606
685.70        69.56434
686.12        69.67635
686.54        69.70003
686.97        69.61863
687.39        69.43923
687.82        69.21886
688.24        69.13631
688.66        69.14418
689.09        69.20228
689.51        69.27873
689.94         69.3694
690.36        69.46177
690.78        69.52374
691.21        69.56619
691.63        69.61124
692.06        69.66575
692.48        69.73152
692.90        69.77242
693.33        69.74012
693.75        69.62857
694.17        69.42408
694.60        69.23069
695.02        69.22195
695.44        69.39408
695.87        69.71379
696.29        70.04408
696.71        69.92029
697.14        69.44176
697.56        69.26208
697.98        69.43127
698.41        69.49854
698.83        69.45587
699.25        69.64155
699.68        69.93099
700.10        70.01177
700.52        69.82142
700.94        69.46942
701.37        69.11498
701.79          69.019
702.21        69.23032
702.64        69.64384
703.06        70.11404
703.48        70.38744
703.90        70.38985
704.33        70.20067
704.75        69.91322
705.17        69.66928
705.59        69.53084
706.01        69.45641
706.44        69.44042
706.86        69.51168
707.28        69.65053
707.70        69.80917
708.12        69.97136
708.55        70.19663
708.97        70.41806
709.39        70.38307
709.81         70.1358
710.23        70.01483
710.66         70.0561
711.08        70.09407
711.50        70.08656
711.92         70.0629
712.34        70.01763
712.76        69.95955
713.19        69.88634
713.61        69.83143
714.03        69.79151
714.45        69.76747
714.87        69.78725
715.29        69.89409
715.71        70.08195
716.13        70.32287
716.56        70.55038
716.98        70.71631
717.40        70.75346
717.82        70.74291
718.24        70.70164
718.66        70.35194
719.08        70.21468
719.50        69.93132
719.92        69.71458
720.34        69.65259
720.76        69.76363
721.19        69.98107
721.61        70.29498
722.03        70.64499
722.45        70.97628
722.87        71.28197
723.29         71.4617
723.71        71.36149
724.13         70.9785
724.55         70.3857
724.97        69.74966
725.39        69.34743
725.81         69.2595
726.23        69.38871
726.65        69.65656
727.07        70.08048
727.49        70.34695
727.91        70.68716
728.33        70.98392
728.75        71.17513
729.17        71.24104
729.59        71.17541
730.01        71.03961
730.43        70.94671
730.85         70.9291
731.27        70.96641
731.69        71.00854
732.10        70.96895
732.52        70.82886
732.94        70.63406
733.36        70.47084
733.78        70.32829
734.20        70.21702
734.62        70.42065
735.04        70.94513
735.46        70.41163
735.88        70.92403
736.30        70.95523
736.72        71.15414
737.13        71.42388
737.55        71.65717
737.97        71.88288
738.39        71.99033
738.81        71.63521
739.23        70.99467
739.65        70.92252
740.06        71.34482
740.48        71.48378
740.90        71.28751
741.32        71.24555
741.74        71.38927
742.16         71.5014
742.57         71.5742
742.99        71.65269
743.41        71.70229
743.83        71.64907
744.25        71.48902
744.67        71.22906
745.08        70.98016
745.50        70.90005
745.92        71.03152
746.34        71.32653
746.75        71.64941
747.17        71.76499
747.59        71.62776
748.01        71.30833
748.42        70.95353
748.84        70.79848
749.26        70.89698
749.68        71.16792
750.09        71.48318
750.51         71.6355
750.93        71.57406
751.35        71.39951
751.76         71.1661
752.18        70.94747
752.60         70.7737
753.01        70.64602
753.43        70.55604
753.85        70.51578
754.27        70.53514
754.68        70.63794
755.10        70.79327
755.52        70.94183
755.93        71.04006
756.35        71.06404
756.77         71.1203
757.18        71.17644
757.60        71.21489
758.02          71.701
758.43        72.43106
758.85        71.38165
759.26        70.94771
759.68        70.36993
760.10        70.36694
760.51        71.11633
760.93        71.49582
761.34        71.44241
761.76        71.24142
762.18        71.42742
762.59        72.11301
763.01        72.31089
763.42        72.07104
763.84        71.97858
764.26        72.07532
764.67        72.08978
765.09          72.025
765.50        71.71081
765.92        71.30164
766.33        71.22667
766.75        71.38245
767.16        71.41597
767.58        71.25603
768.00        70.96343
768.41        70.72327
768.83        71.12935
769.24        71.92816
769.66        72.07355
770.07        71.58099
770.49        71.04334
770.90        70.74848
771.32        71.25671
771.73        72.32137
772.15        72.71392
772.56        72.34457
772.97        71.85194
773.39        71.47646
773.80        71.43579
774.22        71.71449
774.63        72.01389
775.05        72.16052
775.46        72.24973
775.88        72.20715
776.29         71.9412
776.70        71.58381
777.12        71.46615
777.53        71.65864
777.95        72.00896
778.36        72.41259
778.77        72.65703
779.19        72.69398
779.60        72.61414
780.02        72.44067
780.43        72.27693
780.84        72.18314
781.26        71.87001
781.67        71.50092
782.09         71.8986
782.50        72.81895
782.91        72.89051
783.33        72.16566
783.74        71.94264
784.15        72.26559
784.57        72.36181
784.98         72.2546
785.39        72.33213
785.81         72.6024
786.22        72.96157
786.63        73.30888
787.04         73.4872
787.46        73.47351
787.87        73.29198
788.28        73.07288
788.70        72.97515
789.11        73.01447
789.52        73.22864
789.93        73.48386
790.35        73.44484
790.76        73.11668
791.17        72.78325
791.58         72.5973
792.00        72.47474
792.41        72.45116
792.82        72.90353
793.23        73.57998
793.65        73.26453
794.06        72.23337
794.47        72.26292
794.88         73.2134
795.29        73.47431
795.71        72.96136
796.12        72.75496
796.53        72.91424
796.94        72.73798
797.35        72.37527
797.76        72.72861
798.18        73.61572
798.59        74.03461
799.00          73.862
799.41        73.61648
799.82        73.42496
800.23        73.28698
800.64        73.25103
801.06        73.26979
801.47        73.34069
801.88        73.36684
802.29        73.31725
802.70        73.22559
803.11        73.09266
803.52        72.91648
803.93         72.7361
804.34        72.56542
804.75        72.46573
805.17        72.62894
805.58         73.1243
805.99        73.54453
806.40        73.85377
806.81        74.77349
807.22        75.87962
807.63        75.41064
808.04        73.70504
808.45        72.89695
808.86        73.19655
809.27          73.494
809.68        73.59193
810.09        73.66532
810.50        73.64563
810.91        73.49844
811.32        73.36366
811.73         73.4547
812.14        73.80474
812.55        74.33957
812.96        74.86926
813.37        75.04413
813.78        74.77296
814.19        74.19943
814.60        73.51794
815.01        72.97839
815.42        72.65195
815.83        72.47642
816.24        72.43544
816.65        72.49516
817.05        72.63713
817.46        72.84721
817.87        73.10994
818.28        73.34447
818.69        73.52769
819.10        73.64761
819.51        73.73534
819.92        73.86588
820.33        74.04596
820.74        74.24188
821.14        74.39613
821.55        74.41049
821.96        74.27399
822.37        74.03423
822.78        73.75616
823.19        73.54476
823.60        73.44143
824.00        73.44424
824.41        73.49463
824.82        73.60444
825.23        73.74613
825.64        73.91446
826.04        74.06825
826.45        74.09683
826.86        74.00024
827.27        73.82195
827.68        73.60399
828.08        73.45161
828.49        73.35168
828.90        73.29132
829.31         73.3317
829.72        73.57137
830.12        74.02766
830.53        74.60589
830.94        75.11727
831.35        75.18913
831.75        74.76019
832.16        73.92689
832.57         72.9779
832.97        72.35446
833.38        72.18372
833.79        72.32674
834.20        72.65886
834.60         72.9679
835.01        73.17951
835.42         73.4119
835.82        73.62899
836.23        73.67725
836.64        73.57327
837.04        73.29201
837.45        73.07356
837.86        73.39427
838.26         74.3439
838.67        75.74033
839.08        77.09104
839.48        77.46863
839.89         76.6545
840.29        74.99815
840.70        73.23567
841.11         72.2254
841.51        72.18766
841.92        72.85337
842.33        73.91402
842.73        74.80863
843.14        75.19894
843.54        75.29206
843.95        75.22744
844.35        75.28883
844.76        75.52583
845.17        75.81515
845.57        76.01159
845.98         75.8764
846.38        75.40372
846.79        74.70985
847.19        74.00537
847.60        73.58271
848.00        73.53413
848.41        73.73615
848.81        74.10903
849.22        74.42292
849.62        74.63476
850.03        74.79778
850.43        74.89108
850.84        74.81029
851.24        74.60448
851.65        74.20608
852.05        73.88381
852.46        73.99884
852.86        74.60096
853.27        75.54591
853.67        76.40858
854.07         76.7254
854.48        76.38832
854.88        75.56891
855.29        74.49213
855.69        73.72593
856.10         73.4002
856.50        73.45744
856.90        73.69051
857.31        73.76302
857.71        73.62627
858.12        73.32571
858.52        73.03945
858.92        72.92604
859.33        73.01467
859.73        73.27933
860.13        73.54594
860.54        73.57084
860.94        73.34117
861.34        72.91313
861.75        72.47004
862.15        72.35514
862.55         72.6216
862.96        73.12895
863.36        73.71181
863.76         73.9975
864.17        73.86642
864.57        73.46654
864.97          72.904
865.38        72.34892
865.78        71.91011
866.18        71.54913
866.58        71.31213
866.99        71.28074
867.39        71.48371
867.79        71.87974
868.19        72.40053
868.60        72.90796
869.00        73.37715
869.40        73.79925
869.80        74.10743
870.21        74.19579
870.61        74.10828
871.01        73.82986
871.41        73.43119
871.81        73.01187
872.22        72.59687
872.62        72.16807
873.02        71.78752
873.42        71.54108
873.82        71.44532
874.22        71.49105
874.63         71.5538
875.03        71.44405
875.43        71.11619
875.83        70.63538
876.23        70.15965
876.63        69.93593
877.03        70.02316
877.44        70.32024
877.84        70.71551
878.24        71.01929
878.64        71.11497
879.04        70.92351
879.44        70.61359
879.84        70.53714
880.24        70.73128
880.64        71.06744
881.04         71.3008
881.44        71.05936
881.84        70.30417
882.24        69.21243
882.65        68.16271
883.05        67.72329
883.45        68.03079
883.85        68.90601
884.25        70.06065
884.65        70.99295
885.05        71.50221
885.45        71.69718
885.85        71.67571
886.25        71.60366
886.65        71.54995
887.05        71.45939
887.45        71.30806
887.85        71.08463
888.25        70.79946
888.65        70.48401
889.04        70.22134
889.44        70.14461
889.84         70.2495
890.24        70.49454
890.64        70.72519
891.04        70.68916
891.44        70.35033
891.84        69.81783
892.24        69.26835
892.64        68.96136
893.04        68.97179
893.44        69.23103
893.83        69.68873
894.23         70.1977
894.63         70.7093
895.03        71.22895
895.43        71.73201
895.83        72.19091
896.23         72.5629
896.63        72.78864
897.02        72.82527
897.42         72.6553
897.82        72.30009
898.22        71.84753
898.62        71.31158
899.01        70.68338
899.41        70.03202
899.81        69.36919
900.21        68.91045
900.61        68.99252
901.00        69.63957
901.40        70.71207
901.80        71.83823
902.20        72.41734
902.59        72.31215
902.99        71.68659
903.39        70.83169
903.79         70.2458
904.18        70.07507
904.58        70.16126
904.98        70.41833
905.38        70.72276
905.77        71.01579
906.17        71.39027
906.57        71.70176
906.96        71.69142
907.36        71.31964
907.76        70.65804
908.15          70.056
908.55        70.06529
908.95        70.78867
909.34         72.0526
909.74        73.38951
910.14        74.10741
910.53        73.98597
910.93         73.2723
911.33        72.24314
911.72        71.31947
912.12        70.73228
912.52        70.36791
912.91        70.20837
913.31        70.25587
913.70        70.47131
914.10        70.82232
914.49        71.31419
914.89        71.83185
915.29        72.33117
915.68        72.82682
916.08        73.08929
916.47        72.84817
916.87        72.12244
917.26        71.00724
917.66        69.97424
918.05        69.57697
918.45        69.92018
918.84        70.88568
919.24        72.03913
919.64        72.73303
920.03        72.77108
920.42        72.29822
920.82        71.67951
921.21        71.43882
921.61        71.68716
922.00        72.28624
922.40        72.92731
922.79        73.23367
923.19        73.05883
923.58        72.59013
923.98        72.04056
924.37        71.63181
924.77        71.45431
925.16        71.38302
925.55        71.40913
925.95        71.50548
926.34        71.65317
926.74        71.85018
927.13        71.96063
927.52        71.69203
927.92        71.07404
928.31        70.20354
928.70        69.37223
929.10        68.99836
929.49        69.15951
929.89        69.67292
930.28        70.45609
930.67        71.22961
931.07        71.83238
931.46        72.41488
931.85        72.76514
932.24        72.60463
932.64        71.97687
933.03        70.92399
933.42        69.95562
933.82        69.82353
934.21         70.6533
934.60        72.28429
934.99        74.11373
935.39        75.03141
935.78        74.76353
936.17        73.52779
936.56        71.95454
936.96        71.04695
937.35        71.06537
937.74         71.7151
938.13        72.46853
938.53        72.51374
938.92        71.68156
939.31        70.31384
939.70        68.90369
940.09        68.12294
940.49        68.10094
940.88        68.65288
941.27        69.49002
941.66         70.0924
942.05        70.28176
942.44        70.23811
942.84        70.14351
943.23        70.26901
943.62        70.68694
944.01        71.22661
944.40         71.8219
944.79        72.40884
945.18        72.91186
945.57        73.34743
945.97        73.50803
946.36        73.15838
946.75        72.26453
947.14        70.99807
947.53        69.70078
947.92        68.84303
948.31        68.54459
948.70        68.69917
949.09        69.16631
949.48        69.67863
949.87        70.11331
950.26        70.51247
950.65        70.88071
951.04        71.23705
951.43        71.57034
951.82        71.82793
952.21        71.95198
952.60        71.88402
952.99        71.65135
953.38        71.32905
953.77        71.03588
954.16        70.94677
954.55        71.09621
954.94        71.40109
955.33        71.83073
955.72         72.3152
956.11        72.78294
956.50        73.25352
956.89        73.50524
957.28        73.18701
957.66        72.27206
958.05        70.94112
958.44        69.63024
958.83        68.96354
959.22        69.04935
959.61        69.72042
960.00        70.61068
960.39        71.02934
960.78         70.7497
961.16        69.96947
961.55        69.04506
961.94        68.40435
962.33        68.17876
962.72        68.27575
963.11        68.52823
963.49        68.67171
963.88        68.54653
964.27        68.25089
964.66        68.09399
965.04        68.55717
965.43        69.65987
965.82         71.3104
966.21        72.92263
966.60        73.37431
966.98        72.35229
967.37        70.31664
967.76        68.16661
968.15        67.03822
968.53        67.15803
968.92        68.26874
969.31        69.76912
969.69        70.46353
970.08        69.89046
970.47        68.45065
970.86        67.00023
971.24        66.73885
971.63        67.88789
972.02        70.10297
972.40        72.53202
972.79        73.23246
973.17        71.74583
973.56         68.8213
973.95        65.67386
974.33        63.83448
974.72        63.62757
975.11         64.5985
975.49        66.23174
975.88        67.44463
976.26        67.85312
976.65        67.73138
977.04        67.40351
977.42        67.32308
977.81        67.60237
978.19         68.0331
978.58        68.54881
978.96         69.0782
979.35        69.52415
979.74        69.90663
980.12        70.29616
980.51        70.54101
980.89        70.72778
981.28        70.89116
981.66         70.8998
982.05         70.5389
982.43        69.82092
982.82        68.74095
983.20        67.88129
983.59        68.19823
983.97        69.98511
984.35        72.94164
984.74        75.91838
985.12        77.19804
985.51        76.27769
985.89        73.71986
986.28        70.74753
986.66        69.13193
987.04        69.39046
987.43        70.99896
987.81        73.22645
988.20         74.5055
988.58        74.30268
988.96        73.04014
989.35        71.39064
989.73         70.2671
990.12        69.89439
990.50        70.02213
990.88          70.176
991.27        69.61723
991.65        68.24176
992.03        66.40604
992.42        64.83034
992.80        64.41641
993.18        65.34106
993.56        67.34756
993.95        69.67976
994.33        71.06852
994.71        70.94774
995.10        69.80187
995.48        68.33548
995.86        67.70712
996.24        68.20203
996.63        69.29936
997.01        70.83656
997.39         72.0873
997.77        72.65282
998.15        72.87634
998.54        72.54018
998.92        71.15891
999.30        68.94088
999.68        66.10785
1000.06        63.67875
1000.45        63.08797
1000.83        64.70083
1001.21        68.28783
1001.59        72.87004
1001.97         75.9493
1002.35        76.45233
1002.73         75.0201
1003.12        72.97196
1003.50        72.01788
1003.88        72.67552
1004.26        74.30464
1004.64        76.38097
1005.02        77.81606
1005.40        78.08188
1005.78        77.72653
1006.16        76.70653
1006.54        74.85379
1006.92        72.46813
1007.30        69.74799
1007.69        67.63937
1008.07        67.33949
1008.45        69.19759
1008.83        72.90732
1009.21        77.70364
1009.59        81.42687
1009.97        82.77291
1010.35        82.18491
1010.73        79.90559
1011.11         76.4745
1011.49        72.53821
1011.86        68.24338
1012.24        64.59229
1012.62        62.80003
1013.00        62.99516
1013.38        64.97711
1013.76        68.06769
1014.14        70.33888
1014.52        70.80923
1014.90        69.90594
1015.28        68.30172
1015.66        67.06853
1016.04        66.52159
1016.41        66.27101
1016.79        66.26399
1017.17        66.56121
1017.55        67.04771
1017.93        67.71149
1018.31        68.31533
1018.69        68.44038
1019.06        68.01972
1019.44        67.14423
1019.82        65.80525
1020.20        64.22814
1020.58        62.73798
1020.95        61.32527
1021.33        60.51342
1021.71        60.73215
1022.09        62.00253
1022.46        64.49864
1022.84        67.42709
1023.22        68.72247
1023.60        67.61496
1023.97        64.58949
1024.35        61.73544
1024.73        61.47205
