SpectraSmart Spectrum 2.9.0.0
--------- Device Information -----------
Spectrum Name :  反射率_0
Saving Time :  2024/04/26 23:58:23
Spectro-Module Model Name : SE2030-DUVN
Spectro-Module Serial Number : OS361AC55029948
Wavelength Start : 200
Wavelength End : 1025
Wavelength Unit : Wavelength(nm)
Spectrum Unit : Reflectance(%)
-----------Spectrum Setting ------------
Integration Time : 20ms
Average : 10
Boxcar : 0
Background removal :  enabled
linearity correction :  enabled
SC :  disabled
Intensity correction :  disabled
DWT denoise :  enabled
savitzky-golay :  disabled
FFT :  disabled
Running average :  disabled
Kalman :  disabled
High pass :  disabled
---------------BEGIN--------------------
Wavelength(nm)             Reflectance(%)
200.29               0
200.75        60.24914
201.21        54.08247
201.67         49.2141
202.13        47.75233
202.58        49.64231
203.04        54.79198
203.50        62.82365
203.96        70.52711
204.42        75.03144
204.88        76.44767
205.34        74.47712
205.80        70.33389
206.26        65.44985
206.72        59.83614
207.18        55.49826
207.64         53.9387
208.10        55.05958
208.55        59.79239
209.01        66.63927
209.47         68.6169
209.93        63.47464
210.39        56.18039
210.85        51.58789
211.31         52.4541
211.77        59.81604
212.23        78.79163
212.69        127.5909
213.14        210.0353
213.60        206.7714
214.06        149.2403
214.52        109.7568
214.98        90.86312
215.44        81.24671
215.90        74.00929
216.36        68.96358
216.81         67.1953
217.27        69.25674
217.73        77.03468
218.19        88.81667
218.65        92.36889
219.11        84.01329
219.57        71.84015
220.02         63.8019
220.48        64.17322
220.94        72.01781
221.40        87.56623
221.86        109.8092
222.32        122.8571
222.77        113.9745
223.23        94.92276
223.69        76.22263
224.15        63.08313
224.61        54.73889
225.06        48.67465
225.52         45.2583
225.98        44.83776
226.44        46.78333
226.90        50.73928
227.36        54.68687
227.81        55.14081
228.27         51.8796
228.73        46.33987
229.19        41.16509
229.65         39.3523
230.10        40.99892
230.56        44.98718
231.02        49.40549
231.48         51.1997
231.93        49.79944
232.39         46.7805
232.85         43.7106
233.31        42.59431
233.77        43.67907
234.22        46.17166
234.68        49.25315
235.14        51.82002
235.60         53.4783
236.05        54.68631
236.51        55.45303
236.97        55.77221
237.43        55.73418
237.88        55.24913
238.34         54.7844
238.80        55.52074
239.26        57.98343
239.71        62.77742
240.17        69.39236
240.63        75.88641
241.08        80.79881
241.54        83.31941
242.00        85.13348
242.46        90.71884
242.91        103.6659
243.37        125.8583
243.83         158.011
244.28        185.8182
244.74        187.4128
245.20        162.8557
245.66        131.5741
246.11        110.8298
246.57        101.5372
247.03        98.55319
247.48         97.9732
247.94        94.42407
248.40        88.47237
248.85        83.15858
249.31        79.77813
249.77        78.04082
250.22        77.38527
250.68        77.05397
251.14        77.31841
251.59        78.99247
252.05        82.01784
252.51        85.99256
252.96        88.23182
253.42        87.02499
253.88        83.10398
254.33        77.48243
254.79        73.64668
255.25        74.16013
255.70        78.45689
256.16        85.25714
256.62        91.06753
257.07        90.79554
257.53        85.95985
257.99        79.73687
258.44        74.46851
258.90        72.40511
259.35        72.39121
259.81        73.63562
260.27        74.81944
260.72        74.47831
261.18        72.87901
261.63        70.42649
262.09        68.22387
262.55        66.81026
263.00         66.0423
263.46         65.7742
263.91        65.33157
264.37        64.26773
264.83        62.54763
265.28        60.42242
265.74        58.51957
266.19        57.25114
266.65        56.71701
267.11        56.59793
267.56        56.56472
268.02        56.11829
268.47        55.13612
268.93        53.86007
269.38        52.40981
269.84        51.02932
270.30        49.79293
270.75        48.59391
271.21        47.58412
271.66        46.92919
272.12        46.62045
272.57        46.58522
273.03        46.49952
273.48        45.82218
273.94        44.54241
274.39        42.82493
274.85        41.14774
275.31        40.02179
275.76        39.49784
276.22        39.41666
276.67        39.45212
277.13        39.24677
277.58        38.65896
278.04        37.85785
278.49        36.94083
278.95        36.17678
279.40        35.56949
279.86        35.10044
280.31        34.62468
280.77        34.06742
281.22         33.3766
281.68        32.67463
282.13        32.01804
282.59        31.56892
283.04        31.30809
283.50        31.20258
283.95        31.15676
284.41        31.04323
284.86        30.82753
285.32        30.58186
285.77        30.35349
286.22        30.27303
286.68        30.36179
287.13        30.53697
287.59        30.75232
288.04        30.89197
288.50        30.94439
288.95        30.90109
289.41        30.82156
289.86        30.71727
290.32        30.64494
290.77        30.60349
291.22        30.59341
291.68        30.59546
292.13        30.62109
292.59        30.71932
293.04        30.99799
293.50        31.63864
293.95        32.65102
294.40        33.97289
294.86        35.44448
295.31        36.80328
295.77        37.98966
296.22        39.05607
296.68        40.12855
297.13        41.39228
297.58         42.9071
298.04        44.61564
298.49        46.42515
298.95        48.21506
299.40        49.92904
299.85        51.60267
300.31        53.29972
300.76        55.08781
301.21        56.98753
301.67        58.98738
302.12        60.96691
302.58        62.84388
303.03        64.55701
303.48        66.16703
303.94        67.81258
304.39        69.62563
304.84        71.65678
305.30         73.8681
305.75         76.0729
306.20        78.08211
306.66        79.86723
307.11        81.44734
307.57        82.97115
308.02        84.55035
308.47        86.23812
308.93        87.98808
309.38        89.69238
309.83         91.3157
310.29        92.84409
310.74        94.28748
311.19        95.62969
311.65        96.81002
312.10         97.7944
312.55        98.58537
313.00        99.26563
313.46        99.97914
313.91        100.7426
314.36        101.5633
314.82        102.3556
315.27         102.994
315.72        103.4337
316.18        103.7412
316.63        103.9989
317.08        104.3876
317.53        104.9489
317.99        105.6188
318.44        106.3036
318.89        106.8178
319.35        107.1087
319.80        107.2345
320.25        107.2934
320.70        107.4477
321.16        107.7388
321.61         108.158
322.06         108.608
322.51        108.9397
322.97        109.1003
323.42        109.1396
323.87        109.1905
324.32        109.4893
324.78        110.0426
325.23        110.8555
325.68        111.6377
326.13        111.9239
326.59        111.6161
327.04         110.892
327.49        110.1185
327.94        109.9072
328.39        110.4037
328.85        111.3925
329.30        112.6524
329.75        113.5115
330.20        113.7489
330.66        113.5271
331.11        113.1549
331.56        113.0522
332.01        113.3596
332.46        113.9159
332.92        114.5294
333.37        115.0563
333.82        115.3631
334.27        115.5722
334.72        115.7228
335.17        115.8503
335.63        115.9863
336.08        116.1671
336.53        116.4898
336.98        117.1709
337.43        118.2278
337.88        119.5637
338.34        120.9454
338.79        122.1034
339.24        122.8598
339.69        123.2799
340.14        123.3967
340.59         123.297
341.05        123.0914
341.50         122.784
341.95        122.5288
342.40        122.5515
342.85        122.9104
343.30          123.56
343.75        124.4045
344.20        125.2565
344.66        126.0289
345.11        126.7347
345.56        127.3255
346.01         127.748
346.46        128.0112
346.91        128.1315
347.36        128.1752
347.81        128.2707
348.26        128.4434
348.72        128.6434
349.17        128.8641
349.62         129.127
350.07        129.4113
350.52        129.7408
350.97        129.9319
351.42          129.69
351.87        129.0033
352.32         127.983
352.77        127.0008
353.22        126.5992
353.67        126.8688
354.13        127.6428
354.58        128.5424
355.03        128.8855
355.48        128.4875
355.93        127.5384
356.38        126.4341
356.83        125.7765
357.28        125.6822
357.73        125.9335
358.18        126.1675
358.63        125.8135
359.08         124.748
359.53        123.2032
359.98        121.5091
360.43        120.1257
360.88        119.1701
361.33        118.5007
361.78        117.9432
362.23         117.229
362.68        116.2963
363.13        115.2623
363.58        114.2364
364.03        113.3655
364.48        112.6741
364.93        112.0711
365.38        111.5015
365.83        110.9021
366.28        110.2405
366.73         109.545
367.18        108.7751
367.63        107.8564
368.08        106.7997
368.53         105.648
368.98        104.5115
369.43        103.5625
369.88        102.8452
370.33        102.3106
370.78        101.8903
371.23        101.4688
371.68        100.9907
372.13        100.4669
372.58        99.89225
373.03        99.26138
373.48        98.57192
373.93        97.81885
374.38        96.99126
374.83        96.09193
375.28        95.14324
375.72        94.14381
376.17        93.22385
376.62         92.4526
377.07        91.85544
377.52        91.43951
377.97        91.10587
378.42        90.70312
378.87         90.1975
379.32        89.59099
379.77        89.06216
380.22        88.87786
380.67        89.04839
381.11         89.5162
381.56        89.86879
382.01        89.51898
382.46        88.39203
382.91        86.75174
383.36        85.11914
383.81        84.20538
384.26        84.12199
384.71        84.62925
385.15        85.36031
385.60        85.67822
386.05        85.39352
386.50        84.70255
386.95        83.81286
387.40        83.04828
387.85        82.51895
388.29        82.06636
388.74        81.73067
389.19        81.36671
389.64        80.94659
390.09        80.51824
390.54        80.11797
390.98        79.78899
391.43         79.5778
391.88        79.39324
392.33        79.20679
392.78        79.03602
393.23        78.81205
393.67        78.44029
394.12        78.03328
394.57        77.49907
395.02        76.97907
395.47        76.93621
395.91        77.26357
396.36        77.24681
396.81        76.85764
397.26         76.5162
397.71        76.23061
398.15        75.88442
398.60        75.59246
399.05        75.11022
399.50        74.59101
399.95        74.74281
400.39        75.36639
400.84        75.22292
401.29        74.35578
401.74        73.89599
402.18        73.90427
402.63         73.6554
403.08        73.22402
403.53        73.05736
403.97        73.16164
404.42        73.39043
404.87        73.61446
405.32        73.60198
405.76        73.29348
406.21        72.90909
406.66        72.52401
407.11        72.04294
407.55        71.65589
408.00        71.75741
408.45        72.24236
408.90        72.59868
409.34        72.59494
409.79         72.0767
410.24        71.27938
410.68        70.85092
411.13        70.87547
411.58        70.99184
412.03        71.07028
412.47          71.063
412.92         70.9032
413.37        70.64185
413.81        70.38161
414.26        70.34042
414.71        70.52456
415.15        70.89056
415.60        71.29279
416.05        71.55882
416.49        71.62887
416.94        71.54328
417.39         71.3819
417.83          71.256
418.28          71.208
418.73        71.20247
419.17        71.22335
419.62        71.25035
420.07        71.26884
420.51        71.27138
420.96        71.28549
421.41        71.29261
421.85        71.26731
422.30        71.27364
422.74        71.23692
423.19        71.17561
423.64        71.06077
424.08        70.88195
424.53        70.71031
424.98        70.75992
425.42        71.06394
425.87        71.52228
426.31        71.98798
426.76        72.15242
427.21        72.01728
427.65        71.81167
428.10        71.59963
428.54        71.49938
428.99         71.5844
429.44        71.44331
429.88        71.26585
430.33        72.00919
430.77        73.21376
431.22        73.67904
431.66        73.29063
432.11        72.39297
432.56         71.4143
433.00        71.32643
433.45        72.29428
433.89        73.20486
434.34        73.53546
434.78        74.52275
435.23        73.00443
435.67        71.00876
436.12        72.10957
436.57        72.47215
437.01        73.05177
437.46        73.35885
437.90        73.42505
438.35        72.52638
438.79        72.69543
439.24        72.58524
439.68        72.74097
440.13        73.03859
440.57        73.44806
441.02        73.65376
441.46        73.59039
441.91        73.97919
442.35        74.57304
442.80        74.00588
443.24        73.26794
443.69        73.29096
444.13        74.18313
444.58        74.57391
445.02        74.40969
445.47        74.45557
445.91        74.74619
446.36        75.03078
446.80        75.28739
447.24        75.57077
447.69        75.83395
448.13        75.98497
448.58        76.02372
449.02        75.94823
449.47        75.81467
449.91        75.67995
450.36        75.59296
450.80         75.5213
451.25        75.48255
451.69        75.44048
452.13        75.40668
452.58        75.37528
453.02        75.34693
453.47        75.35359
453.91        75.38802
454.36        75.34692
454.80        75.36542
455.24         75.1824
455.69         74.8559
456.13        74.51888
456.58        74.28813
457.02        73.87555
457.46        73.49995
457.91        73.90895
458.35        74.75083
458.79        74.85288
459.24        74.20193
459.68        73.28967
460.13        72.46734
460.57        72.12929
461.01        72.44138
461.46        72.47346
461.90        73.18933
462.34        73.86906
462.79        73.55811
463.23        73.70909
463.68        73.84368
464.12        73.59833
464.56        72.97961
465.01        72.14559
465.45        71.31748
465.89        71.23647
466.34        71.71277
466.78        71.83328
467.22        71.61935
467.67        71.15292
468.11        71.52453
468.55        71.62793
468.99        71.68679
469.44        71.58006
469.88        71.31836
470.32        71.01266
470.77        70.72492
471.21        70.51949
471.65        70.40871
472.10        70.38028
472.54        70.43459
472.98        70.50281
473.42        70.54098
473.87        70.79691
474.31        71.08496
474.75         70.6611
475.20        69.76711
475.64         69.6512
476.08        70.28455
476.52        70.29749
476.97        69.57319
477.41        69.74519
477.85        70.03718
478.29        69.17242
478.74        69.58214
479.18        70.22308
479.62        69.98544
480.06         70.1483
480.50        70.17668
480.95        70.06871
481.39        69.78103
481.83        69.92966
482.27        69.63104
482.72        69.77202
483.16        69.71615
483.60        69.75636
484.04        69.76919
484.48        69.84315
484.93        69.86886
485.37        69.89096
485.81        69.23786
486.25        69.36187
486.69        71.12838
487.14        71.69118
487.58         69.9838
488.02        70.11047
488.46        68.42429
488.90        68.58286
489.34        70.37757
489.79        70.81567
490.23        70.06412
490.67         69.4253
491.11         69.1697
491.55        69.02344
491.99        68.96384
492.43        68.77642
492.88        68.48297
493.32        68.43583
493.76        68.62534
494.20        68.76299
494.64        68.80479
495.08        68.89695
495.52        68.99506
495.96        68.88724
496.41        68.62116
496.85        68.53758
497.29        68.53291
497.73        68.56669
498.17        67.83941
498.61        67.83031
499.05          68.228
499.49        68.49464
499.93         68.3392
500.37        68.39719
500.82        68.58607
501.26        68.62104
501.70        68.53033
502.14        68.58997
502.58        68.76673
503.02        68.90121
503.46        68.97084
503.90        69.08715
504.34        69.20107
504.78        69.16671
505.22        68.95671
505.66         68.6756
506.10         68.4239
506.54         68.1771
506.98        67.92983
507.42        68.37858
507.86        68.19757
508.30        68.31351
508.74          68.317
509.18        68.26968
509.62        68.18012
510.06         68.0877
510.50        68.01891
510.94        67.94701
511.38        67.88706
511.82        67.86493
512.26        67.88361
512.70        67.94083
513.14        68.01451
513.58        68.06472
514.02        68.08133
514.46        68.07255
514.90        68.05837
515.34        68.07358
515.78        68.12373
516.22        68.19258
516.66        68.25905
517.10        68.29095
517.54        68.28025
517.98        68.24085
518.42        68.18236
518.86        68.11977
519.30        68.06115
519.74         68.0015
520.18        67.95341
520.62        67.93473
521.06         67.9489
521.50         67.9983
521.93        68.06038
522.37        68.07489
522.81        68.04068
523.25        67.96846
523.69        67.90348
524.13         67.9194
524.57        68.02216
525.01        68.17675
525.45        68.32282
525.89        68.36347
526.32        68.26982
526.76        68.09878
527.20        67.88329
527.64        67.68208
528.08        67.52193
528.52        67.38509
528.96         67.3006
529.40        67.31136
529.83        67.41286
530.27        67.60322
530.71        67.79948
531.15        67.87417
531.59        67.80126
532.03         67.6083
532.46        67.38065
532.90        67.30417
533.34        67.40149
533.78        67.57986
534.22        67.73975
534.66        67.81236
535.09        67.72016
535.53        67.36244
535.97        66.86893
536.41        66.61442
536.85         66.6536
537.28        66.81544
537.72        67.03112
538.16        67.24062
538.60        67.39771
539.04         67.5192
539.47        67.58189
539.91         67.5934
540.35        67.54564
540.79        67.43859
541.22        67.30437
541.66        67.21814
542.10        67.19273
542.54        67.22686
542.97        67.27769
543.41        67.28737
543.85        67.23786
544.29        67.18408
544.72        67.14137
545.16         67.1164
545.60         67.1047
546.04        67.19792
546.47        67.34754
546.91        67.31476
547.35        67.17062
547.79        67.23675
548.22        67.48753
548.66        67.73022
549.10        67.92883
549.53        67.83871
549.97        67.53365
550.41        67.26773
550.84        67.15172
551.28        67.13234
551.72        67.13831
552.15        67.21709
552.59        67.43079
553.03        66.82226
553.46        67.41141
553.90        67.33649
554.34        67.15935
554.77        67.29507
555.21        67.16821
555.65        67.15442
556.08        67.61475
556.52        67.68201
556.96        67.52985
557.39        67.51881
557.83        67.63507
558.27        67.44683
558.70        67.00549
559.14        66.79395
559.57        66.81087
560.01        66.75648
560.45        66.66763
560.88        66.83109
561.32        67.19324
561.75        67.43406
562.19        67.51988
562.63        67.41244
563.06        67.20415
563.50        67.26588
563.93        67.49203
564.37        67.53892
564.80        67.42293
565.24        67.23582
565.68         66.8693
566.11          67.513
566.55        66.76033
566.98        66.56181
567.42        66.35664
567.85        66.55707
568.29        67.10188
568.72        67.45387
569.16        67.64252
569.60        68.01436
570.03        68.07957
570.47        68.35123
570.90        68.77234
571.34        67.93855
571.77        68.51062
572.21        68.76898
572.64        68.62795
573.08        68.73974
573.51        67.96553
573.95        67.97117
574.38        68.65626
574.82        68.39139
575.25        68.38549
575.69        68.33317
576.12        68.72186
576.56        67.63108
576.99        67.95098
577.42          68.158
577.86        68.32818
578.29        69.02837
578.73        69.28362
579.16        69.07805
579.60        68.28105
580.03         68.2231
580.47        68.00429
580.90        69.23721
581.33        69.16735
581.77        69.18002
582.20        69.27848
582.64        69.50081
583.07        69.28875
583.51        68.85957
583.94        68.31004
584.37        68.24722
584.81        68.76043
585.24         68.9922
585.68        68.80907
586.11        68.84167
586.54        68.77982
586.98        67.88679
587.41        67.90083
587.85        68.44041
588.28        68.14541
588.71        67.88855
589.15        67.75087
589.58        68.15112
590.01         67.4965
590.45        67.83201
590.88        68.48568
591.31        68.49952
591.75        67.92677
592.18        67.32112
592.61        67.08263
593.05        67.53619
593.48        69.11398
593.91        68.87515
594.35        68.70213
594.78        67.24578
595.21         66.6756
595.65        67.28602
596.08        69.35182
596.51        68.69728
596.94         68.0781
597.38        67.49713
597.81        67.77151
598.24        68.59933
598.68        68.08003
599.11        67.65128
599.54        68.97446
599.97        68.68202
600.41        68.33392
600.84        67.66967
601.27        67.95943
601.70        67.98129
602.14        67.91276
602.57        67.77029
603.00         67.6855
603.43          67.519
603.87        68.31409
604.30        68.43962
604.73        68.33453
605.16        67.53534
605.60        67.47132
606.03        67.27028
606.46         67.2914
606.89        67.38268
607.32        67.77873
607.76        67.57427
608.19        67.82595
608.62        67.79745
609.05        67.61765
609.48        67.55304
609.92        68.43996
610.35        67.93108
610.78        67.70692
611.21        67.45851
611.64        67.63808
612.07        67.82838
612.50        67.67917
612.94        67.60316
613.37        67.43301
613.80        67.61673
614.23        66.82806
614.66        66.86555
615.09        67.46341
615.52        67.51273
615.96        67.28542
616.39        67.53004
616.82        67.68748
617.25        67.22679
617.68        67.30185
618.11        67.26344
618.54        67.46198
618.97        67.40194
619.40        67.09946
619.84        67.17157
620.27        66.99937
620.70        67.08894
621.13        67.15525
621.56        66.75336
621.99         66.0367
622.42        65.87502
622.85        66.31245
623.28         66.3305
623.71         66.6972
624.14        66.48793
624.57        67.10684
625.00         66.7298
625.43         67.0822
625.86        66.97303
626.29        66.83294
626.72        66.60308
627.15        66.80861
627.58        66.63598
628.01        66.34838
628.44        66.80839
628.87        66.47321
629.30        65.95047
629.73        65.91002
630.16        66.59527
630.59        66.17385
631.02         66.4597
631.45        66.79078
631.88        66.98084
632.31        66.94801
632.74        67.15262
633.17        66.93186
633.60         66.7953
634.03        66.56661
634.46        66.26997
634.89        65.96989
635.32         65.8019
635.75        65.80324
636.18        65.86259
636.61         65.9493
637.04         66.0493
637.47        66.13671
637.89        66.20579
638.32        66.21922
638.75        66.18533
639.18        66.10876
639.61        65.98597
640.04        65.86111
640.47         65.8086
640.90        65.84393
641.33        65.95233
641.76         66.0852
642.18        66.16495
642.61        66.14792
643.04         66.0636
643.47        65.95745
643.90        65.90415
644.33        65.92073
644.76         65.9854
645.18        66.05415
645.61        66.03619
646.04        65.92719
646.47        65.76987
646.90        65.62243
647.33        65.56516
647.75         65.5865
648.18         65.7053
648.61        65.92641
649.04        65.99556
649.47        65.81673
649.89        66.49922
650.32         66.2243
650.75        66.03861
651.18        65.59458
651.61        65.63099
652.03        66.13734
652.46        66.44584
652.89         66.3952
653.32        66.24914
653.74         66.3482
654.17        65.35854
654.60        66.35246
655.03        66.63715
655.46        65.28373
655.88        65.49725
656.31        69.19578
656.74        72.77267
657.16        72.16969
657.59        70.91357
658.02        67.34271
658.45        67.30832
658.87        66.28033
659.30        66.45849
659.73        66.19106
660.15        67.64059
660.58         66.4519
661.01        66.25497
661.44        65.96312
661.86        65.69291
662.29        65.41492
662.72        65.91584
663.14        65.86495
663.57        65.80016
664.00        65.47997
664.42        65.53822
664.85        65.98945
665.27        66.44869
665.70        66.74384
666.13        66.85383
666.55        66.74586
666.98         66.3513
667.41         65.7832
667.83        65.66722
668.26        65.38227
668.69        65.42719
669.11        65.56356
669.54        65.72829
669.96        65.89005
670.39        66.06631
670.82        66.24082
671.24        66.35051
671.67        66.38144
672.09        66.32858
672.52        66.24356
672.94        66.17241
673.37        66.13828
673.80        66.12172
674.22        66.12544
674.65        66.11508
675.07        66.10013
675.50        66.08141
675.92        66.05507
676.35        65.99786
676.77        65.91338
677.20        65.80802
677.62         65.7132
678.05        65.68005
678.47        65.71535
678.90        65.80558
679.32        65.91598
679.75        66.00464
680.17        66.05219
680.60        66.07118
681.02        66.07389
681.45        66.08402
681.87        66.11832
682.30        66.14001
682.72        66.16537
683.15        66.21523
683.57        66.25152
684.00         66.2815
684.42        66.02032
684.85        66.04777
685.27        66.26685
685.70        66.54643
686.12         66.7789
686.54        66.88884
686.97        66.86926
687.39        66.67513
687.82        66.35854
688.24        66.28076
688.66        66.53458
689.09        66.04481
689.51        66.56023
689.94        66.54941
690.36        66.52511
690.78        66.45782
691.21         66.4068
691.63        66.41714
692.06        66.48861
692.48        66.63187
692.90        66.76443
693.33        66.76514
693.75        66.61031
694.17        66.30699
694.60        66.00456
695.02        65.93378
695.44        66.10496
695.87        66.51009
696.29        66.96203
696.71        66.81683
697.14         66.2091
697.56        66.04158
697.98        66.32882
698.41          66.472
698.83        66.28015
699.25        66.36951
699.68        66.60958
700.10        66.70949
700.52         66.6256
700.94        66.43752
701.37        66.23866
701.79        66.25882
702.21        66.54093
702.64        66.68021
703.06        67.14321
703.48        67.31378
703.90        67.30997
704.33        67.17097
704.75        66.95776
705.17        66.74825
705.59        66.58222
706.01        66.44982
706.44        66.37101
706.86        66.39816
707.28        66.52174
707.70        66.72329
708.12        66.96967
708.55        67.19936
708.97        67.38315
709.39        67.49907
709.81        67.53729
710.23        67.52744
710.66        67.47429
711.08         67.3773
711.50        67.24016
711.92        67.09917
712.34        66.97231
712.76        66.86657
713.19        66.79128
713.61         66.7936
714.03        66.86411
714.45        66.99636
714.87        67.16977
715.29        67.35444
715.71        67.52863
716.13        67.67342
716.56        67.76608
716.98        67.86821
717.40        67.94648
717.82        67.99892
718.24        67.97403
718.66        67.78944
719.08        67.46131
719.50        67.05058
719.92        66.68331
720.34        66.54546
720.76         66.6725
721.19        66.97897
721.61        67.40447
722.03        67.79285
722.45        68.06854
722.87        68.25571
723.29        68.31341
723.71        68.18505
724.13        67.88764
724.55         67.4556
724.97        67.00871
725.39        66.72316
725.81        66.65081
726.23        66.78323
726.65        67.07108
727.07        67.28267
727.49        67.58944
727.91        67.83546
728.33        68.07316
728.75        68.27997
729.17        68.44411
729.59        68.53976
730.01        68.56629
730.43        68.54714
730.85        68.49138
731.27        68.40498
731.69        68.28909
732.10        68.13969
732.52        67.96191
732.94        67.77842
733.36        67.64818
733.78        67.52168
734.20         67.3997
734.62        67.56754
735.04         68.0441
735.46        67.54835
735.88        68.10083
736.30        68.15544
736.72        68.33183
737.13        68.66858
737.55        69.00363
737.97        69.09838
738.39        68.90707
738.81        68.40654
739.23        67.81898
739.65          67.881
740.06         68.4529
740.48        68.67999
740.90         68.4903
741.32        68.41154
741.74        68.50346
742.16        68.58253
742.57        68.65583
742.99         68.7567
743.41        68.83608
743.83        68.79893
744.25        68.63635
744.67        68.36686
745.08        68.10227
745.50        68.00426
745.92        68.11427
746.34        68.37198
746.75        68.66008
747.17        68.77625
747.59        68.68833
748.01         68.4687
748.42        68.20692
748.84        68.10081
749.26        68.20467
749.68        68.28461
750.09        68.33291
750.51        68.73421
750.93        69.26947
751.35        69.08701
751.76        68.31764
752.18        67.92554
752.60        67.97594
753.01        67.96146
753.43        67.82446
753.85         67.7387
754.27        67.70815
754.68        67.71368
755.10        67.76851
755.52        67.88257
755.93        68.03181
756.35        68.18195
756.77        68.37172
757.18        68.53592
757.60        68.66222
758.02         69.0349
758.43        69.48307
758.85        68.86072
759.26        68.59127
759.68        67.89941
760.10        67.90271
760.51         68.5644
760.93        68.91998
761.34        68.81751
761.76        68.98164
762.18        68.91197
762.59        68.98589
763.01         69.0532
763.42        69.19335
763.84        69.24807
764.26        69.21657
764.67        69.33606
765.09        69.52413
765.50        69.17361
765.92        68.47778
766.33        68.20967
766.75         68.3456
767.16        68.37531
767.58        68.24139
768.00        68.27856
768.41        68.50694
768.83         68.8345
769.24        69.15179
769.66        69.23099
770.07        69.08929
770.49         68.9198
770.90        68.83884
771.32        69.07496
771.73        69.52043
772.15        69.67976
772.56        69.53674
772.97        69.26712
773.39        68.95515
773.80        69.10928
774.22        68.99229
774.63        69.23363
775.05        69.46838
775.46        69.56406
775.88          69.445
776.29        69.19354
776.70        68.92709
777.12        68.83641
777.53        68.97611
777.95        69.24051
778.36        69.53886
778.77         69.6797
779.19        69.63876
779.60        69.50814
780.02        69.31715
780.43        69.21616
780.84        69.26905
781.26         69.0625
781.67        68.77104
782.09        69.48116
782.50        70.81354
782.91        70.84164
783.33         69.6766
783.74        69.19675
784.15        69.49839
784.57        69.52229
784.98        69.29785
785.39        69.27156
785.81        69.50274
786.22        70.07988
786.63        70.80432
787.04        71.13832
787.46        71.01974
787.87        70.66876
788.28        70.27835
788.70        70.05656
789.11          70.047
789.52        70.21683
789.93        70.45422
790.35        70.54727
790.76        70.46315
791.17        70.29933
791.58        70.13249
792.00        69.98991
792.41        69.91267
792.82        69.99423
793.23        70.17162
793.65        70.07115
794.06        69.80703
794.47        70.01961
794.88        70.58678
795.29         70.8171
795.71         70.6415
796.12        70.45644
796.53        70.35666
796.94        70.34717
797.35        70.46443
797.76        70.71404
798.18        70.97614
798.59        71.10522
799.00        71.03911
799.41        70.81697
799.82        70.55879
800.23        70.46747
800.64        70.58461
801.06        70.81754
801.47        71.07707
801.88          71.118
802.29        70.88312
802.70        70.45617
803.11        69.97405
803.52        69.65593
803.93        69.58572
804.34        69.70819
804.75        69.95681
805.17        70.25926
805.58        70.60767
805.99         70.8234
806.40        70.92948
806.81        71.37678
807.22        71.96428
807.63        71.73376
808.04        70.83707
808.45        70.36308
808.86         70.4202
809.27        70.45174
809.68        70.38862
810.09        70.37592
810.50        70.39539
810.91        70.40845
811.32        70.47225
811.73        70.67525
812.14        71.01769
812.55        71.46152
812.96        71.87344
813.37        72.00864
813.78        71.81042
814.19        71.38057
814.60         70.8704
815.01        70.48229
815.42        70.26953
815.83        70.17426
816.24        70.19095
816.65        70.30026
817.05        70.48121
817.46        70.71645
817.87        70.94505
818.28        71.01891
818.69         70.9135
819.10        70.64492
819.51        70.34931
819.92        70.28555
820.33        70.51471
820.74        70.95527
821.14        71.43349
821.55          71.662
821.96        71.57207
822.37        71.25403
822.78        70.84704
823.19        70.58623
823.60        70.55376
824.00        70.70892
824.41        70.92745
824.82        71.10806
825.23        71.19689
825.64        71.22944
826.04        71.25058
826.45        71.28696
826.86        71.36171
827.27        71.45862
827.68        71.52555
828.08        71.51192
828.49        71.35629
828.90        71.09916
829.31        70.84464
829.72        70.75969
830.12        70.90547
830.53        71.18529
830.94        71.46355
831.35        71.45755
831.75        71.12202
832.16        70.53001
832.57        69.90542
832.97        69.57489
833.38        69.62434
833.79        69.93937
834.20        70.38615
834.60        70.75217
835.01        70.97037
835.42        71.13839
835.82        71.28768
836.23        71.38848
836.64        71.47707
837.04         71.5061
837.45        71.57662
837.86        71.93406
838.26        72.62086
838.67        73.51497
839.08        74.31252
839.48        74.43105
839.89        73.74179
840.29        72.47583
840.70        71.15343
841.11        70.33321
841.51        70.16911
841.92        70.48421
842.33        71.09843
842.73        71.68658
843.14        72.00703
843.54        72.19859
843.95        72.31699
844.35        72.51081
844.76        72.79092
845.17        73.08317
845.57        73.29486
845.98        73.26755
846.38        73.00242
846.79         72.5593
847.19        72.09285
847.60        71.81803
848.00        71.80476
848.41        71.96946
848.81        72.23161
849.22        72.36277
849.62         72.3416
850.03        72.22285
850.43        72.08242
850.84        71.97186
851.24        71.96392
851.65        71.96052
852.05        72.07072
852.46        72.36526
852.86        72.82539
853.27        73.40934
853.67        73.87425
854.07        74.00749
854.48        73.75685
854.88         73.2163
855.29        72.52039
855.69        72.06657
856.10        71.91396
856.50        72.04447
856.90         72.2923
857.31        72.39036
857.71        72.30935
858.12        72.06049
858.52        71.77911
858.92        71.57008
859.33        71.45398
859.73        71.43268
860.13        71.39919
860.54        71.20808
860.94        70.88276
861.34        70.47595
861.75        70.10635
862.15        70.00467
862.55          70.195
862.96        70.55202
863.36        71.01737
863.76        71.40102
864.17        71.61107
864.57        71.73539
864.97        71.67712
865.38        71.29942
865.78        70.64948
866.18        69.76437
866.58        68.93668
866.99        68.68675
867.39        69.15155
867.79        70.15148
868.19         71.3271
868.60        72.10179
869.00         72.3476
869.40        72.18191
869.80        71.76574
870.21        71.43333
870.61        71.38061
871.01        71.44707
871.41        71.50425
871.81        71.37583
872.22        71.01794
872.62        70.50834
873.02         69.9913
873.42        69.68211
873.82        69.64295
874.22        69.80673
874.63        70.00806
875.03        70.00893
875.43        69.74126
875.83        69.28618
876.23        68.81661
876.63        68.59448
877.03        68.68687
877.44        68.99623
877.84        69.38663
878.24        69.63374
878.64        69.62541
879.04        69.29646
879.44        68.88577
879.84        68.85433
880.24        69.24615
880.64        69.88321
881.04        70.42305
881.44        70.33456
881.84        69.52319
882.24        68.19883
882.65        66.80837
883.05        66.02993
883.45        66.04295
883.85        66.66348
884.25         67.5677
884.65        68.19252
885.05        68.35115
885.45        68.20198
885.85        67.95345
886.25        67.92381
886.65        68.19498
887.05        68.64524
887.45        69.10738
887.85        69.33032
888.25        69.24345
888.65        68.93059
889.04        68.56029
889.44        68.41552
889.84        68.53617
890.24        68.82704
890.64        69.10263
891.04        69.06354
891.44        68.66198
891.84        68.04796
892.24        67.39971
892.64        66.96375
893.04        66.82375
893.44        66.91311
893.83        67.22453
894.23        67.68966
894.63        68.26583
895.03         68.9226
895.43        69.57291
895.83        70.08293
896.23        70.38494
896.63        70.46949
897.02        70.31321
897.42         69.9333
897.82         69.3831
898.22        68.73843
898.62        68.09705
899.01        67.57773
899.41        67.24812
899.81        67.07546
900.21        67.11053
900.61        67.41857
901.00        67.96054
901.40        68.67136
901.80        69.34624
902.20        69.66277
902.59        69.55926
902.99        69.12136
903.39         68.5207
903.79        68.05373
904.18        67.81796
904.58        67.74032
904.98        67.81585
905.38        68.03764
905.77        68.37371
906.17        68.85194
906.57         69.3114
906.96        69.47218
907.36        69.27032
907.76        68.79699
908.15        68.32124
908.55         68.2607
908.95        68.71371
909.34        69.55061
909.74         70.4753
910.14        71.09071
910.53        71.23219
910.93        71.02686
911.33        70.57015
911.72        69.99975
912.12        69.46067
912.52        68.93723
912.91        68.46069
913.31        68.09779
913.70        67.87342
914.10        67.76711
914.49        67.88103
914.89        68.27552
915.29        68.94868
915.68        69.85728
916.08        70.71458
916.47        71.12254
916.87        70.99799
917.26        70.42068
917.66        69.74076
918.05         69.3595
918.45        69.38847
918.84        69.76803
919.24        70.24149
919.64        70.49249
920.03        70.43884
920.42        70.14743
920.82        69.87888
921.21        69.97501
921.61        70.47716
922.00         71.2981
922.40        72.09445
922.79        72.42519
923.19        72.13863
923.58        71.42152
923.98        70.57663
924.37        69.97408
924.77        69.73111
925.16        69.69207
925.55        69.77483
925.95        69.81618
926.34        69.76875
926.74        69.69112
927.13        69.52099
927.52        69.07671
927.92        68.41873
928.31        67.60169
928.70        66.88626
929.10        66.64904
929.49        66.94279
929.89        67.59166
930.28        68.48189
930.67        69.28505
931.07        69.82408
931.46        70.24626
931.85        70.37828
932.24        70.01514
932.64        69.22578
933.03        68.05214
933.42        66.97249
933.82        66.67505
934.21        67.28795
934.60        68.69607
934.99        70.36234
935.39        71.28805
935.78        71.22604
936.17        70.33878
936.56        69.22678
936.96        68.85226
937.35        69.42836
937.74        70.64932
938.13        71.86435
938.53        72.07567
938.92        71.09282
939.31        69.31674
939.70        67.42751
940.09        66.38058
940.49        66.36649
940.88        67.13126
941.27        68.23869
941.66        68.89053
942.05        68.83746
942.44        68.37307
942.84        67.81591
943.23        67.64254
943.62        67.98778
944.01        68.60192
944.40        69.37848
944.79        70.19814
945.18        70.93447
945.57        71.60358
945.97        71.92802
946.36        71.54817
946.75        70.42021
947.14        68.78013
947.53        67.04722
947.92         65.8014
948.31          65.211
948.70        65.15434
949.09         65.5587
949.48        66.25874
949.87        67.13603
950.26        68.19788
950.65         69.2888
951.04        70.16248
951.43        70.71145
951.82        70.90146
952.21        70.79832
952.60        70.57126
952.99        70.31194
953.38        70.05309
953.77        69.77129
954.16        69.41115
954.55        68.97873
954.94        68.48079
955.33        68.13696
955.72        68.29993
956.11        69.01334
956.50        70.17825
956.89         71.2825
957.28        71.46576
957.66        70.55479
958.05         68.8873
958.44        67.12247
958.83        66.21777
959.22        66.36391
959.61        67.26759
960.00         68.4825
960.39        69.17347
960.78        69.04175
961.16        68.35484
961.55        67.44337
961.94        66.68153
962.33        66.21519
962.72        65.95553
963.11        65.85475
963.49        65.89746
963.88        65.98229
964.27        66.10104
964.66        66.40118
965.04         67.1284
965.43        68.23106
965.82        69.68506
966.21        70.89863
966.60        70.77764
966.98        69.11823
967.37        66.44328
967.76        63.79378
968.15        62.46951
968.53        62.69175
968.92        64.13611
969.31        66.13853
969.69        67.32827
970.08        67.13354
970.47         65.9975
970.86        64.66666
971.24        64.19775
971.63        64.83173
972.02        66.24883
972.40        67.92158
972.79        68.57844
973.17        67.92039
973.56        66.43674
973.95        64.85657
974.33        64.09872
974.72        64.35946
975.11        65.31074
975.49        66.62976
975.88        67.61295
976.26        68.01332
976.65        68.00477
977.04        67.70032
977.42         67.2311
977.81        66.67669
978.19        65.99008
978.58        65.45623
978.96        65.52499
979.35        66.23652
979.74        67.47754
980.12         68.9675
980.51        69.91096
980.89         70.1824
981.28         69.9864
981.66        69.52616
982.05        69.09081
982.43         68.8119
982.82        68.53674
983.20        68.58485
983.59        69.42839
983.97        71.19244
984.35        73.71802
984.74        76.13455
985.12        77.19532
985.51        76.52688
985.89        74.52702
986.28         72.1667
986.66        70.85052
987.04        71.00272
987.43        72.21564
987.81        73.91236
988.20        74.81396
988.58         74.5059
988.96        73.31503
989.35        71.81087
989.73        70.76018
990.12        70.33862
990.50        70.34454
990.88         70.3312
991.27        69.60471
991.65        68.08421
992.03        66.10889
992.42        64.38519
992.80        63.79056
993.18        64.50215
993.56         66.2915
993.95        68.43462
994.33        69.72298
994.71        69.61449
995.10        68.54793
995.48        67.23416
995.86        66.85466
996.24        67.67732
996.63        69.17641
997.01        71.04405
997.39        72.26126
997.77         72.3822
998.15        71.90047
998.54        70.84207
998.92        69.07835
999.30        66.88492
999.68        64.32277
1000.06        62.34817
1000.45        62.32658
1000.83        64.55444
1001.21        68.83727
1001.59         73.9358
1001.97        76.79433
1002.35        76.25205
1002.73        73.23772
1003.12        69.58289
1003.50        67.63924
1003.88        68.06952
1004.26        70.09921
1004.64        73.17883
1005.02        76.03679
1005.40        77.92177
1005.78        79.34743
1006.16        79.91434
1006.54         78.9716
1006.92        76.72341
1007.30        73.39614
1007.69        70.36738
1008.07        69.51801
1008.45        71.36888
1008.83        75.56743
1009.21        80.89108
1009.59        84.15634
1009.97        83.83427
1010.35        80.84273
1010.73        76.46645
1011.11        72.60615
1011.49        69.94756
1011.86         67.9742
1012.24        66.76435
1012.62        66.36617
1013.00        66.68179
1013.38        67.87228
1013.76        69.54665
1014.14        70.56291
1014.52        70.41749
1014.90        69.27144
1015.28        67.86043
1015.66        67.34502
1016.04        67.94412
1016.41        69.32402
1016.79        70.87158
1017.17        71.55181
1017.55        71.04702
1017.93        69.73893
1018.31        68.21107
1018.69        67.20659
1019.06        66.94445
1019.44        67.28055
1019.82        67.85579
1020.20        67.90419
1020.58        67.16048
1020.95        65.80356
1021.33        64.70232
1021.71        64.73228
1022.09        66.04539
1022.46        68.73153
1022.84        71.72257
1023.22        72.48801
1023.60        70.22154
1023.97        65.69238
1024.35        61.69235
1024.73        61.43695
