SpectraSmart Spectrum 2.9.0.0
--------- Device Information -----------
Spectrum Name :  反射率_0
Saving Time :  2024/04/26 23:48:33
Spectro-Module Model Name : SE2030-DUVN
Spectro-Module Serial Number : OS361AC55029948
Wavelength Start : 200
Wavelength End : 1025
Wavelength Unit : Wavelength(nm)
Spectrum Unit : Reflectance(%)
-----------Spectrum Setting ------------
Integration Time : 20ms
Average : 10
Boxcar : 0
Background removal :  enabled
linearity correction :  enabled
SC :  disabled
Intensity correction :  disabled
DWT denoise :  enabled
savitzky-golay :  disabled
FFT :  disabled
Running average :  disabled
Kalman :  disabled
High pass :  disabled
---------------BEGIN--------------------
Wavelength(nm)             Reflectance(%)
200.29               0
200.75        49.61099
201.21        47.28078
201.67        44.73638
202.13        42.94659
202.58        41.89982
203.04        41.36185
203.50        41.83175
203.96        44.37055
204.42        49.25161
204.88        56.21632
205.34        62.73435
205.80        64.60155
206.26        61.20471
206.72        54.38341
207.18        47.31528
207.64        42.23265
208.10        38.90761
208.55        36.65644
209.01        34.75734
209.47        33.36799
209.93        33.08842
210.39        33.94059
210.85         35.6223
211.31        38.58665
211.77        44.14729
212.23        56.14367
212.69          85.672
213.14        136.7105
213.60        136.5692
214.06        101.5808
214.52        77.80755
214.98        68.06407
215.44        65.02204
215.90        64.13075
216.36        63.88194
216.81        62.31773
217.27        58.80626
217.73         54.0798
218.19        47.31194
218.65          39.812
219.11        35.77526
219.57        35.07673
220.02        36.88887
220.48        41.57579
220.94        49.58873
221.40        62.59976
221.86        80.54829
222.32        92.54936
222.77        88.38486
223.23        75.19591
223.69        61.18904
224.15        50.93244
224.61        44.15565
225.06        39.33942
225.52        36.28493
225.98        34.66108
226.44        34.11594
226.90         34.4746
227.36        35.45663
227.81        36.51261
228.27        37.35273
228.73        37.80603
229.19        37.82664
229.65        37.40375
230.10         36.6062
230.56        35.59535
231.02        34.29362
231.48        32.70776
231.93        30.99874
232.39        29.37688
232.85        28.36582
233.31        28.68652
233.77         30.2595
234.22        32.87289
234.68        35.53302
235.14        36.74814
235.60        36.14365
236.05        34.03271
236.51        31.36832
236.97        30.20791
237.43        31.38156
237.88        34.43962
238.34        38.36489
238.80        41.66411
239.26        43.90223
239.71        45.73991
240.17        47.39148
240.63        49.75288
241.08        53.40036
241.54        57.63704
242.00        62.64476
242.46        69.43133
242.91        79.67281
243.37        94.92647
243.83           116.9
244.28        139.9826
244.74         150.881
245.20        144.9465
245.66        130.4887
246.11        117.3761
246.57        107.5494
247.03        99.17536
247.48        89.82973
247.94        77.98061
248.40        66.90299
248.85        58.44682
249.31        53.72413
249.77        52.60567
250.22        54.25031
250.68         58.5843
251.14        64.49225
251.59        67.50917
252.05         65.5793
252.51        61.05193
252.96        56.20596
253.42        53.55765
253.88        52.99921
254.33         53.0002
254.79        54.30082
255.25        57.29908
255.70        61.47231
256.16        66.52761
256.62        69.95422
257.07        68.20374
257.53        62.96247
257.99        56.81141
258.44         51.6757
258.90        49.27108
259.35        48.63479
259.81        49.09234
260.27        49.63339
260.72        49.14677
261.18        47.79376
261.63        45.89734
262.09        44.22083
262.55        43.15484
263.00        42.58895
263.46         42.3703
263.91        42.03728
264.37        41.25147
264.83         40.0011
265.28        38.48637
265.74        37.12014
266.19        36.15934
266.65        35.68139
267.11        35.47731
267.56        35.39707
268.02        35.21163
268.47        34.83604
268.93        34.35513
269.38        33.73778
269.84        32.97978
270.30        32.09454
270.75        31.08543
271.21        30.08471
271.66        29.25162
272.12         28.6249
272.57        28.15202
273.03        27.74277
273.48        27.23945
273.94        26.64269
274.39        25.98207
274.85        25.36285
275.31         24.8223
275.76        24.35402
276.22        23.95372
276.67        23.58391
277.13        23.25407
277.58        22.92655
278.04        22.62719
278.49        22.30129
278.95        21.95631
279.40        21.56109
279.86        21.17161
280.31        20.78322
280.77        20.46418
281.22         20.1935
281.68        19.98196
282.13        19.79516
282.59        19.64398
283.04        19.49835
283.50        19.36442
283.95        19.21973
284.41        19.03385
284.86        18.81459
285.32        18.60819
285.77        18.42616
286.22        18.32401
286.68        18.31544
287.13        18.35516
287.59        18.47198
288.04        18.67542
288.50         18.9575
288.95        19.27641
289.41        19.55978
289.86        19.65459
290.32        19.57922
290.77        19.39217
291.22        19.21734
291.68        19.22957
292.13        19.47298
292.59        19.91512
293.04        20.52257
293.50        21.25038
293.95         22.0596
294.40        22.96531
294.86        23.93286
295.31        24.89672
295.77        25.85506
296.22        26.81655
296.68         27.8282
297.13        28.96043
297.58        30.24062
298.04        31.64833
298.49        33.17031
298.95        34.79524
299.40        36.49049
299.85        38.25242
300.31        40.03191
300.76        41.74235
301.21        43.37458
301.67        44.96279
302.12        46.53832
302.58        48.22537
303.03         50.0113
303.48        51.88824
303.94        53.82049
304.39        55.70157
304.84        57.53316
305.30        59.34893
305.75        61.16093
306.20        63.06373
306.66        65.07008
307.11        67.10703
307.57          69.095
308.02        70.82564
308.47        72.29264
308.93        73.56598
309.38         74.7697
309.83         76.1979
310.29        77.90916
310.74        79.80923
311.19        81.69537
311.65        83.20647
312.10        84.23159
312.55        84.87381
313.00        85.36318
313.46        86.06445
313.91        87.04881
314.36        88.23626
314.82        89.43296
315.27        90.33842
315.72        90.85583
316.18        91.10803
316.63        91.25188
317.08        91.57227
317.53          92.143
317.99        92.86666
318.44         93.6125
318.89        94.14072
319.35        94.38796
319.80         94.4431
320.25        94.43475
320.70        94.56587
321.16        94.88974
321.61        95.37389
322.06        95.91201
322.51        96.34028
322.97        96.59563
323.42        96.73059
323.87         96.8529
324.32        97.15775
324.78         97.6506
325.23        98.33448
325.68         98.9763
326.13        99.20943
326.59        98.95901
327.04        98.37507
327.49        97.75378
327.94        97.58728
328.39        97.99701
328.85        98.81239
329.30        99.86917
329.75        100.6289
330.20        100.9113
330.66        100.8343
331.11        100.6507
331.56        100.7028
332.01        101.0989
332.46        101.7042
332.92        102.3203
333.37        102.7759
333.82        102.9459
334.27        102.9449
334.72        102.8707
335.17        102.8607
335.63        102.9714
336.08          103.22
336.53        103.6176
336.98        104.2252
337.43        105.0292
337.88        105.9828
338.34        106.9791
338.79        107.9475
339.24        108.7715
339.69        109.4529
340.14        109.9078
340.59        110.0314
341.05        109.8721
341.50        109.4879
341.95        109.0991
342.40        109.0377
342.85        109.3877
343.30        110.0592
343.75         110.917
344.20        111.7169
344.66        112.3585
345.11        112.8906
345.56        113.2904
346.01        113.5354
346.46        113.6532
346.91        113.6561
347.36        113.6242
347.81        113.7054
348.26        113.9241
348.72        114.2224
349.17        114.5664
349.62        114.9297
350.07        115.2751
350.52        115.6292
350.97        115.8264
351.42        115.6059
351.87        114.9623
352.32        113.9952
352.77        113.0514
353.22        112.6389
353.67        112.8451
354.13        113.5194
354.58        114.3172
355.03        114.6158
355.48        114.2479
355.93        113.3909
356.38        112.4003
356.83        111.8158
357.28        111.7433
357.73        111.9867
358.18        112.2254
358.63        111.9576
359.08        111.0683
359.53        109.7529
359.98        108.2967
360.43         107.098
360.88        106.2577
361.33        105.6573
361.78        105.1306
362.23        104.4225
362.68        103.4834
363.13        102.4268
363.58         101.395
364.03        100.5856
364.48        100.0331
364.93        99.64244
365.38        99.30845
365.83        98.87903
366.28        98.30376
366.73        97.63538
367.18          96.897
367.63        96.11966
368.08        95.32805
368.53        94.51513
368.98        93.72216
369.43        93.01696
369.88        92.41034
370.33         91.8866
370.78        91.40179
371.23        90.87977
371.68        90.29753
372.13        89.67307
372.58        89.02766
373.03         88.3961
373.48        87.78396
373.93        87.17077
374.38        86.54773
374.83        85.90952
375.28        85.25837
375.72         84.5905
376.17        83.95141
376.62        83.30249
377.07        82.65581
377.52        82.03945
377.97        81.48481
378.42         81.0538
378.87        80.75441
379.32        80.53185
379.77        80.38993
380.22        80.33493
380.67        80.33036
381.11        80.38757
381.56        80.30048
382.01        79.82929
382.46        78.97775
382.91        77.88551
383.36        76.82547
383.81        76.16386
384.26        75.95213
384.71        76.06126
385.15        76.33083
385.60        76.46935
386.05         76.3728
386.50        76.11536
386.95        75.71191
387.40        75.19546
387.85        74.61486
388.29        73.93212
388.74        73.31431
389.19        72.80531
389.64        72.41443
390.09         72.1189
390.54        71.89577
390.98        71.68439
391.43         71.5025
391.88        71.35133
392.33        71.20946
392.78        71.03932
393.23        70.83616
393.67        70.58991
394.12        70.39266
394.57        70.20794
395.02        70.05473
395.47        69.99033
395.91        69.98554
396.36        69.88366
396.81        69.69287
397.26        69.49607
397.71        69.28472
398.15        69.03319
398.60        68.82779
399.05        68.48763
399.50          68.106
399.95        68.11185
400.39        68.38604
400.84         68.1729
401.29        67.50343
401.74        67.05638
402.18        66.88445
402.63         66.5718
403.08        66.20615
403.53        66.08321
403.97        66.20982
404.42        66.49882
404.87        66.79487
405.32        66.84262
405.76        66.58582
406.21        66.15285
406.66        65.67999
407.11        65.39119
407.55        65.39121
408.00        65.54305
408.45        65.76771
408.90        66.10963
409.34          66.351
409.79        65.94623
410.24        65.12792
410.68        64.74508
411.13        64.88033
411.58        65.09431
412.03        65.23792
412.47        65.24902
412.92        65.05676
413.37        64.72785
413.81        64.38656
414.26        64.26897
414.71        64.39385
415.15        64.71564
415.60        65.10486
416.05        65.40417
416.49        65.55488
416.94        65.59517
417.39        65.57896
417.83         65.5777
418.28        65.62311
418.73        65.68431
419.17        65.76019
419.62        65.85907
420.07        65.96432
420.51        66.05155
420.96        66.12894
421.41        66.13453
421.85        66.04135
422.30        65.98882
422.74        65.90273
423.19        65.67046
423.64        65.32398
424.08        65.12155
424.53        65.12594
424.98        65.25417
425.42        65.51285
425.87        66.04256
426.31         66.6516
426.76        66.73465
427.21        66.34148
427.65          66.075
428.10        66.01919
428.54        65.97448
428.99        66.02248
429.44        66.06188
429.88        66.16825
430.33        66.87309
430.77        67.82244
431.22        68.13993
431.66        67.81857
432.11        67.40581
432.56         67.1174
433.00        67.18942
433.45        67.67857
433.89        68.13043
434.34        68.08037
434.78        68.92313
435.23        68.18479
435.67        66.90772
436.12        67.16727
436.57        67.27869
437.01        67.82615
437.46        68.11032
437.90        68.15142
438.35        67.67712
438.79        68.02424
439.24        68.10279
439.68        68.26942
440.13        68.57836
440.57        69.00117
441.02        69.15677
441.46        69.05797
441.91        69.47002
442.35        70.10393
442.80        69.94651
443.24        69.18558
443.69        69.21447
444.13        69.96382
444.58        70.42224
445.02        70.32798
445.47        70.50987
445.91         70.8765
446.36         71.1236
446.80        71.22277
447.24        71.25694
447.69        71.28432
448.13         71.3736
448.58        71.55325
449.02        71.76559
449.47        71.96416
449.91        72.04366
450.36         72.0085
450.80        71.88199
451.25         71.7381
451.69        71.62936
452.13        71.59623
452.58        71.61184
453.02        71.67213
453.47        71.77896
453.91        71.90623
454.36        72.05764
454.80        72.17828
455.24        72.09843
455.69          71.803
456.13        71.50613
456.58        71.29904
457.02        70.64973
457.46        70.29153
457.91        70.47406
458.35        71.06438
458.79        71.03792
459.24        70.39754
459.68        69.58725
460.13        68.90324
460.57        68.63585
461.01        68.92265
461.46         69.1161
461.90        69.65842
462.34        70.47608
462.79        70.39243
463.23        70.47602
463.68        70.33289
464.12        70.06286
464.56        69.65889
465.01        69.07591
465.45        68.44785
465.89        68.15954
466.34        68.13292
466.78        68.30112
467.22        68.67258
467.67        67.79108
468.11        68.02469
468.55        68.09553
468.99        68.56212
469.44        68.65415
469.88        68.35464
470.32        68.05614
470.77        67.83697
471.21        67.70657
471.65        67.68016
472.10         67.7467
472.54        67.87152
472.98        67.95601
473.42        67.95315
473.87         68.0739
474.31        68.18036
474.75        67.72042
475.20        66.91586
475.64        66.71508
476.08        67.10613
476.52        67.13086
476.97        66.71265
477.41        66.71284
477.85        67.18896
478.29        66.64939
478.74        67.19118
479.18        67.89139
479.62        67.23729
480.06         67.2627
480.50        67.34612
480.95        67.32243
481.39          67.133
481.83        67.08328
482.27        66.92149
482.72        66.96828
483.16        66.87067
483.60        66.87039
484.04        66.89812
484.48        67.13039
484.93        67.34211
485.37        67.31516
485.81        66.69073
486.25        66.29878
486.69        66.77235
487.14        67.74208
487.58        66.79924
488.02        67.08541
488.46        65.92614
488.90        66.00549
489.34        67.42764
489.79          67.957
490.23        67.63738
490.67        66.98658
491.11        66.32732
491.55        66.14955
491.99         66.4192
492.43        66.39548
492.88         66.0687
493.32        66.03274
493.76        66.29186
494.20        66.49055
494.64        66.58997
495.08        66.74412
495.52        66.88554
495.96         66.8056
496.41        66.56256
496.85        66.40828
497.29         66.2922
497.73        66.47274
498.17        66.08586
498.61        65.98987
499.05        65.94983
499.49        66.14326
499.93        66.27676
500.37        66.37579
500.82        66.35294
501.26        66.35976
501.70        66.39207
502.14        66.34663
502.58        66.28167
503.02        66.32922
503.46        66.50053
503.90        66.76246
504.34        67.00165
504.78        67.02615
505.22        66.80265
505.66        66.39928
506.10        65.95962
506.54        65.71571
506.98        65.71761
507.42        65.87622
507.86        66.10262
508.30        66.24481
508.74        66.24759
509.18        66.19507
509.62        66.13648
510.06        65.91775
510.50        65.94069
510.94        65.87669
511.38        65.84023
511.82        65.83152
512.26        65.85283
512.70         65.9062
513.14        65.97411
513.58        66.03236
514.02        66.07145
514.46        66.09097
514.90        66.10394
515.34        66.13544
515.78        66.18655
516.22        66.24484
516.66         66.2863
517.10        66.27332
517.54        66.20293
517.98        66.09754
518.42         65.9827
518.86        65.89761
519.30        65.85678
519.74        65.84709
520.18        65.87508
520.62        65.94831
521.06        66.06158
521.50        66.21542
521.93        66.37104
522.37        66.44357
522.81        66.42568
523.25        66.33259
523.69        66.22785
524.13          66.216
524.57        66.31212
525.01        66.47575
525.45         66.6357
525.89        66.67547
526.32        66.56284
526.76        66.36337
527.20        66.12173
527.64        65.91315
528.08          65.767
528.52        65.65707
528.96        65.60207
529.40        65.63062
529.83        65.73291
530.27        65.91051
530.71        66.08457
531.15        66.13246
531.59         66.0344
532.03        65.82349
532.46        65.58419
532.90        65.50038
533.34        65.59391
533.78        65.76562
534.22        65.93473
534.66        66.05898
535.09         66.0592
535.53        65.82848
535.97         65.4379
536.41        65.16851
536.85        65.06441
537.28        64.98813
537.72        64.95435
538.16        65.03789
538.60        65.22372
539.04        65.48547
539.47        65.72621
539.91        65.83601
540.35        65.77843
540.79        65.59386
541.22        65.35483
541.66         65.2037
542.10        65.17275
542.54        65.22272
542.97        65.30738
543.41        65.38275
543.85        65.42024
544.29        65.44704
544.72        65.45155
545.16        65.45262
545.60         65.4412
546.04        65.41263
546.47        65.39251
546.91        65.42003
547.35        65.49497
547.79        65.61063
548.22        65.71566
548.66         65.7113
549.10        65.65796
549.53        65.55594
549.97        65.45258
550.41        65.28201
550.84        65.13712
551.28        65.17762
551.72        65.32625
552.15        65.50164
552.59        65.75599
553.03        65.16873
553.46        65.71533
553.90        65.60183
554.34         65.5739
554.77        65.49435
555.21        65.45271
555.65        65.45808
556.08        65.49076
556.52        65.51511
556.96        65.51694
557.39        65.61588
557.83        65.75079
558.27         65.6198
558.70        65.30869
559.14        65.02912
559.57        65.27525
560.01        65.27516
560.45        65.19628
560.88        65.25185
561.32        65.44587
561.75        65.66958
562.19        65.85474
562.63        65.72292
563.06          65.369
563.50        65.33454
563.93        65.53883
564.37        65.58683
564.80        65.49362
565.24        65.36097
565.68        65.07056
566.11         65.7587
566.55        65.07024
566.98        64.91317
567.42        64.74549
567.85        64.91738
568.29        65.37366
568.72        65.72286
569.16        65.97973
569.60        66.09662
570.03        66.16404
570.47        66.27903
570.90        66.37879
571.34        65.72701
571.77         66.0397
572.21          66.081
572.64        65.96036
573.08        66.35893
573.51         65.7603
573.95        65.84888
574.38        66.28551
574.82        66.28858
575.25        65.78165
575.69        65.75068
576.12        65.87018
576.56        65.46188
576.99        65.39029
577.42        65.60984
577.86        65.63857
578.29         66.3579
578.73        66.06239
579.16        66.01086
579.60        65.71872
580.03        65.91683
580.47        65.66316
580.90        66.24053
581.33        66.06979
581.77        66.45507
582.20        65.84268
582.64        66.43095
583.07        65.87032
583.51        65.50797
583.94        65.80997
584.37        65.93761
584.81        66.13692
585.24        66.07259
585.68        65.79196
586.11        66.08305
586.54        65.90498
586.98        65.56303
587.41        65.14712
587.85        65.44273
588.28        65.24441
588.71        65.31911
589.15        65.08796
589.58        65.43288
590.01         65.5438
590.45        65.38663
590.88        66.15409
591.31         65.9773
591.75        65.45071
592.18        65.25879
592.61         65.4975
593.05        65.93069
593.48         66.4979
593.91        66.15091
594.35        65.64868
594.78        65.23579
595.21        65.22215
595.65        65.48315
596.08        66.06055
596.51        66.26847
596.94        65.91721
597.38        65.74252
597.81        65.63345
598.24        66.30135
598.68        65.89457
599.11        65.40319
599.54        66.46689
599.97         65.9783
600.41        65.84084
600.84          65.339
601.27        65.83683
601.70        65.66704
602.14        65.92182
602.57        65.71131
603.00        65.52538
603.43        64.91801
603.87        66.06263
604.30         66.0948
604.73         65.7284
605.16        65.23628
605.60        65.08324
606.03        64.88968
606.46        64.74787
606.89        65.03076
607.32        65.58624
607.76        65.43296
608.19        65.78095
608.62        65.64427
609.05        65.54768
609.48        65.49205
609.92        66.31136
610.35        66.10139
610.78        65.32422
611.21        65.24506
611.64        65.20686
612.07        65.43743
612.50        65.33793
612.94         65.3896
613.37        65.44941
613.80        65.46952
614.23        65.08569
614.66        65.15559
615.09        65.52209
615.52        65.69132
615.96        65.56824
616.39        65.68375
616.82        65.59972
617.25        65.32888
617.68         64.9095
618.11        65.12959
618.54        65.32963
618.97        65.45898
619.40        65.28722
619.84        65.47453
620.27        65.40303
620.70        65.45311
621.13        65.43491
621.56        65.05396
621.99        64.65374
622.42        64.42806
622.85        64.61153
623.28        64.21375
623.71        64.31923
624.14        64.84769
624.57        65.11467
625.00        64.69333
625.43        65.13245
625.86        65.05659
626.29        65.08038
626.72        64.55161
627.15        64.88894
627.58        64.81455
628.01        64.64449
628.44         64.8662
628.87         64.6973
629.30        64.38801
629.73        64.44996
630.16        64.43848
630.59        64.56818
631.02        64.78866
631.45        65.04607
631.88        65.21763
632.31        65.25893
632.74        65.20132
633.17         65.0713
633.60        64.91994
634.03        64.77534
634.46        64.62773
634.89         64.4809
635.32        64.35571
635.75        64.26394
636.18        64.13966
636.61        64.03258
637.04        64.05627
637.47        64.21471
637.89        64.46009
638.32        64.68698
638.75        64.78692
639.18        64.72703
639.61        64.54014
640.04        64.30927
640.47        64.16418
640.90        64.14114
641.33        64.21714
641.76        64.34026
642.18        64.37675
642.61        64.36516
643.04        64.27741
643.47        64.18509
643.90        64.15667
644.33        64.20757
644.76        64.31055
645.18        64.41827
645.61        64.44134
646.04        64.37021
646.47        64.24176
646.90        64.10946
647.33        64.04369
647.75        64.03519
648.18        64.12227
648.61        64.30755
649.04        64.32023
649.47        64.08652
649.89        64.71949
650.32        64.45956
650.75        64.34842
651.18        63.98492
651.61        64.00124
652.03        64.41298
652.46        64.56498
652.89        64.35077
653.32        64.62823
653.74        64.76506
654.17        64.08924
654.60        64.62849
655.03        64.87099
655.46        63.58865
655.88        63.92911
656.31        66.12079
656.74        66.44887
657.16        66.56087
657.59        66.79188
658.02        64.91105
658.45        65.26035
658.87        64.40285
659.30        64.50576
659.73        64.40467
660.15        65.46811
660.58        64.48204
661.01        64.32421
661.44        64.21316
661.86        64.01149
662.29        63.71093
662.72        64.22098
663.14        64.24025
663.57         64.2186
664.00        63.89736
664.42        63.89305
664.85        64.22691
665.27        64.55284
665.70        64.73616
666.13        64.78801
666.55        64.68881
666.98         64.3681
667.41        63.91447
667.83        63.89357
668.26        63.68583
668.69        63.78734
669.11        63.95567
669.54        64.11453
669.96        64.23405
670.39        64.33163
670.82        64.42014
671.24        64.48891
671.67        64.53429
672.09        64.53725
672.52        64.51453
672.94         64.4565
673.37        64.37459
673.80        64.26981
674.22        64.17107
674.65        64.08826
675.07        64.04671
675.50        64.03507
675.92        64.03995
676.35         64.0238
676.77         63.9812
677.20        63.91956
677.62        63.86678
678.05        63.86781
678.47        63.92611
678.90        64.02724
679.32        64.13113
679.75        64.18896
680.17        64.18575
680.60          64.142
681.02        64.08685
681.45        64.07255
681.87        64.12621
682.30        64.18736
682.72        64.25771
683.15        64.38287
683.57        64.52618
684.00        64.49391
684.42        64.34351
684.85        64.34122
685.27        64.49803
685.70        64.67766
686.12        64.78888
686.54        64.84396
686.97        64.83588
687.39        64.62651
687.82        64.22565
688.24        64.50184
688.66        64.15947
689.09         64.2381
689.51         64.3223
689.94        64.37727
690.36        64.38298
690.78        64.35561
691.21        64.34802
691.63        64.39879
692.06         64.5182
692.48        64.69363
692.90        64.84316
693.33        64.84467
693.75        64.68143
694.17        64.37249
694.60        64.05468
695.02        63.96915
695.44        64.13731
695.87        64.45602
696.29        64.80324
696.71        64.86973
697.14        64.68575
697.56         64.5974
697.98        64.64494
698.41        64.70355
698.83        64.61535
699.25        64.69242
699.68        64.81435
700.10        64.83615
700.52        64.71876
700.94        64.52618
701.37        64.34628
701.79         64.3179
702.21        64.46131
702.64        64.71381
703.06        64.98999
703.48        65.13411
703.90        65.10338
704.33        64.94823
704.75         64.7291
705.17         64.5357
705.59        64.41126
706.01        64.33293
706.44        64.30826
706.86        64.37643
707.28         64.5231
707.70        64.70963
708.12        64.90848
708.55         65.1283
708.97        65.31808
709.39        65.31843
709.81        65.16589
710.23        65.09772
710.66        65.14059
711.08        65.18649
711.50        65.18931
711.92        65.14528
712.34        65.05109
712.76        64.92625
713.19         64.7943
713.61        64.72799
714.03        64.73377
714.45        64.79953
714.87        64.92156
715.29         65.0952
715.71        65.30257
716.13        65.52328
716.56        65.70887
716.98          65.869
717.40        65.95407
717.82        65.96832
718.24        65.88744
718.66        65.67689
719.08        65.36292
719.50        64.99272
719.92        64.65779
720.34        64.48975
720.76        64.51757
721.19        64.67987
721.61         64.9614
722.03        65.28176
722.45        65.58556
722.87        65.87075
723.29        66.05994
723.71        66.03566
724.13        65.79179
724.55        65.37668
724.97        64.90692
725.39        64.58415
725.81         64.4737
726.23        64.50801
726.65        64.64357
727.07        64.94521
727.49        65.13949
727.91         65.4244
728.33        65.69825
728.75        65.91163
729.17        66.04119
729.59        66.08413
730.01        66.05105
730.43        65.97146
730.85        65.86284
731.27        65.72273
731.69        65.58017
732.10        65.47464
732.52        65.41521
732.94        65.41586
733.36         65.4657
733.78        65.40964
734.20        65.22265
734.62        65.18214
735.04        65.40529
735.46        64.85981
735.88        65.48201
736.30        65.67793
736.72        65.97311
737.13         66.2205
737.55        66.33627
737.97         66.5068
738.39         66.6439
738.81        66.29983
739.23        65.64841
739.65        65.58736
740.06        66.04581
740.48        66.23727
740.90        66.10928
741.32        66.13817
741.74        66.34385
742.16        66.50293
742.57        66.60001
742.99        66.67473
743.41        66.70239
743.83        66.63005
744.25        66.46128
744.67        66.20486
745.08         65.9576
745.50        65.85602
745.92        65.93955
746.34        66.16388
746.75        66.42986
747.17        66.56039
747.59        66.51642
748.01         66.3494
748.42        66.13846
748.84        66.01633
749.26        66.01792
749.68        66.08089
750.09        66.15844
750.51        66.21069
750.93        66.20061
751.35        66.10733
751.76        65.93991
752.18        65.76737
752.60         65.6023
753.01        65.43045
753.43        65.26588
753.85        65.18027
754.27        65.19173
754.68        65.28697
755.10         65.4464
755.52        65.63078
755.93        65.80615
756.35        65.97037
756.77        66.15093
757.18         66.2262
757.60        66.17291
758.02         66.3387
758.43        66.71098
758.85        65.85926
759.26        66.10534
759.68        65.78741
760.10         65.5786
760.51          66.113
760.93        66.35631
761.34        66.19572
761.76        66.72923
762.18        66.72623
762.59        66.67745
763.01        66.69296
763.42        66.84031
763.84        66.82903
764.26        66.66696
764.67         66.5263
765.09        66.45266
765.50        66.29688
765.92        66.12963
766.33        66.06226
766.75        66.04514
767.16        66.07944
767.58        66.11739
768.00         66.1219
768.41        66.14238
768.83        66.38463
769.24         66.7344
769.66        66.77527
770.07        66.53551
770.49        66.28973
770.90        66.17821
771.32        66.49081
771.73        67.07487
772.15         67.2397
772.56        66.94313
772.97        66.53065
773.39        66.19444
773.80        66.12798
774.22        66.36234
774.63         66.8454
775.05        67.35882
775.46        67.65216
775.88        67.61285
776.29        67.33116
776.70        66.95313
777.12        66.74915
777.53        66.80363
777.95        66.99669
778.36        67.24513
778.77         67.3715
779.19        67.34026
779.60        67.23812
780.02        67.09121
780.43        66.97991
780.84        66.94669
781.26        66.77159
781.67        66.57801
782.09        66.94349
782.50        67.69435
782.91        67.88439
783.33        67.49377
783.74        67.33105
784.15        67.41304
784.57        67.23992
784.98        66.92333
785.39        66.88074
785.81        67.14992
786.22        67.61333
786.63        68.11106
787.04        68.38403
787.46        68.38376
787.87        68.17342
788.28        67.89825
788.70        67.76266
789.11        67.79384
789.52        67.94661
789.93        68.13653
790.35        68.21796
790.76        68.16413
791.17        68.02433
791.58        67.85921
792.00        67.70739
792.41        67.60247
792.82        67.61774
793.23        67.72436
793.65        67.61014
794.06        67.39885
794.47        67.72368
794.88        68.38532
795.29        68.57192
795.71        68.20096
796.12        67.70118
796.53        67.28184
796.94        67.16085
797.35        67.43616
797.76        68.05107
798.18        68.74014
798.59        69.11202
799.00        69.03642
799.41        68.62475
799.82        68.10124
800.23        67.84297
800.64        67.94822
801.06        68.26692
801.47        68.66692
801.88        68.83772
802.29        68.69006
802.70        68.33229
803.11        67.89372
803.52        67.57573
803.93        67.46466
804.34        67.50213
804.75        67.64336
805.17        67.87867
805.58        68.21996
805.99        68.42544
806.40        68.50753
806.81        69.04272
807.22        69.75429
807.63        69.35447
808.04        68.09771
808.45        67.53684
808.86        67.82088
809.27        68.15667
809.68         68.3583
810.09        68.46574
810.50        68.41031
810.91        68.18954
811.32        67.96424
811.73        67.98878
812.14        68.31345
812.55        68.85686
812.96        69.43571
813.37        69.70484
813.78        69.56322
814.19        69.14423
814.60        68.61345
815.01        68.19018
815.42        67.93459
815.83        67.77467
816.24        67.70779
816.65        67.73129
817.05        67.83596
817.46        68.01567
817.87        68.20586
818.28        68.24625
818.69        68.10957
819.10        67.81248
819.51        67.50874
819.92        67.48672
820.33        67.80798
820.74        68.37752
821.14        68.97797
821.55        69.25506
821.96        69.12963
822.37        68.71571
822.78        68.19998
823.19        67.90105
823.60        67.92374
824.00        68.19357
824.41        68.56227
824.82        68.88156
825.23        69.06877
825.64        69.16902
826.04        69.19704
826.45        69.13131
826.86        69.00032
827.27        68.81553
827.68        68.59032
828.08        68.38731
828.49        68.18404
828.90        67.98796
829.31        67.88335
829.72         67.9971
830.12        68.35782
830.53        68.87477
830.94         69.3461
831.35        69.37959
831.75        68.91119
832.16        68.04618
832.57        67.10358
832.97         66.5718
833.38        66.57935
833.79        66.96469
834.20        67.54134
834.60        68.00783
835.01        68.26292
835.42        68.43298
835.82        68.53979
836.23        68.53783
836.64        68.47356
837.04         68.3094
837.45        68.19322
837.86        68.44681
838.26        69.13239
838.67         70.1127
839.08         71.0701
839.48        71.38268
839.89        70.89356
840.29        69.83911
840.70        68.69655
841.11        67.97763
841.51        67.83614
841.92        68.09772
842.33        68.64963
842.73        69.29369
843.14        69.81285
843.54        70.29775
843.95        70.69396
844.35        70.97353
844.76        71.10854
845.17        71.08533
845.57        70.90302
845.98        70.55618
846.38        70.10435
846.79        69.57461
847.19        69.09556
847.60        68.83611
848.00         68.8451
848.41        69.05628
848.81        69.38333
849.22         69.5877
849.62        69.63142
850.03         69.5453
850.43        69.39552
850.84        69.23083
851.24        69.12376
851.65        68.99721
852.05        68.93766
852.46         68.9904
852.86        69.16002
853.27        69.42785
853.67         69.6593
854.07        69.77554
854.48         69.7325
854.88        69.58424
855.29        69.31989
855.69         69.0615
856.10        68.79162
856.50         68.5593
856.90        68.37091
857.31        68.25564
857.71        68.27135
858.12          68.355
858.52        68.50314
858.92         68.5901
859.33        68.56085
859.73        68.47841
860.13        68.33592
860.54        68.15166
860.94        67.98692
861.34        67.82993
861.75        67.69521
862.15        67.65208
862.55        67.69019
862.96        67.75242
863.36        67.87856
863.76        68.04414
864.17        68.21374
864.57        68.42192
864.97        68.52509
865.38        68.31385
865.78        67.79781
866.18        67.03121
866.58          66.281
866.99        66.01863
867.39        66.37966
867.79        67.20833
868.19        68.18757
868.60         68.8094
869.00        68.96797
869.40        68.76353
869.80         68.3848
870.21        68.20257
870.61        68.39308
871.01        68.77145
871.41        69.11253
871.81         69.1094
872.22        68.70393
872.62        68.01191
873.02        67.26583
873.42        66.84127
873.82        66.85366
874.22        67.19379
874.63        67.63844
875.03        67.85234
875.43        67.73119
875.83        67.37724
876.23        66.97863
876.63        66.82642
877.03        66.98549
877.44        67.32634
877.84        67.69202
878.24        67.83405
878.64        67.65051
879.04         67.1222
879.44         66.4899
879.84        66.21304
880.24        66.35377
880.64        66.72633
881.04        67.10804
881.44        67.16486
881.84        66.81512
882.24        66.19363
882.65        65.50444
883.05        65.05063
883.45        64.92699
883.85        65.04292
884.25        65.31436
884.65        65.59595
885.05        65.81884
885.45          66.021
885.85        66.19568
886.25        66.33245
886.65        66.43243
887.05        66.47549
887.45         66.4719
887.85        66.45717
888.25        66.43736
888.65         66.4081
889.04        66.35453
889.44         66.2752
889.84        66.16448
890.24        66.04282
890.64        65.92141
891.04        65.82102
891.44        65.74848
891.84        65.68882
892.24        65.66897
892.64        65.72024
893.04        65.85291
893.44        66.09211
893.83        66.36434
894.23        66.49296
894.63        66.46459
895.03         66.2792
895.43        66.14597
895.83        66.42161
896.23        67.13071
896.63        68.12608
897.02        68.99597
897.42        69.10952
897.82        68.36385
898.22        67.03838
898.62        65.55043
899.01        64.51295
899.41        64.11684
899.81         64.1605
900.21        64.52585
900.61        65.01178
901.00        65.49839
901.40        66.03869
901.80        66.49631
902.20        66.63562
902.59        66.44029
902.99        65.95737
903.39         65.3834
903.79        65.07159
904.18        65.10397
904.58        65.36735
904.98        65.78539
905.38        66.23928
905.77        66.66853
906.17        67.13994
906.57        67.48933
906.96        67.44241
907.36        66.96321
907.76        66.14177
908.15        65.35854
908.55        65.20752
908.95         65.8121
909.34        67.00134
909.74        68.31049
910.14        69.03911
910.53         68.9592
910.93        68.30933
911.33        67.36539
911.72        66.55006
912.12         66.0788
912.52         65.8289
912.91        65.74703
913.31        65.77843
913.70        65.88892
914.10        66.08273
914.49        66.41396
914.89         66.8623
915.29         67.4053
915.68        68.00578
916.08        68.44545
916.47        68.45671
916.87        68.02578
917.26        67.24992
917.66         66.4496
918.05        65.96708
918.45          65.896
918.84        66.17522
919.24        66.62999
919.64        67.07265
920.03        67.41891
920.42        67.67699
920.82        67.89661
921.21        68.10809
921.61        68.30224
922.00        68.48206
922.40        68.56482
922.79        68.57562
923.19        68.50126
923.58        68.38422
923.98        68.28582
924.37        68.22915
924.77        68.23816
925.16        68.25167
925.55         68.2937
925.95        68.38076
926.34        68.50756
926.74        68.64616
927.13        68.63783
927.52         68.1681
927.92        67.27843
928.31        66.10422
928.70        64.98871
929.10        64.41647
929.49        64.47954
929.89         64.9735
930.28         65.7878
930.67        66.60153
931.07        67.22451
931.46        67.79961
931.85        68.09711
932.24        67.81078
932.64        66.99055
933.03        65.71195
933.42        64.49985
933.82         64.1246
934.21        64.73387
934.60        66.17002
934.99        67.91151
935.39        68.98293
935.78        69.11929
936.17        68.48466
936.56        67.55653
936.96        67.10421
937.35         67.3166
937.74        67.94305
938.13        68.54549
938.53        68.47108
938.92        67.60972
939.31        66.27041
939.70         64.8986
940.09        64.09492
940.49        63.97554
940.88        64.37718
941.27         65.0863
941.66        65.70287
942.05        66.06884
942.44        66.32346
942.84        66.50655
943.23        66.66883
943.62        66.84423
944.01        66.93283
944.40        67.03928
944.79        67.38187
945.18         67.9592
945.57        68.70253
945.97        69.26673
946.36        69.16598
946.75        68.28535
947.14        66.87813
947.53        65.35993
947.92        64.30626
948.31        63.87159
948.70        63.90785
949.09        64.27768
949.48        64.72836
949.87        65.13902
950.26        65.56653
950.65        65.98128
951.04        66.33679
951.43        66.60093
951.82        66.71835
952.21        66.69173
952.60        66.56293
952.99        66.38031
953.38        66.20671
953.77        66.04575
954.16        65.89017
954.55        65.74629
954.94        65.57375
955.33        65.54311
955.72        65.93732
956.11         66.7665
956.50        67.94634
956.89        68.96687
957.28        68.98118
957.66        67.84443
958.05        65.90997
958.44        63.89185
958.83        62.81365
959.22        62.87968
959.61        63.79412
960.00        65.07809
960.39        65.82268
960.78        65.71243
961.16        65.04138
961.55        64.16968
961.94        63.53161
962.33        63.27572
962.72        63.26477
963.11         63.4343
963.49        63.72553
963.88        64.00457
964.27        64.29058
964.66        64.64402
965.04        65.18137
965.43        65.84869
965.82        66.63179
966.21        67.18682
966.60        66.91426
966.98         65.7078
967.37        63.88641
967.76        62.08508
968.15        61.06805
968.53        60.98121
968.92        61.68354
969.31        62.73647
969.69        63.25644
970.08        62.89737
970.47         61.9295
970.86        61.03487
971.24        61.20155
971.63        62.60538
972.02        64.96851
972.40         67.5136
972.79        68.43943
973.17        67.30098
973.56        64.75913
973.95        61.94738
974.33        60.31672
974.72        60.18043
975.11        61.11565
975.49        62.63316
975.88        63.70689
976.26        63.98063
976.65        63.72579
977.04        63.25464
977.42        63.00481
977.81        63.07289
978.19        63.24212
978.58         63.4856
978.96        63.77153
979.35          64.035
979.74        64.34809
980.12        64.66695
980.51        64.66145
980.89        64.40555
981.28        63.95631
981.66        63.54836
982.05        63.49356
982.43        63.87088
982.82        64.58011
983.20        65.57039
983.59        66.61113
983.97        67.64139
984.35        68.63993
984.74         69.3872
985.12        69.79177
985.51        69.75934
985.89        69.32651
986.28        68.73724
986.66        68.29613
987.04        68.13995
987.43        68.15663
987.81        68.23005
988.20        68.00943
988.58        67.44933
988.96        66.63219
989.35        65.74003
989.73        64.98177
990.12        64.41016
990.50        64.03972
990.88        63.73525
991.27        63.29806
991.65        62.72954
992.03        62.09776
992.42        61.75678
992.80        62.17885
993.18        63.44369
993.56        65.42641
993.95        67.50387
994.33        68.66396
994.71        68.44901
995.10        67.24026
995.48        65.71226
995.86        64.97477
996.24        65.28904
996.63        66.20918
997.01        67.50558
997.39        68.32389
997.77        68.30058
998.15         67.8533
998.54        67.00025
998.92         65.6035
999.30        63.87117
999.68         61.8437
1000.06        60.26407
1000.45        60.18821
1000.83        61.85629
1001.21        65.10451
1001.59        68.98444
1001.97        71.14877
1002.35        70.72153
1002.73        68.44772
1003.12        65.70473
1003.50        64.20744
1003.88         64.4601
1004.26        65.81835
1004.64        67.97193
1005.02        70.18663
1005.40        71.90065
1005.78        73.41664
1006.16        74.05165
1006.54        72.71992
1006.92        69.56483
1007.30        65.08994
1007.69        60.82915
1008.07        58.80427
1008.45        59.60067
1008.83        62.79075
1009.21        67.43266
1009.59        70.97722
1009.97        71.99753
1010.35        71.06523
1010.73        68.82145
1011.11        66.29323
1011.49        64.05304
1011.86        61.97483
1012.24        60.30103
1012.62        59.32945
1013.00        59.07771
1013.38        59.50081
1013.76         60.7688
1014.14        62.91126
1014.52         65.6028
1014.90        68.55193
1015.28        70.83492
1015.66        71.41275
1016.04        70.22431
1016.41         67.5081
1016.79        64.19637
1017.17        62.20097
1017.55        62.10417
1017.93        63.36395
1018.31        65.07733
1018.69        65.87806
1019.06        65.42977
1019.44        64.13264
1019.82        62.29791
1020.20        60.77983
1020.58         60.0353
1020.95        59.60677
1021.33        59.59249
1021.71        60.00776
1022.09        60.84553
1022.46        62.52313
1022.84        64.26113
1023.22        64.20847
1023.60        61.91355
1023.97        57.77681
1024.35        54.40784
1024.73        54.92893
