SpectraSmart Spectrum 2.9.0.0
--------- Device Information -----------
Spectrum Name :  反射率_0
Saving Time :  2024/04/26 23:58:37
Spectro-Module Model Name : SE2030-DUVN
Spectro-Module Serial Number : OS361AC55029948
Wavelength Start : 200
Wavelength End : 1025
Wavelength Unit : Wavelength(nm)
Spectrum Unit : Reflectance(%)
-----------Spectrum Setting ------------
Integration Time : 20ms
Average : 10
Boxcar : 0
Background removal :  enabled
linearity correction :  enabled
SC :  disabled
Intensity correction :  disabled
DWT denoise :  enabled
savitzky-golay :  disabled
FFT :  disabled
Running average :  disabled
Kalman :  disabled
High pass :  disabled
---------------BEGIN--------------------
Wavelength(nm)             Reflectance(%)
200.29               0
200.75        36.06134
201.21        36.35838
201.67        36.75224
202.13         35.8664
202.58        33.37926
203.04        29.89818
203.50        26.13582
203.96        24.51384
204.42        26.81919
204.88        32.42762
205.34        39.91806
205.80        46.30539
206.26        49.83506
206.72        50.79467
207.18        49.73351
207.64        47.08947
208.10        42.88633
208.55        36.57759
209.01        27.73425
209.47        21.56154
209.93        22.22119
210.39        26.85637
210.85          32.065
211.31        36.97074
211.77        43.10025
212.23        54.36505
212.69        80.65337
213.14         125.279
213.60        124.2885
214.06        93.80035
214.52        72.11751
214.98        60.79221
215.44        53.85424
215.90        47.47134
216.36        42.96353
216.81        43.15742
217.27        49.35678
217.73        63.73693
218.19        82.81089
218.65        86.33547
219.11        69.28083
219.57        46.58732
220.02        31.30536
220.48        28.33038
220.94        35.83477
221.40        54.12288
221.86         82.0967
222.32        100.1174
222.77        92.10905
223.23        71.18079
223.69        51.74314
224.15        41.97254
224.61        39.81598
225.06        40.64913
225.52        42.68237
225.98        44.28432
226.44        45.09265
226.90        45.98826
227.36        46.32921
227.81        44.86706
228.27        41.93925
228.73        38.06359
229.19        34.91665
229.65        34.46175
230.10        36.65233
230.56        40.76295
231.02        45.16714
231.48        47.17565
231.93        46.27085
232.39        43.79276
232.85        41.14075
233.31        40.15194
233.77        41.07667
234.22        43.23574
234.68        45.92326
235.14        48.20484
235.60        49.73347
236.05         50.8834
236.51        51.66188
236.97        52.03384
237.43        52.05799
237.88        51.70215
238.34         51.2634
238.80        51.58532
239.26        53.08731
239.71        56.27958
240.17        61.01025
240.63        66.54392
241.08        72.20146
241.54        77.20761
242.00        82.48891
242.46        90.93591
242.91        105.4828
243.37        128.1356
243.83        159.0435
244.28        183.6101
244.74        180.8167
245.20        151.6061
245.66        117.6469
246.11         97.2976
246.57        90.70956
247.03         92.3222
247.48        96.28777
247.94        93.44752
248.40        84.66256
248.85        75.44914
249.31        68.60072
249.77        64.63941
250.22        62.73791
250.68        61.67464
251.14         61.8121
251.59         64.2398
252.05        68.84506
252.51        74.93882
252.96        79.22641
253.42        79.47022
253.88        76.48046
254.33        71.35297
254.79        67.93265
255.25        69.26476
255.70        74.84567
256.16        83.34157
256.62        90.68927
257.07        90.86976
257.53        85.56689
257.99        78.54383
258.44        72.80386
258.90         71.0779
259.35        72.03651
259.81        74.54633
260.27        76.84221
260.72        76.86572
261.18        74.91386
261.63        71.74712
262.09        68.80441
262.55        66.93586
263.00        66.02266
263.46        65.78897
263.91        65.46893
264.37        64.50907
264.83        62.84836
265.28        60.77763
265.74         58.9519
266.19        57.81227
266.65        57.45845
267.11        57.54406
267.56        57.69984
268.02        57.37223
268.47        56.41608
268.93        55.08108
269.38        53.52121
269.84        52.03242
270.30        50.71109
270.75        49.45977
271.21        48.38883
271.66        47.59795
272.12        47.07528
272.57        46.76158
273.03        46.45346
273.48         45.7935
273.94         44.7821
274.39        43.51116
274.85        42.24934
275.31        41.21782
275.76        40.44419
276.22        39.88202
276.67        39.42655
277.13        39.04298
277.58        38.63107
278.04        38.22676
278.49        37.73556
278.95        37.14743
279.40        36.41461
279.86        35.64178
280.31        34.79947
280.77        33.97137
281.22        33.15301
281.68        32.40982
282.13        31.78309
282.59        31.41961
283.04        31.28443
283.50        31.35369
283.95        31.49584
284.41        31.51422
284.86        31.35911
285.32        31.11733
285.77        30.87105
286.22        30.81365
286.68         30.9709
287.13        31.22206
287.59        31.50399
288.04        31.67336
288.50        31.71096
288.95        31.63577
289.41         31.4748
289.86         31.1861
290.32        30.84126
290.77        30.46507
291.22        30.17204
291.68        30.11072
292.13        30.31304
292.59        30.77267
293.04        31.45349
293.50        32.30724
293.95        33.28783
294.40        34.39676
294.86         35.6077
295.31        36.86933
295.77         38.1753
296.22        39.51652
296.68        40.89878
297.13        42.32471
297.58        43.81301
298.04        45.36116
298.49        47.00601
298.95         48.8249
299.40        50.79736
299.85         52.8919
300.31        55.00917
300.76        56.97092
301.21        58.75719
301.67        60.44458
302.12        62.09483
302.58        63.90096
303.03        65.85242
303.48        67.91154
303.94        70.04707
304.39        72.14006
304.84        74.18724
305.30        76.23285
305.75        78.22205
306.20        80.16514
306.66        82.07905
307.11        83.91502
307.57        85.70644
308.02        87.39352
308.47        88.99785
308.93        90.53366
309.38        92.01378
309.83        93.58253
310.29        95.26083
310.74        97.00271
311.19        98.66206
311.65        99.96854
312.10        100.8469
312.55        101.3771
313.00        101.7855
313.46        102.4309
313.91        103.3715
314.36        104.5343
314.82        105.7188
315.27        106.6118
315.72        107.1099
316.18        107.3437
316.63        107.4514
317.08        107.7001
317.53        108.1663
317.99        108.7555
318.44        109.3849
318.89        109.8905
319.35        110.2178
319.80        110.4281
320.25        110.5838
320.70        110.7804
321.16        111.0477
321.61        111.4001
322.06        111.7741
322.51        112.0823
322.97         112.286
323.42        112.4039
323.87        112.5626
324.32         112.991
324.78        113.6817
325.23        114.6518
325.68        115.5489
326.13        115.8019
326.59        115.3012
327.04        114.2573
327.49        113.1625
327.94         112.825
328.39        113.4331
328.85         114.724
329.30        116.3488
329.75        117.3902
330.20        117.5466
330.66        117.0407
331.11        116.3161
331.56        116.0088
332.01        116.3234
332.46        117.0484
332.92        117.8715
333.37        118.4483
333.82        118.5906
334.27        118.4812
334.72        118.3188
335.17        118.3937
335.63        118.7921
336.08        119.4696
336.53        120.3218
336.98        121.2394
337.43        122.1543
337.88        123.0602
338.34        123.9233
338.79        124.8211
339.24        125.6765
339.69        126.4527
340.14        127.0083
340.59        127.1441
341.05        126.8954
341.50        126.3681
341.95        125.8458
342.40        125.7441
342.85        126.1723
343.30        127.0123
343.75        128.0911
344.20        129.1071
344.66        129.9269
345.11         130.592
345.56        131.0911
346.01        131.4236
346.46        131.6185
346.91        131.6876
347.36        131.6556
347.81        131.5878
348.26        131.5142
348.72        131.4181
349.17         131.396
349.62        131.6283
350.07        132.1134
350.52        132.8083
350.97         133.395
351.42        133.3621
351.87        132.6368
352.32         131.396
352.77        130.0964
353.22          129.41
353.67        129.4715
354.13        130.0796
354.58        130.8493
355.03        131.0883
355.48        130.6127
355.93        129.6362
356.38        128.5466
356.83        127.9235
357.28        127.8728
357.73        128.1629
358.18        128.4447
358.63        128.1768
359.08        127.2293
359.53        125.8184
359.98        124.2118
360.43        122.7794
360.88        121.6311
361.33        120.6584
361.78        119.7782
362.23        118.8697
362.68        117.9043
363.13        116.9526
363.58        116.0423
364.03        115.1884
364.48        114.3826
364.93        113.5837
365.38        112.7857
365.83        112.0029
366.28         111.237
366.73        110.4948
367.18        109.7327
367.63        108.8765
368.08        107.9205
368.53        106.8916
368.98        105.8813
369.43         105.031
369.88        104.3691
370.33        103.8561
370.78         103.388
371.23        102.7959
371.68        102.0364
372.13        101.1539
372.58        100.2527
373.03        99.49883
373.48        98.92074
373.93        98.45219
374.38        97.97858
374.83        97.32905
375.28        96.46756
375.72        95.44234
376.17        94.40885
376.62        93.47641
377.07        92.70064
377.52        92.08001
377.97         91.5649
378.42        91.09032
378.87        90.63478
379.32        90.17153
379.77         89.8196
380.22        89.75284
380.67        89.95155
381.11        90.37749
381.56        90.62764
382.01        90.13908
382.46        88.86349
382.91        87.07579
383.36        85.31081
383.81        84.29592
384.26        84.14654
384.71        84.61556
385.15        85.36347
385.60        85.79116
386.05        85.69999
386.50        85.26508
386.95        84.60117
387.40         83.8943
387.85        83.24085
388.29        82.53398
388.74        81.92662
389.19        81.43106
389.64         81.0416
390.09        80.75156
390.54        80.52061
390.98        80.24993
391.43         79.9565
391.88        79.65063
392.33        79.34326
392.78        79.02592
393.23        78.69906
393.67         78.3892
394.12        78.17541
394.57        77.82108
395.02        77.49429
395.47        77.36026
395.91        77.42432
396.36        77.21938
396.81        77.00701
397.26        76.72467
397.71         76.4613
398.15        76.20525
398.60        76.03947
399.05        75.72241
399.50        75.31171
399.95         75.2622
400.39        75.47688
400.84        75.10205
401.29         74.2486
401.74        73.99054
402.18        74.25179
402.63        73.88706
403.08        73.02712
403.53        72.67241
403.97        72.84787
404.42        73.04507
404.87        73.13615
405.32        73.03621
405.76        72.68528
406.21        72.37788
406.66        72.13756
407.11        71.52489
407.55        70.84428
408.00        71.11833
408.45        72.18798
408.90        72.86556
409.34        72.83693
409.79        72.27982
410.24        71.46037
410.68         70.9609
411.13         70.8806
411.58        70.84936
412.03         70.7725
412.47        70.68665
412.92        70.54205
413.37         70.3681
413.81        70.19778
414.26        70.14446
414.71        70.19795
415.15        70.34551
415.60        70.52077
416.05        70.69542
416.49        70.84866
416.94        70.97149
417.39        71.06499
417.83        71.11612
418.28        71.13527
418.73         71.1321
419.17        71.11801
419.62        71.11633
420.07        71.12145
420.51        71.09757
420.96        71.10007
421.41        71.10678
421.85        71.08202
422.30        71.24011
422.74        71.40665
423.19        71.11648
423.64        70.48065
424.08        70.28639
424.53        70.56542
424.98        70.74655
425.42        70.81549
425.87        71.18035
426.31        71.70709
426.76        71.77836
427.21        71.44331
427.65         71.2289
428.10        71.17784
428.54        71.14987
428.99        71.21098
429.44        71.10155
429.88        70.98824
430.33        71.74218
430.77        72.93027
431.22         73.3285
431.66        72.85945
432.11        72.16862
432.56        71.58408
433.00        71.40224
433.45        71.85941
433.89        72.80988
434.34        73.40411
434.78        74.48949
435.23        73.55185
435.67        70.86996
436.12        71.61575
436.57        71.90427
437.01        72.94862
437.46        73.54799
437.90        73.10345
438.35        72.07246
438.79        72.19224
439.24        72.03848
439.68        72.11406
440.13        72.54456
440.57        73.24623
441.02        73.42469
441.46        73.11887
441.91        73.81137
442.35        75.01857
442.80        74.61185
443.24        73.01715
443.69        73.11977
444.13        74.72863
444.58        75.35785
445.02        74.91157
445.47        74.78204
445.91        75.03095
446.36        75.16098
446.80        75.16909
447.24        75.18185
447.69        75.22545
448.13        75.32255
448.58        75.48972
449.02         75.6751
449.47        75.83834
449.91        75.89449
450.36        75.84882
450.80        75.69477
451.25        75.52429
451.69        75.42933
452.13        75.45842
452.58        75.56488
453.02         75.6901
453.47        75.79513
453.91        75.84631
454.36        75.68261
454.80        75.65016
455.24         75.4529
455.69        75.19544
456.13        75.10679
456.58        75.16657
457.02        74.58017
457.46        73.69336
457.91        73.99264
458.35        75.11006
458.79         75.2638
459.24        74.43152
459.68        73.48435
460.13        72.75452
460.57        72.40729
461.01         72.5977
461.46        72.65639
461.90        73.15041
462.34        73.93253
462.79        73.59555
463.23        73.85693
463.68        74.10583
464.12        74.04691
464.56        73.63908
465.01        72.68797
465.45        71.89986
465.89        71.69881
466.34        72.08976
466.78        72.28268
467.22        72.18483
467.67        71.86956
468.11        71.56194
468.55        71.63934
468.99        72.03207
469.44        72.06419
469.88        71.71557
470.32        71.42542
470.77        71.26534
471.21        71.13609
471.65        71.04214
472.10        71.01193
472.54         71.0296
472.98        71.01646
473.42        70.93597
473.87        71.00936
474.31        71.10496
474.75        70.63406
475.20        69.84054
475.64        69.77644
476.08        70.36781
476.52        70.44682
476.97        69.93294
477.41        69.72865
477.85        70.07532
478.29        69.27039
478.74        70.26384
479.18        70.51463
479.62          70.278
480.06        70.24482
480.50        70.22685
480.95        70.20614
481.39        70.18551
481.83        69.66221
482.27        69.74892
482.72        69.85141
483.16        69.72942
483.60        69.81525
484.04        69.91966
484.48        70.31313
484.93        70.73229
485.37        70.31029
485.81        69.73984
486.25        69.29823
486.69        71.48093
487.14        72.40504
487.58        69.50744
488.02        70.34222
488.46        69.26421
488.90        68.54366
489.34        70.28739
489.79        71.11346
490.23        70.62852
490.67        70.03427
491.11        69.32565
491.55        69.15933
491.99        69.45075
492.43          69.357
492.88        68.88159
493.32        68.70998
493.76        68.87673
494.20        68.98759
494.64        68.99838
495.08        69.15919
495.52        69.39567
495.96         69.2233
496.41        68.76737
496.85        68.90161
497.29        69.39225
497.73        69.48681
498.17        68.38992
498.61        68.20579
499.05        68.66629
499.49        68.81181
499.93        68.38728
500.37        68.48675
500.82        68.98501
501.26        69.02441
501.70        68.57537
502.14        68.96925
502.58        68.82331
503.02         68.9625
503.46        69.04234
503.90        69.18695
504.34         69.3361
504.78        69.30722
505.22        69.09438
505.66        68.75137
506.10        68.40649
506.54        68.21227
506.98        68.19913
507.42        68.42159
507.86        68.72468
508.30        68.66188
508.74         68.7589
509.18        68.59514
509.62        68.39821
510.06        68.23677
510.50        68.14635
510.94        68.08692
511.38        68.05991
511.82        68.08816
512.26        68.16677
512.70        68.29431
513.14        68.40789
513.58        68.46183
514.02        68.45249
514.46        68.27984
514.90        67.98419
515.34        68.24761
515.78        68.12167
516.22        68.34382
516.66        68.55139
517.10        68.65009
517.54        68.60335
517.98        68.46233
518.42        68.28612
518.86        68.14154
519.30        68.05836
519.74        68.01501
520.18        68.00171
520.62         68.0026
521.06        68.01253
521.50        68.04665
521.93        68.10074
522.37          68.142
522.81        68.17169
523.25        68.18364
523.69        68.19964
524.13        68.26031
524.57        68.36404
525.01        68.48872
525.45        68.58467
525.89        68.57339
526.32        68.43437
526.76        68.21795
527.20        67.96807
527.64        67.75919
528.08        67.61884
528.52        67.52926
528.96        67.49028
529.40        67.49845
529.83        67.54124
530.27        67.62625
530.71        67.71678
531.15        67.75975
531.59        67.74454
532.03        67.67976
532.46        67.58639
532.90        67.54984
533.34        67.57324
533.78        67.59235
534.22        67.58765
534.66        67.61253
535.09         67.6105
535.53        67.44097
535.97        67.13969
536.41        66.93678
536.85        66.85892
537.28        66.78642
537.72        66.74732
538.16        66.82922
538.60        67.02305
539.04        67.31605
539.47        67.60771
539.91        67.73563
540.35        67.68638
540.79        67.61462
541.22         67.5581
541.66        67.50409
542.10        67.46681
542.54        67.47947
542.97        67.52103
543.41        67.55544
543.85        67.56734
544.29        67.59717
544.72        67.60213
545.16        67.54589
545.60        67.41702
546.04         67.2336
546.47        67.08469
546.91        67.10825
547.35         67.3177
547.79        67.66604
548.22        68.01717
548.66        68.14512
549.10        68.08377
549.53        67.86887
549.97        67.60671
550.41        67.32693
550.84        67.15163
551.28        67.21426
551.72        67.40682
552.15        67.59165
552.59        67.80814
553.03        67.19395
553.46        67.70113
553.90        67.57826
554.34        67.45871
554.77        67.46327
555.21        67.27467
555.65        67.45229
556.08        67.77944
556.52         67.8792
556.96        67.73927
557.39        67.78866
557.83        67.98846
558.27        67.81458
558.70        67.31549
559.14        67.07742
559.57        67.10762
560.01         66.9537
560.45        66.71784
560.88        67.00178
561.32        67.65303
561.75        67.91396
562.19          67.767
562.63        67.46478
563.06        67.17553
563.50        67.30776
563.93        67.69996
564.37        67.78796
564.80        67.57484
565.24        67.31436
565.68        66.93359
566.11          67.574
566.55        66.82813
566.98        66.71526
567.42        66.64655
567.85        66.82524
568.29         67.2261
568.72         67.6719
569.16        68.15279
569.60        68.35101
570.03        68.46227
570.47        68.58205
570.90        68.68016
571.34         68.0891
571.77        68.39533
572.21        68.71101
572.64        68.51014
573.08         68.7851
573.51        68.00671
573.95        67.98225
574.38        68.44348
574.82        68.88168
575.25         68.5927
575.69        68.59056
576.12        68.79071
576.56        67.91496
576.99        68.15057
577.42        68.25822
577.86        68.59302
578.29        69.52879
578.73        69.58042
579.16        69.30912
579.60        68.42036
580.03        68.35378
580.47        68.23529
580.90        69.43652
581.33        69.50401
581.77        69.56882
582.20        69.87228
582.64        69.90663
583.07        69.32547
583.51        68.74828
583.94        68.34036
584.37         68.2991
584.81        68.68291
585.24        68.94627
585.68        68.93192
586.11        68.87412
586.54        69.14048
586.98         67.9724
587.41        67.55889
587.85        68.27563
588.28        68.31525
588.71        68.07738
589.15        67.79865
589.58        68.11858
590.01        67.62401
590.45        67.59251
590.88        68.48001
591.31        68.43587
591.75        67.83303
592.18        67.43193
592.61         67.4776
593.05        68.01661
593.48        69.22961
593.91        68.89095
594.35        68.69565
594.78        67.87466
595.21        67.22583
595.65        67.60715
596.08        69.02521
596.51        68.77988
596.94        68.13622
597.38        67.73962
597.81        67.98884
598.24         68.4521
598.68        68.25012
599.11        67.67396
599.54        69.29309
599.97        68.73475
600.41         68.3092
600.84        67.63969
601.27        68.15916
601.70        68.11883
602.14        68.22312
602.57        68.02025
603.00        67.89413
603.43        67.39851
603.87        68.38612
604.30        68.71735
604.73        68.56456
605.16         67.8588
605.60        67.70567
606.03        67.51671
606.46        67.58672
606.89        67.52994
607.32        67.90275
607.76        67.57347
608.19        67.98496
608.62        67.97754
609.05        67.98782
609.48         67.9193
609.92        68.71162
610.35        68.13646
610.78        67.78338
611.21        67.75643
611.64        67.69843
612.07        67.90873
612.50        67.83117
612.94        67.77731
613.37        67.52953
613.80         67.9854
614.23        67.28748
614.66        67.08778
615.09        67.52551
615.52        67.73404
615.96        67.76469
616.39        67.72601
616.82        67.76115
617.25        67.01016
617.68        67.24591
618.11        67.44124
618.54        67.91824
618.97        67.85106
619.40        67.32507
619.84        67.10902
620.27         67.2056
620.70        67.42043
621.13        67.59032
621.56        67.11777
621.99        66.16647
622.42        66.05569
622.85        66.81158
623.28        66.58272
623.71        66.56159
624.14        66.81562
624.57        67.09225
625.00        67.11678
625.43        67.31903
625.86        67.11787
626.29        66.76415
626.72        66.58463
627.15        66.71337
627.58        66.79619
628.01        66.68892
628.44        67.10862
628.87        66.49477
629.30        66.37021
629.73        66.31737
630.16        66.43334
630.59        66.43056
631.02        66.62035
631.45        66.87871
631.88        67.06075
632.31        67.12977
632.74        67.11663
633.17        67.03728
633.60        66.92223
634.03        66.79253
634.46        66.63306
634.89        66.46603
635.32        66.34741
635.75        66.29247
636.18        66.22212
636.61        66.14986
637.04        66.13267
637.47        66.16713
637.89        66.23037
638.32        66.26803
638.75        66.24991
639.18        66.16653
639.61        66.04914
640.04        65.94341
640.47        65.86803
640.90        65.86494
641.33        66.04079
641.76        66.31236
642.18        66.43351
642.61        66.34611
643.04        66.16859
643.47        65.98512
643.90        65.89774
644.33        65.93567
644.76        66.06425
645.18        66.21196
645.61        66.24292
646.04        66.14158
646.47        65.96778
646.90        65.78493
647.33        65.69579
647.75        65.69978
648.18        65.76862
648.61         65.9343
649.04        66.08082
649.47        66.07372
649.89        66.80264
650.32        66.43961
650.75        66.24603
651.18        65.85814
651.61        65.83008
652.03        66.19671
652.46        66.45347
652.89        66.46019
653.32        66.48118
653.74        66.75532
654.17        65.66344
654.60        66.51349
655.03        66.53926
655.46        65.62422
655.88        66.18464
656.31        69.42101
656.74        73.12991
657.16        72.14741
657.59        71.19952
658.02        67.91613
658.45          67.562
658.87        66.62402
659.30        67.00542
659.73        66.52816
660.15        67.39439
660.58        66.36076
661.01        66.26518
661.44        66.29249
661.86        66.03242
662.29        65.50049
662.72         65.9353
663.14        66.00414
663.57        65.99307
664.00        65.65059
664.42        65.66112
664.85        66.02567
665.27         66.6701
665.70         66.8399
666.13        66.98521
666.55         66.8988
666.98        66.52922
667.41        65.99331
667.83        65.93077
668.26        65.72181
668.69        65.85762
669.11        66.07426
669.54        66.26833
669.96        66.40047
670.39        66.49914
670.82        66.58187
671.24        66.64214
671.67         66.6804
672.09        66.67595
672.52        66.64906
672.94        66.59593
673.37        66.52899
673.80        66.44646
674.22        66.37782
674.65        66.33124
675.07        66.32972
675.50        66.36096
675.92            66.4
676.35        66.39199
676.77        66.32782
677.20        66.21861
677.62        66.11507
678.05        66.08698
678.47         66.1315
678.90        66.28467
679.32        66.48969
679.75        66.50108
680.17        66.25464
680.60         66.4614
681.02        66.03726
681.45         66.0256
681.87        66.11312
682.30        66.35858
682.72        66.66569
683.15        66.67365
683.57         66.4558
684.00        66.45617
684.42         66.6869
684.85        66.80682
685.27        66.80227
685.70        66.88697
686.12        67.02834
686.54        67.08983
686.97        67.05508
687.39        66.97388
687.82        66.85374
688.24        66.72739
688.66          66.609
689.09        66.48338
689.51        66.38158
689.94        66.34199
690.36        66.36659
690.78        66.39344
691.21        66.42474
691.63        66.48694
692.06         66.5769
692.48        66.68729
692.90        66.76553
693.33        66.74522
693.75        66.61694
694.17        66.36799
694.60        66.13107
695.02        66.12725
695.44        66.36272
695.87        66.79556
696.29        67.25146
696.71        67.19638
697.14        66.71497
697.56        66.49321
697.98        66.60661
698.41        66.63211
698.83         66.5741
699.25        66.76553
699.68        67.07536
700.10        67.17415
700.52        66.99527
700.94        66.65468
701.37        66.31377
701.79        66.23518
702.21        66.46667
702.64        66.89749
703.06         67.3774
703.48        67.64963
703.90        67.63734
704.33        67.42063
704.75        67.09331
705.17        66.79665
705.59        66.59844
706.01        66.46854
706.44        66.40716
706.86         66.4482
707.28        66.57905
707.70        66.75191
708.12        66.96515
708.55        67.29976
708.97        67.68518
709.39        67.85696
709.81        67.81289
710.23        67.80503
710.66        67.84483
711.08        67.79819
711.50        67.64322
711.92        67.43948
712.34        67.20636
712.76        66.95315
713.19        66.72753
713.61        66.64057
714.03         66.7003
714.45        66.88245
714.87        67.14184
715.29        67.40643
715.71        67.63939
716.13        67.83492
716.56        67.96235
716.98        68.07006
717.40        68.12588
717.82        68.12793
718.24        68.05301
718.66        67.86842
719.08         67.5977
719.50        67.28407
719.92        67.02016
720.34        66.93863
720.76        67.06045
721.19        67.31689
721.61        67.66451
722.03        67.97514
722.45        68.18935
722.87        68.32966
723.29        68.35901
723.71        68.22663
724.13        67.95045
724.55        67.55894
724.97        67.16718
725.39        66.97217
725.81        67.02193
726.23        67.24131
726.65        67.53791
727.07        67.90418
727.49         68.0427
727.91        68.18433
728.33        68.27428
728.75        68.35503
729.17        68.43328
729.59        68.47852
730.01        68.49347
730.43         68.4866
730.85        68.46213
731.27        68.43481
731.69        68.38557
732.10        68.27665
732.52         68.1059
732.94        67.89462
733.36        67.72543
733.78        67.61609
734.20        67.57612
734.62        67.84341
735.04        68.36854
735.46        68.00469
735.88        68.22619
736.30        68.27202
736.72        68.58028
737.13        68.84574
737.55        68.95658
737.97        69.08582
738.39        69.15486
738.81        68.80983
739.23        68.21305
739.65        68.13558
740.06        68.51487
740.48         68.6707
740.90        68.55203
741.32        68.58416
741.74        68.78105
742.16        68.92061
742.57        68.98575
742.99        69.04727
743.41        69.07612
743.83        68.94971
744.25        68.69962
744.67        68.46651
745.08        68.33774
745.50        68.31133
745.92        68.41297
746.34        68.67737
746.75        68.98388
747.17        69.08334
747.59        68.93429
748.01        68.61372
748.42        68.24769
748.84        68.03825
749.26        68.03981
749.68        68.18649
750.09        68.39434
750.51        68.52647
750.93        68.54256
751.35        68.51284
751.76         68.4456
752.18        68.34418
752.60        68.21658
753.01        68.08184
753.43        67.94683
753.85        67.85085
754.27        67.81833
754.68        67.86706
755.10         67.9781
755.52         68.1108
755.93         68.2309
756.35        68.31729
756.77        68.45319
757.18        68.61174
757.60         68.8001
758.02        69.31602
758.43        69.93858
758.85        69.20481
759.26        69.20218
759.68        68.01228
760.10        68.30756
760.51        68.90945
760.93         69.0312
761.34        69.20245
761.76        69.42966
762.18        69.41352
762.59        69.33957
763.01         69.2995
763.42        69.38341
763.84        69.36334
764.26        69.26685
764.67        69.27005
765.09        69.35419
765.50        69.20589
765.92        68.90525
766.33        68.71016
766.75        68.59737
767.16        68.51054
767.58        68.41164
768.00        68.35129
768.41        68.41819
768.83        68.57574
769.24        69.04617
769.66        69.30121
770.07        69.36681
770.49        69.03338
770.90        68.55255
771.32        68.92482
771.73        69.95063
772.15        70.25468
772.56        69.75989
772.97        69.22152
773.39        68.85583
773.80        68.68566
774.22         68.7598
774.63        69.11441
775.05        69.55898
775.46        69.85292
775.88        69.88705
776.29        69.74927
776.70        69.53682
777.12        69.43891
777.53        69.51395
777.95        69.65181
778.36        69.80158
778.77        69.84642
779.19        69.78333
779.60         69.6899
780.02        69.56351
780.43        69.50166
780.84        69.55369
781.26        69.31091
781.67        68.96358
782.09        69.65816
782.50        71.00884
782.91         70.9996
783.33        69.75616
783.74        69.26277
784.15        69.62519
784.57        69.69905
784.98        69.47855
785.39        69.47628
785.81        69.69631
786.22        70.00254
786.63        70.32452
787.04        70.54674
787.46        70.64273
787.87        70.62428
788.28        70.55312
788.70        70.48178
789.11        70.41295
789.52        70.42688
789.93         70.4754
790.35        70.34299
790.76        70.08221
791.17        69.98766
791.58        70.11591
792.00        70.19124
792.41        70.21046
792.82        70.58943
793.23        71.12828
793.65        70.83997
794.06        70.01254
794.47        70.06424
794.88        70.81232
795.29         71.5118
795.71        70.78225
796.12        70.66733
796.53        70.82932
796.94         70.6088
797.35        70.14915
797.76        70.37843
798.18         71.1476
798.59         71.4597
799.00        71.20842
799.41        70.91528
799.82        70.72382
800.23        70.65338
800.64        70.74665
801.06        70.94538
801.47         71.1927
801.88        71.30268
802.29        71.21945
802.70         70.9976
803.11          70.684
803.52         70.3577
803.93        70.08216
804.34        69.85429
804.75        69.71951
805.17        69.81097
805.58        70.18238
805.99        70.53825
806.40        70.84544
806.81        71.60945
807.22        72.50723
807.63        72.25085
808.04        71.06869
808.45        70.48795
808.86        70.65942
809.27        70.78928
809.68        70.74716
810.09        70.68472
810.50        70.57193
810.91        70.38754
811.32        70.25607
811.73        70.36378
812.14        70.73571
812.55        71.30666
812.96        71.89994
813.37        72.18144
813.78        72.05313
814.19        71.63841
814.60         71.0957
815.01        70.63906
815.42        70.33059
815.83        70.10442
816.24        69.97923
816.65        69.98875
817.05         70.1363
817.46        70.40607
817.87        70.70615
818.28        70.83448
818.69        70.74892
819.10        70.46558
819.51        70.15791
819.92        70.15152
820.33        70.51456
820.74        71.14388
821.14        71.77547
821.55        71.98061
821.96        71.67426
822.37        71.00011
822.78        70.22962
823.19        69.82216
823.60        69.91891
824.00        70.40605
824.41        71.04937
824.82        71.55084
825.23        71.77685
825.64        71.81366
826.04        71.72385
826.45        71.56684
826.86        71.40123
827.27        71.20811
827.68        70.99618
828.08         70.8255
828.49        70.66438
828.90        70.52938
829.31        70.48545
829.72        70.61893
830.12        70.95566
830.53        71.41901
830.94         71.8318
831.35         71.8481
831.75        71.41634
832.16         70.6144
832.57        69.76589
832.97        69.36588
833.38        69.52892
833.79        70.09033
834.20        70.79427
834.60        71.23049
835.01        71.28649
835.42        71.12305
835.82        70.87362
836.23          70.687
836.64        70.66552
837.04        70.71947
837.45         70.8918
837.86        71.32868
838.26        72.04306
838.67        72.94997
839.08        73.78281
839.48        74.01505
839.89        73.51909
840.29        72.47618
840.70         71.3647
841.11        70.70293
841.51        70.63448
841.92        70.99757
842.33        71.60606
842.73        72.12486
843.14        72.32011
843.54        72.33933
843.95        72.28152
844.35        72.36092
844.76        72.60326
845.17        72.92245
845.57        73.18644
845.98        73.16463
846.38        72.83972
846.79        72.29498
847.19        71.71271
847.60         71.3545
848.00        71.30295
848.41        71.45296
848.81        71.71767
849.22        71.86098
849.62        71.85415
850.03        71.76073
850.43        71.63428
850.84        71.48671
851.24        71.38886
851.65        71.25606
852.05        71.24756
852.46         71.5262
852.86        72.08874
853.27        72.84984
853.67        73.51108
854.07        73.78612
854.48        73.60307
854.88        73.07695
855.29        72.34157
855.69        71.79552
856.10        71.50884
856.50        71.46344
856.90        71.53135
857.31        71.50883
857.71        71.38541
858.12        71.17034
858.52        70.96352
858.92        70.80063
859.33        70.68414
859.73         70.6338
860.13        70.57803
860.54        70.43272
860.94        70.23141
861.34        69.99577
861.75        69.80594
862.15        69.83471
862.55        70.08622
862.96        70.45285
863.36        70.88239
863.76        71.19838
864.17        71.32014
864.57        71.32889
864.97         71.1536
865.38        70.69848
865.78        70.01338
866.18        69.12637
866.58        68.28858
866.99        67.94428
867.39        68.22199
867.79        68.98424
868.19        69.91871
868.60        70.51273
869.00        70.65895
869.40        70.45585
869.80        70.08295
870.21        69.89912
870.61        70.08192
871.01        70.44787
871.41        70.79131
871.81         70.8379
872.22        70.52724
872.62        69.95248
873.02        69.31807
873.42        68.95165
873.82        68.94839
874.22        69.21563
874.63        69.52556
875.03        69.53633
875.43        69.16357
875.83        68.53322
876.23        67.89368
876.63        67.61786
877.03        67.79681
877.44        68.29269
877.84        68.90778
878.24        69.31283
878.64        69.35732
879.04        69.00507
879.44        68.52617
879.84        68.43205
880.24        68.78084
880.64        69.37197
881.04        69.86336
881.44        69.72591
881.84        68.87178
882.24         67.5353
882.65        66.14394
883.05        65.33829
883.45        65.29624
883.85        65.83218
884.25        66.69889
884.65        67.46191
885.05        67.93723
885.45        68.22346
885.85         68.3744
886.25        68.47778
886.65        68.57749
887.05        68.63296
887.45        68.62132
887.85        68.53905
888.25        68.39587
888.65        68.20311
889.04        68.05964
889.44        68.13309
889.84        68.41979
890.24        68.86747
890.64        69.27249
891.04        69.29951
891.44        68.89977
891.84        68.21612
892.24        67.48747
892.64        67.06595
893.04        67.04916
893.44        67.34006
893.83        67.85405
894.23        68.38779
894.63        68.87045
895.03        69.32521
895.43        69.73823
895.83        70.09417
896.23        70.36703
896.63        70.51012
897.02        70.48167
897.42        70.26855
897.82        69.89335
898.22        69.42613
898.62        68.92363
899.01        68.44429
899.41        68.04345
899.81        67.70025
900.21         67.4948
900.61        67.54742
901.00        67.84859
901.40        68.33801
901.80        68.81816
902.20        68.96878
902.59        68.73458
902.99        68.21129
903.39        67.58723
903.79        67.17764
904.18        67.07175
904.58        67.17428
904.98        67.43835
905.38        67.79897
905.77        68.21018
906.17        68.71484
906.57        69.16649
906.96        69.31709
907.36        69.11139
907.76        68.61846
908.15        68.12367
908.55        68.07219
908.95        68.56071
909.34        69.46229
909.74        70.41591
910.14        70.91033
910.53        70.77671
910.93        70.19926
911.33        69.39754
911.72        68.69706
912.12        68.27975
912.52        68.06033
912.91        67.97229
913.31        67.93931
913.70        67.92863
914.10        67.93456
914.49        68.07329
914.89        68.43411
915.29        69.02477
915.68         69.7962
916.08        70.42419
916.47        70.46385
916.87        69.86057
917.26        68.75069
917.66        67.61236
918.05        67.01241
918.45        67.07765
918.84        67.69306
919.24        68.47942
919.64        68.89372
920.03        68.78847
920.42        68.30817
920.82        67.80019
921.21        67.74541
921.61        68.23552
922.00          69.131
922.40        70.10429
922.79        70.73404
923.19        70.83451
923.58        70.56651
923.98         70.1307
924.37        69.75374
924.77        69.53401
925.16        69.35754
925.55        69.22044
925.95        69.10662
926.34        69.02013
926.74        68.97662
927.13        68.89237
927.52         68.5472
927.92        67.97451
928.31        67.24223
928.70        66.57256
929.10        66.27534
929.49        66.39971
929.89        66.79449
930.28        67.40222
930.67        68.00261
931.07        68.46065
931.46        68.89909
931.85        69.14047
932.24        68.95554
932.64        68.39492
933.03        67.51275
933.42        66.72164
933.82        66.62307
934.21        67.31799
934.60        68.66314
934.99         70.2309
935.39        71.22289
935.78        71.43008
936.17         70.9883
936.56        70.22274
936.96        69.65764
937.35        69.45216
937.74        69.44161
938.13         69.4568
938.53         69.2694
938.92        68.83334
939.31        68.29253
939.70        67.75949
940.09        67.34818
940.49        67.06241
940.88        66.87416
941.27        66.80984
941.66        66.91367
942.05        67.18131
942.44        67.62376
942.84        68.10023
943.23        68.37126
943.62        68.39431
944.01        68.18679
944.40         67.9751
944.79        68.15642
945.18        68.78719
945.57        69.72835
945.97        70.57195
946.36        70.73396
946.75        70.04871
947.14         68.7917
947.53        67.38276
947.92        66.40804
948.31        66.02532
948.70        66.06499
949.09        66.39448
949.48        66.77988
949.87        67.10406
950.26        67.43169
950.65        67.71249
951.04        67.85644
951.43         67.8429
951.82        67.65791
952.21        67.37028
952.60        67.12139
952.99        66.97923
953.38        66.96037
953.77         67.0388
954.16        67.16003
954.55        67.30388
954.94        67.44908
955.33        67.69076
955.72        68.18577
956.11        68.91963
956.50        69.81982
956.89         70.5405
957.28        70.52413
957.66        69.67676
958.05        68.25663
958.44        66.75103
958.83        65.85001
959.22        65.69919
959.61        66.10902
960.00        66.77975
960.39        67.15018
960.78        67.01173
961.16        66.51781
961.55        65.90273
961.94        65.41804
962.33        65.15596
962.72        65.07184
963.11        65.04842
963.49        64.93466
963.88        64.63757
964.27        64.22321
964.66        64.01507
965.04        64.51079
965.43        65.72226
965.82        67.56498
966.21        69.39095
966.60        69.94081
966.98        68.86457
967.37        66.66299
967.76        64.31777
968.15        63.07785
968.53        63.18954
968.92        64.36156
969.31        65.97144
969.69        66.77048
970.08        66.27929
970.47        64.92961
970.86        63.56104
971.24        63.35154
971.63        64.52591
972.02        66.72374
972.40         69.1681
972.79        70.06923
973.17        68.96973
973.56        66.54852
973.95        63.83736
974.33        62.13001
974.72        61.72431
975.11        62.22983
975.49        63.30652
975.88        64.22611
976.26        64.72689
976.65         64.9884
977.04        65.14052
977.42        65.33942
977.81        65.59441
978.19        65.74654
978.58         65.8733
978.96        66.12148
979.35        66.47658
979.74        66.96632
980.12         67.4381
980.51        67.37091
980.89        66.82189
981.28        65.94881
981.66        65.16215
982.05        65.01945
982.43        65.63137
982.82        66.79098
983.20        68.31927
983.59        69.73003
983.97        70.85558
984.35        71.76132
984.74        72.19763
985.12        72.04346
985.51        71.27783
985.89        69.98341
986.28          68.688
986.66        68.10983
987.04         68.4652
987.43        69.57175
987.81         71.0034
988.20        71.74581
988.58        71.49821
988.96        70.46714
989.35        69.15327
989.73         68.2804
990.12        67.99828
990.50        68.11788
990.88        68.24283
991.27        67.72987
991.65        66.48887
992.03        64.84513
992.42        63.34609
992.80        62.65494
993.18        62.92019
993.56        63.93589
993.95        65.25978
994.33        66.23978
994.71        66.49549
995.10        66.31253
995.48         65.9437
995.86        65.88303
996.24        66.27508
996.63        66.79274
997.01        67.54503
997.39        68.40188
997.77        69.18948
998.15        69.98895
998.54        70.43496
998.92        69.84956
999.30        68.32582
999.68        66.16387
1000.06        64.17171
1000.45        63.45581
1000.83        64.32805
1001.21        66.54228
1001.59        69.51503
1001.97         71.7064
1002.35        72.41778
1002.73        72.09003
1003.12        71.30151
1003.50        70.69644
1003.88        70.57075
1004.26        70.49989
1004.64        70.64133
1005.02        71.32107
1005.40        72.50436
1005.78        74.31041
1006.16        75.69522
1006.54         74.9629
1006.92        72.06764
1007.30        67.66315
1007.69           63.61
1008.07        62.43182
1008.45        64.80447
1008.83        70.15305
1009.21        76.87964
1009.59        80.97934
1009.97        80.50204
1010.35        76.58944
1010.73        70.96526
1011.11        66.12512
1011.49        62.97472
1011.86        60.94853
1012.24         59.8642
1012.62         59.4536
1013.00        59.55737
1013.38        60.32442
1013.76        61.90598
1014.14        64.22752
1014.52        66.90408
1014.90        69.53899
1015.28        71.34631
1015.66        71.55687
1016.04         70.1577
1016.41        67.36786
1016.79        63.98692
1017.17        61.66626
1017.55        60.99039
1017.93        61.57977
1018.31        62.75543
1018.69        63.45389
1019.06        63.39288
1019.44        62.86983
1019.82        62.11554
1020.20        61.66593
1020.58        61.71582
1020.95        61.85496
1021.33        62.05833
1021.71        62.24033
1022.09        62.40953
1022.46        62.85951
1022.84         63.2088
1023.22        62.67009
1023.60        61.16659
1023.97        58.82843
1024.35        57.18896
1024.73         57.9694
