SpectraSmart Spectrum 2.9.0.0
--------- Device Information -----------
Spectrum Name :  反射率_0
Saving Time :  2024/04/26 23:52:25
Spectro-Module Model Name : SE2030-DUVN
Spectro-Module Serial Number : OS361AC55029948
Wavelength Start : 200
Wavelength End : 1025
Wavelength Unit : Wavelength(nm)
Spectrum Unit : Reflectance(%)
-----------Spectrum Setting ------------
Integration Time : 20ms
Average : 10
Boxcar : 0
Background removal :  enabled
linearity correction :  enabled
SC :  disabled
Intensity correction :  disabled
DWT denoise :  enabled
savitzky-golay :  disabled
FFT :  disabled
Running average :  disabled
Kalman :  disabled
High pass :  disabled
---------------BEGIN--------------------
Wavelength(nm)             Reflectance(%)
200.29               0
200.75        42.45778
201.21        41.60208
201.67        40.64406
202.13        39.76757
202.58        38.88564
203.04        38.09285
203.50        37.86706
203.96        39.27806
204.42        42.87593
204.88        48.54259
205.34        54.42389
205.80         57.2889
206.26        56.41125
206.72        52.78206
207.18        48.94231
207.64         47.1728
208.10        47.58605
208.55        50.20106
209.01        53.61233
209.47        53.26128
209.93        48.41492
210.39        43.11618
210.85        39.70213
211.31        38.79957
211.77        40.35164
212.23        45.51769
212.69        61.46798
213.14        99.18849
213.60        115.1731
214.06        102.4056
214.52        88.27014
214.98        78.78709
215.44        71.05737
215.90        62.20243
216.36        53.35972
216.81        46.82822
217.27        43.52953
217.73        43.80262
218.19        46.25707
218.65        45.22845
219.11        40.07286
219.57        34.58202
220.02        32.57999
220.48         36.6053
220.94        46.98063
221.40        65.63729
221.86        91.40186
222.32        105.8501
222.77         95.1283
223.23        72.29251
223.69        52.15984
224.15        42.93196
224.61        41.99122
225.06        44.49736
225.52        47.94537
225.98        49.84948
226.44        49.89896
226.90        49.29526
227.36         47.9007
227.81        45.40499
228.27        42.34417
228.73        38.82159
229.19        36.07513
229.65         35.5494
230.10        37.13036
230.56        40.33905
231.02        43.69288
231.48        44.75153
231.93        43.14513
232.39        40.11656
232.85        37.13366
233.31        36.12967
233.77        37.30338
234.22        39.93765
234.68        43.11414
235.14        45.52979
235.60        46.76368
236.05        47.29538
236.51        47.35678
236.97          47.398
237.43        47.69521
237.88        48.07281
238.34        48.75404
238.80        50.49127
239.26         53.6908
239.71        59.04147
240.17        66.19727
240.63        73.53545
241.08        79.70551
241.54        83.71497
242.00        86.96706
242.46        93.62469
242.91        107.2097
243.37        129.6079
243.83        161.3466
244.28        188.0309
244.74        187.8565
245.20        161.0066
245.66        128.0372
246.11        106.6227
246.57        97.51109
247.03        96.01621
247.48         96.6382
247.94        91.54525
248.40        82.16252
248.85        72.95449
249.31        67.36053
249.77        67.06198
250.22        71.55929
250.68        80.41534
251.14        92.06423
251.59        99.22893
252.05        97.70863
252.51        91.30702
252.96        83.57645
253.42        78.47971
253.88        76.22029
254.33        74.80379
254.79        75.66209
255.25        79.76299
255.70         86.3306
256.16        94.84257
256.62        101.3444
257.07        100.0401
257.53          93.189
257.99          84.731
258.44        77.77636
258.90        75.09142
259.35         75.2661
259.81        77.18024
260.27        79.11864
260.72         79.1174
261.18        77.39861
261.63        74.53285
262.09         71.8798
262.55        70.20492
263.00        69.34875
263.46        69.08042
263.91        68.53207
264.37        67.03746
264.83        64.60286
265.28        61.63899
265.74        58.99969
266.19        57.36187
266.65        56.84931
267.11        57.03133
267.56        57.42505
268.02         57.2954
268.47        56.41964
268.93        55.06372
269.38        53.42144
269.84        51.85513
270.30        50.47039
270.75        49.15307
271.21        47.92535
271.66         46.7564
272.12         45.6524
272.57        44.64315
273.03        43.73099
273.48        42.87712
273.94        42.12458
274.39        41.41669
274.85         40.8254
275.31        40.31049
275.76        39.81992
276.22         39.3795
276.67        38.89886
277.13        38.36307
277.58        37.71395
278.04        36.99813
278.49         36.2053
278.95        35.45523
279.40        34.72101
279.86        34.05774
280.31         33.3879
280.77        32.71051
281.22        31.99429
281.68        31.33245
282.13        30.73923
282.59        30.31914
283.04        30.04887
283.50        29.91664
283.95         29.8828
284.41        29.89985
284.86        29.94156
285.32        30.04127
285.77        30.16633
286.22        30.34546
286.68        30.57549
287.13        30.78578
287.59        31.00054
288.04        31.21218
288.50        31.42578
288.95        31.60679
289.41        31.70411
289.86         31.5662
290.32         31.2459
290.77        30.81355
291.22        30.44911
291.68        30.39228
292.13        30.70238
292.59        31.35443
293.04        32.27216
293.50        33.34139
293.95        34.50406
294.40        35.78614
294.86        37.21056
295.31        38.80167
295.77        40.55577
296.22        42.41446
296.68        44.32065
297.13        46.18417
297.58        47.99936
298.04        49.79912
298.49        51.63288
298.95        53.60182
299.40        55.70533
299.85        57.90567
300.31        60.15737
300.76        62.36219
301.21        64.50408
301.67        66.63213
302.12        68.71734
302.58        70.81735
303.03         72.8956
303.48         74.9716
303.94        77.09225
304.39        79.24833
304.84        81.46932
305.30        83.75819
305.75        86.03485
306.20         88.2793
306.66        90.48959
307.11        92.62274
307.57        94.67933
308.02        96.53532
308.47        98.20942
308.93        99.72993
309.38        101.1701
309.83        102.7823
310.29         104.609
310.74        106.5769
311.19        108.4655
311.65         109.878
312.10        110.7131
312.55        111.0957
313.00        111.3412
313.46        111.9422
313.91        112.9805
314.36        114.3386
314.82        115.7386
315.27        116.7453
315.72         117.219
316.18        117.3352
316.63        117.2856
317.08        117.4204
317.53        117.8463
317.99        118.4506
318.44        119.1273
318.89        119.6745
319.35        120.0238
319.80        120.2407
320.25        120.4195
320.70        120.7058
321.16        121.1262
321.61        121.6712
322.06        122.1954
322.51         122.482
322.97        122.4717
323.42        122.2382
323.87        122.0109
324.32        122.1846
324.78        122.8011
325.23        123.8429
325.68        124.9079
326.13        125.3323
326.59        124.9621
327.04        124.0297
327.49        123.0201
327.94         122.738
328.39        123.3707
328.85        124.6353
329.30        126.2013
329.75         127.174
330.20        127.2676
330.66        126.7173
331.11          125.96
331.56        125.6059
332.01        125.8562
332.46        126.4943
332.92        127.2552
333.37        127.8881
333.82        128.2051
334.27        128.3576
334.72        128.4153
335.17        128.4597
335.63        128.5364
336.08        128.6754
336.53        128.9344
336.98        129.4759
337.43         130.316
337.88        131.3832
338.34        132.5323
338.79        133.6476
339.24        134.5786
339.69        135.3438
340.14        135.8545
340.59        135.9979
341.05        135.8295
341.50        135.3999
341.95         134.955
342.40        134.8701
342.85        135.2379
343.30        135.9576
343.75        136.8681
344.20        137.6803
344.66        138.2839
345.11        138.7456
345.56        139.0631
346.01        139.2447
346.46        139.3326
346.91        139.3359
347.36        139.3289
347.81        139.4518
348.26        139.7204
348.72        140.0679
349.17        140.4663
349.62        140.9061
350.07        141.3446
350.52        141.8029
350.97        142.0535
351.42        141.7428
351.87        140.8555
352.32        139.5192
352.77        138.1911
353.22        137.5394
353.67         137.677
354.13        138.4083
354.58        139.2656
355.03        139.4119
355.48        138.6396
355.93        137.2046
356.38        135.6185
356.83        134.6489
357.28        134.4446
357.73        134.7308
358.18        135.0579
358.63        134.7159
359.08        133.5375
359.53        131.7956
359.98        129.8662
360.43        128.2791
360.88        127.1667
361.33        126.3558
361.78         125.649
362.23         124.748
362.68        123.5881
363.13        122.3123
363.58        121.0416
364.03        119.9339
364.48        119.0199
364.93        118.2019
365.38        117.4504
365.83        116.7419
366.28        116.0501
366.73        115.3991
367.18        114.6862
367.63         113.741
368.08        112.5527
368.53        111.1768
368.98        109.8141
369.43        108.7855
369.88        108.1598
370.33        107.8472
370.78        107.6374
371.23        107.1797
371.68        106.3723
372.13        105.3047
372.58        104.1581
373.03        103.2226
373.48        102.5636
373.93        102.0796
374.38        101.5938
374.83        100.8405
375.28        99.77032
375.72        98.47367
376.17        97.19086
376.62        96.14751
377.07        95.41663
377.52        94.95104
377.97        94.61448
378.42        94.20662
378.87        93.67769
379.32         93.0348
379.77         92.4601
380.22         92.2665
380.67        92.47079
381.11        92.80602
381.56        93.18463
382.01         92.7276
382.46        91.46913
382.91        89.68726
383.36        87.92149
383.81        86.89643
384.26        86.72504
384.71        87.16129
385.15        87.85998
385.60        88.21716
386.05         88.0401
386.50        87.51072
386.95        86.76557
387.40        86.02245
387.85        85.37835
388.29        84.70876
388.74        84.14468
389.19        83.66031
389.64        83.24384
390.09        82.90675
390.54        82.61233
390.98        82.26822
391.43        81.90179
391.88        81.52226
392.33        81.16988
392.78        80.86939
393.23         80.6177
393.67        80.45558
394.12        80.39972
394.57        80.09714
395.02        79.63378
395.47        79.51872
395.91        79.69565
396.36        79.58263
396.81         79.1769
397.26        78.81043
397.71        78.51014
398.15        78.18589
398.60        77.94263
399.05        77.62222
399.50         77.2853
399.95        77.30386
400.39        77.57001
400.84        77.33047
401.29        76.62939
401.74        76.26852
402.18        76.22775
402.63        75.74568
403.08        74.98681
403.53        74.67992
403.97        74.85845
404.42        75.20436
404.87        75.51538
405.32        75.52041
405.76         75.1329
406.21         74.6031
406.66        74.07679
407.11        73.49908
407.55        73.10559
408.00        73.44095
408.45        74.28817
408.90        74.68681
409.34        74.40629
409.79        73.70489
410.24        72.87241
410.68        72.37759
411.13        72.32125
411.58        72.45272
412.03        72.62182
412.47         72.6741
412.92        72.51908
413.37         72.2453
413.81        71.94034
414.26        71.79708
414.71        71.82401
415.15         71.9788
415.60        72.16959
416.05        72.32888
416.49        72.42619
416.94         72.4774
417.39         72.4907
417.83        72.46127
418.28         72.4022
418.73        72.30628
419.17        72.21752
419.62         72.2155
420.07        72.30254
420.51        72.43043
420.96        72.56522
421.41        72.58359
421.85        72.44804
422.30        72.30289
422.74        72.10884
423.19        71.87806
423.64        71.60628
424.08        71.36837
424.53        71.24765
424.98         71.2874
425.42        71.49051
425.87        72.09232
426.31        72.80591
426.76         72.5195
427.21        71.47717
427.65        71.22598
428.10        71.72488
428.54        72.10399
428.99        71.77352
429.44        71.65351
429.88        71.70691
430.33        72.35303
430.77         73.2315
431.22        73.54842
431.66        73.20105
432.11        72.46288
432.56        71.66104
433.00        71.38111
433.45        71.80822
433.89        72.65311
434.34        73.20627
434.78         74.2704
435.23        73.11504
435.67        71.79308
436.12        72.02676
436.57        72.23155
437.01        72.77034
437.46        73.02312
437.90        73.06339
438.35        71.57704
438.79        72.10716
439.24        71.90703
439.68        71.95142
440.13        72.36134
440.57        73.03095
441.02         73.0304
441.46        72.47076
441.91        73.02355
442.35        74.18456
442.80        73.89378
443.24        72.53376
443.69        72.22116
444.13         72.9473
444.58        73.77635
445.02        73.56398
445.47        73.69144
445.91        73.87893
446.36        74.11061
446.80        74.35247
447.24         74.5255
447.69        74.62621
448.13        74.62579
448.58        74.58735
449.02        74.65393
449.47        74.79844
449.91        74.77897
450.36        74.61352
450.80        74.42606
451.25        74.29232
451.69        74.20923
452.13        74.20808
452.58        74.27384
453.02        74.38096
453.47        74.49696
453.91        74.58589
454.36        74.65108
454.80        74.64774
455.24        74.45426
455.69        74.07574
456.13        73.68237
456.58        73.37424
457.02          72.784
457.46         72.1716
457.91         72.4314
458.35        73.23878
458.79        73.33831
459.24        72.69397
459.68        71.89492
460.13         71.2684
460.57        70.96152
461.01        71.08881
461.46        71.48561
461.90        71.92634
462.34         72.4841
462.79        72.02698
463.23        72.09413
463.68        72.25814
464.12        72.14909
464.56        71.69669
465.01        70.85549
465.45        69.92221
465.89        69.77199
466.34        70.21381
466.78          70.527
467.22        70.72569
467.67        69.66058
468.11        70.17239
468.55        70.16283
468.99        70.36552
469.44        70.30825
469.88        70.00336
470.32        69.72151
470.77        69.51344
471.21        69.38397
471.65         69.3334
472.10        69.36555
472.54        69.45022
472.98        69.47376
473.42        69.39142
473.87        69.45875
474.31        69.54127
474.75        68.99854
475.20         68.0919
475.64        67.97759
476.08        68.57827
476.52        68.62891
476.97        68.03445
477.41        67.94441
477.85        68.17543
478.29        67.59028
478.74        67.88086
479.18        68.54488
479.62        68.66258
480.06        68.83008
480.50        68.59079
480.95        68.42642
481.39        68.45168
481.83        67.55563
482.27        67.83707
482.72        67.97326
483.16        67.92551
483.60        67.91046
484.04        68.05893
484.48        68.20029
484.93         68.2616
485.37        68.23898
485.81        67.21908
486.25        67.39436
486.69        68.88229
487.14        69.37472
487.58        67.70052
488.02        68.19402
488.46        67.02045
488.90        67.00403
489.34        68.20693
489.79        68.92561
490.23        68.63016
490.67        67.91521
491.11        66.98228
491.55        66.75256
491.99        67.16756
492.43        67.14602
492.88        66.67654
493.32        66.56194
493.76         66.8008
494.20        66.93164
494.64        66.91141
495.08        66.91271
495.52        66.93068
495.96         66.8416
496.41         66.6993
496.85        66.77841
497.29        66.91418
497.73        67.02987
498.17         66.3157
498.61        66.19331
499.05        66.29048
499.49        66.54225
499.93        66.58979
500.37        66.66659
500.82         66.6858
501.26        66.67619
501.70        66.65701
502.14         66.6569
502.58        66.69156
503.02        66.72709
503.46        66.76404
503.90         66.8489
504.34         66.9326
504.78        66.89729
505.22        66.72913
505.66        66.48005
506.10        66.22968
506.54        66.05199
506.98        65.96548
507.42        66.02558
507.86        66.21603
508.30         66.0491
508.74        66.22829
509.18        66.19285
509.62        66.15708
510.06        66.09918
510.50        66.03035
510.94        65.93901
511.38        65.85397
511.82         65.8446
512.26        65.91992
512.70        66.06464
513.14        66.22536
513.58        66.31249
514.02        66.30377
514.46        66.22035
514.90        66.11543
515.34        66.07842
515.78        66.12621
516.22        66.22408
516.66        66.31799
517.10        66.32169
517.54        66.21882
517.98        66.05148
518.42        65.85789
518.86        65.69573
519.30        65.58828
519.74        65.51595
520.18         65.4955
520.62        65.54565
521.06        65.66453
521.50        65.86453
521.93        66.07607
522.37        66.15105
522.81        66.07232
523.25        65.87573
523.69        65.66939
524.13        65.62453
524.57        65.76859
525.01        66.03912
525.45        66.31533
525.89        66.40076
526.32         66.2448
526.76         65.9409
527.20        65.58099
527.64        65.31137
528.08        65.18204
528.52        65.14764
528.96        65.19228
529.40         65.2934
529.83        65.42397
530.27        65.59142
530.71        65.75011
531.15        65.83018
531.59        65.81686
532.03        65.72543
532.46        65.57312
532.90        65.44143
533.34        65.34432
533.78         65.2284
534.22        65.11376
534.66        65.10773
535.09        65.16358
535.53        65.12835
535.97        64.98804
536.41         64.8891
536.85         64.8376
537.28        64.73324
537.72        64.63742
538.16        64.70112
538.60        64.93014
539.04        65.26787
539.47        65.58408
539.91        65.72359
540.35        65.63951
540.79        65.39063
541.22        65.07697
541.66        64.88131
542.10        64.84373
542.54        64.90837
542.97        65.00429
543.41        65.04887
543.85        65.00838
544.29        64.93286
544.72        64.82886
545.16        64.73893
545.60        64.66586
546.04        64.59937
546.47         64.5784
546.91        64.66004
547.35        64.84026
547.79        65.10515
548.22        65.36358
548.66        65.45163
549.10        65.41524
549.53        65.27299
549.97        65.09763
550.41        64.86385
550.84         64.6731
551.28        64.69299
551.72        64.84473
552.15        64.98263
552.59        65.14694
553.03        64.69219
553.46         65.1097
553.90        65.05473
554.34        64.98711
554.77        64.88844
555.21        64.83597
555.65        64.84934
556.08        64.89912
556.52        65.11584
556.96        65.19455
557.39        65.16432
557.83        64.98328
558.27        64.72216
558.70        64.44476
559.14        64.32239
559.57        64.34386
560.01        64.32317
560.45        64.27045
560.88        64.44959
561.32        64.79881
561.75         64.8773
562.19        64.73318
562.63        64.68715
563.06        64.76241
563.50        64.86097
563.93        64.88526
564.37        64.85258
564.80        64.78608
565.24        64.58263
565.68        64.15301
566.11        64.73251
566.55        64.01455
566.98        63.87803
567.42        63.77246
567.85        63.95041
568.29        64.36581
568.72         64.7841
569.16         65.2183
569.60        65.37263
570.03        65.36174
570.47        65.61613
570.90        65.83817
571.34        64.97166
571.77        65.30431
572.21        65.86358
572.64         65.6942
573.08        65.63017
573.51        65.11819
573.95        65.17031
574.38        65.87378
574.82        65.59705
575.25        65.38374
575.69        65.37203
576.12        65.56723
576.56        64.73666
576.99        64.78412
577.42        65.16487
577.86        65.33878
578.29         66.1946
578.73        65.89722
579.16        65.90248
579.60        65.42371
580.03        65.50422
580.47        65.09634
580.90         65.9869
581.33        65.78465
581.77        65.82341
582.20        65.76476
582.64        66.34385
583.07        65.79708
583.51        65.40318
583.94        64.97218
584.37        65.13469
584.81        65.51987
585.24         65.8094
585.68        65.68596
586.11        65.91375
586.54        65.79762
586.98        64.76212
587.41        64.33878
587.85        65.10931
588.28        64.93172
588.71        64.71202
589.15        64.48836
589.58        64.97761
590.01        64.67982
590.45        64.55886
590.88        65.28999
591.31         65.1929
591.75        64.73484
592.18        64.38999
592.61        64.34515
593.05        64.91823
593.48        65.68886
593.91        65.48601
594.35        65.09362
594.78        64.45555
595.21        64.01916
595.65        64.31779
596.08        65.33756
596.51        65.38382
596.94        64.75373
597.38        64.46847
597.81        64.60873
598.24        65.31544
598.68        64.79101
599.11         64.6826
599.54        65.51146
599.97        65.09907
600.41        65.07124
600.84         64.5462
601.27        64.88269
601.70        64.62737
602.14        64.68385
602.57        64.46236
603.00        64.43555
603.43        64.07764
603.87        64.91875
604.30        64.95791
604.73        64.70044
605.16        64.31061
605.60        64.27459
606.03        64.00005
606.46        63.56986
606.89        64.08791
607.32        64.45515
607.76        64.03616
608.19        64.38249
608.62        64.25972
609.05        64.14259
609.48        63.99878
609.92        64.64671
610.35        64.57784
610.78        64.47651
611.21        64.14691
611.64        64.35288
612.07        64.41832
612.50        64.22114
612.94        64.12316
613.37        63.99174
613.80        64.17058
614.23        63.58292
614.66        63.58469
615.09        64.03445
615.52          64.084
615.96        63.72712
616.39        63.87545
616.82         64.2368
617.25        63.46498
617.68        63.76785
618.11        63.83748
618.54        64.23782
618.97        64.28473
619.40        64.00558
619.84        63.81401
620.27        63.71643
620.70        63.78647
621.13        63.91523
621.56         63.5761
621.99        62.86992
622.42        62.67316
622.85        63.04734
623.28        62.73653
623.71         63.0927
624.14        62.87597
624.57        63.53016
625.00        63.42838
625.43        63.49555
625.86        63.39231
626.29        63.41491
626.72        62.91781
627.15        63.20434
627.58        63.27306
628.01        63.38849
628.44        63.23941
628.87        62.89085
629.30        62.64872
629.73        62.54576
630.16        62.79012
630.59        62.70135
631.02        62.97394
631.45        63.32673
631.88        63.55731
632.31        63.61063
632.74        63.54789
633.17        63.40995
633.60        63.25023
634.03        63.10197
634.46        62.94582
634.89        62.78846
635.32        62.66051
635.75        62.57302
636.18        62.45945
636.61        62.35653
637.04        62.35509
637.47        62.45652
637.89        62.62284
638.32         62.7672
638.75        62.81015
639.18        62.72984
639.61        62.55294
640.04        62.35291
640.47        62.24787
640.90        62.26928
641.33        62.38711
641.76        62.54701
642.18        62.66423
642.61        62.69066
643.04         62.6574
643.47        62.60566
643.90        62.60214
644.33        62.65797
644.76        62.74596
645.18        62.81905
645.61        62.78522
646.04        62.64236
646.47        62.44064
646.90        62.23723
647.33        62.11231
647.75        62.06276
648.18        62.10275
648.61        62.26315
649.04        62.35576
649.47        62.28492
649.89        63.05708
650.32        62.90724
650.75        62.78337
651.18        62.33153
651.61         62.2583
652.03        62.57796
652.46        62.74192
652.89        62.69385
653.32        62.65552
653.74        62.73188
654.17        62.35912
654.60        62.68534
655.03        62.55894
655.46        62.13494
655.88        62.34712
656.31        64.88351
656.74        67.01526
657.16        66.98398
657.59        66.73818
658.02        63.57262
658.45        63.35369
658.87        62.33763
659.30        62.48074
659.73        62.78438
660.15        63.85709
660.58        62.58184
661.01        62.41398
661.44        62.51367
661.86         62.2788
662.29        61.71066
662.72        62.02623
663.14        62.00454
663.57         61.9813
664.00        61.70615
664.42        61.77198
664.85         62.1878
665.27        62.63644
665.70        62.94539
666.13        63.04351
666.55        62.89692
666.98        62.45544
667.41        61.86564
667.83        61.77539
668.26        61.60723
668.69        61.81116
669.11         62.0947
669.54        62.28806
669.96        62.34003
670.39        62.30214
670.82         62.2373
671.24        62.21966
671.67        62.27011
672.09        62.33068
672.52         62.3889
672.94        62.41804
673.37        62.40317
673.80        62.30529
674.22        62.16921
674.65        62.08133
675.07        62.07442
675.50        62.09035
675.92        62.11264
676.35        62.11744
676.77          62.098
677.20        62.06524
677.62        62.02982
678.05        62.00666
678.47        61.99737
678.90        61.99688
679.32        62.00809
679.75        62.04127
680.17        62.08866
680.60        62.17432
681.02        62.26928
681.45        62.26497
681.87        62.19336
682.30        62.18253
682.72        62.25065
683.15        62.29395
683.57        62.31026
684.00        62.30135
684.42        62.29645
684.85        62.34856
685.27        62.44732
685.70        62.60346
686.12        62.74249
686.54        62.69421
686.97        62.48207
687.39        62.33082
687.82        62.27372
688.24        62.21151
688.66        62.15919
689.09          62.207
689.51        62.32687
689.94        62.40477
690.36        62.43015
690.78        62.36464
691.21        62.26743
691.63        62.35978
692.06        62.59531
692.48        62.65147
692.90        62.51142
693.33        62.42463
693.75        62.39753
694.17        62.24756
694.60        62.05347
695.02        62.04015
695.44        62.20658
695.87        62.47102
696.29        62.73107
696.71        62.68484
697.14        62.38736
697.56        62.23497
697.98        62.28375
698.41        62.31972
698.83        62.29445
699.25        62.45585
699.68        62.67055
700.10        62.69279
700.52        62.46957
700.94        62.09296
701.37        61.72267
701.79        61.61738
702.21        61.82448
702.64        62.24436
703.06        62.72523
703.48        63.00267
703.90         63.0011
704.33        62.80296
704.75        62.50874
705.17        62.27294
705.59        62.15701
706.01        62.11385
706.44        62.13062
706.86        62.20857
707.28        62.32302
707.70        62.47498
708.12        62.64455
708.55        62.79377
708.97        62.90071
709.39        62.92537
709.81        62.87787
710.23        62.83562
710.66        62.80913
711.08        62.77641
711.50        62.71562
711.92        62.62317
712.34        62.50396
712.76        62.37646
713.19        62.25259
713.61        62.18518
714.03        62.17471
714.45        62.21289
714.87        62.30491
715.29        62.45897
715.71        62.66158
716.13        62.89252
716.56        63.09231
716.98        63.24855
717.40        63.31122
717.82         63.2912
718.24        63.19444
718.66        63.03425
719.08        62.84022
719.50        62.63661
719.92        62.46989
720.34        62.40403
720.76         62.4512
721.19        62.57079
721.61        62.77409
722.03        63.02876
722.45        63.29879
722.87        63.57067
723.29         63.7625
723.71        63.74888
724.13        63.51769
724.55        63.11969
724.97        62.66759
725.39        62.35382
725.81         62.2397
726.23         62.2591
726.65        62.36396
727.07        62.60781
727.49        62.73021
727.91        62.93135
728.33        63.12895
728.75        63.30137
729.17        63.43223
729.59        63.50587
730.01        63.52991
730.43        63.52668
730.85        63.50391
731.27        63.46076
731.69        63.39064
732.10        63.28038
732.52        63.13255
732.94        62.97053
733.36        62.84769
733.78        62.72263
734.20        62.59322
734.62        62.70765
735.04        63.10085
735.46        62.62127
735.88        63.14745
736.30        63.24321
736.72        63.44114
737.13        63.73215
737.55        64.00497
737.97         63.9884
738.39        63.71523
738.81        63.61033
739.23        63.67872
739.65        63.59968
740.06        63.38624
740.48        63.32166
740.90         63.3905
741.32        63.48954
741.74        63.59339
742.16        63.69111
742.57        63.76792
742.99         63.8114
743.41        63.81977
743.83        63.77269
744.25        63.67474
744.67        63.52947
745.08        63.39989
745.50        63.36168
745.92        63.43867
746.34         63.6051
746.75        63.78995
747.17        63.86307
747.59        63.80367
748.01        63.65066
748.42        63.46858
748.84        63.38698
749.26        63.43781
749.68        63.50196
750.09          63.545
750.51        63.69426
750.93        63.84309
751.35        63.63058
751.76        63.14314
752.18         62.8637
752.60        62.83251
753.01        62.81379
753.43        62.76421
753.85        62.74747
754.27        62.75945
754.68         62.8007
755.10        62.87196
755.52        62.96564
755.93        63.06153
756.35        63.14338
756.77        63.26833
757.18        63.35986
757.60        63.40217
758.02         63.7306
758.43        64.25542
758.85        63.41966
759.26        63.48694
759.68        62.79891
760.10        62.97612
760.51        63.02848
760.93        63.16588
761.34        63.38287
761.76        63.59761
762.18        63.62596
762.59        63.54008
763.01        63.64313
763.42        63.98177
763.84        64.12109
764.26        64.05226
764.67        64.08385
765.09        64.19109
765.50        63.92834
765.92        63.43666
766.33        63.22003
766.75        63.24783
767.16        63.21115
767.58        63.06037
768.00        63.02461
768.41        63.13912
768.83        63.31543
769.24        63.49603
769.66        63.67028
770.07        63.78441
770.49         63.6381
770.90        63.37239
771.32        63.61489
771.73        64.24725
772.15        64.42471
772.56        64.10864
772.97         63.7353
773.39        63.46108
773.80        63.36235
774.22        63.46893
774.63        63.80223
775.05        64.18298
775.46        64.38667
775.88        64.32172
776.29        64.07563
776.70        63.78391
777.12        63.69118
777.53        63.86359
777.95        64.18229
778.36        64.53598
778.77         64.7057
779.19        64.65266
779.60        64.47471
780.02        64.22546
780.43        64.06511
780.84        64.05836
781.26        63.87281
781.67         63.6346
782.09        64.15931
782.50        65.15325
782.91        65.14938
783.33        64.23298
783.74        63.85003
784.15         64.0735
784.57        64.08118
784.98        63.90099
785.39        63.89825
785.81        64.11095
786.22        64.56844
786.63        65.11727
787.04        65.37884
787.46        65.30559
787.87        65.03646
788.28           64.73
788.70        64.55979
789.11        64.55414
789.52         64.7225
789.93        64.95377
790.35        64.95777
790.76        64.74923
791.17        64.60921
791.58        64.58894
792.00        64.53378
792.41        64.47311
792.82        64.54535
793.23         64.7038
793.65        64.70828
794.06        64.59095
794.47        64.63979
794.88         64.8242
795.29        64.86523
795.71        64.71993
796.12           64.62
796.53        64.59052
796.94        64.47699
797.35        64.34927
797.76        64.53354
798.18        64.92717
798.59        65.11115
799.00        65.02023
799.41        64.87468
799.82        64.76497
800.23        64.75576
800.64        64.87336
801.06        65.05489
801.47        65.27322
801.88         65.3945
802.29        65.37866
802.70        65.27063
803.11        65.08662
803.52        64.85159
803.93        64.60606
804.34        64.35743
804.75        64.18296
805.17        64.22448
805.58        64.53378
805.99        64.94622
806.40        65.37387
806.81        65.89455
807.22        66.33048
807.63        66.18726
808.04        65.58694
808.45          65.204
808.86        65.13063
809.27        65.03726
809.68        64.89667
810.09        64.81814
810.50        64.80143
810.91        64.82615
811.32        64.92333
811.73        65.13269
812.14        65.43882
812.55        65.80872
812.96        66.12747
813.37        66.18996
813.78        65.95297
814.19        65.50857
814.60        64.97845
815.01        64.52115
815.42        64.18227
815.83         63.9162
816.24        63.76471
816.65         63.7983
817.05        64.02518
817.46         64.4077
817.87        64.81753
818.28        65.00846
818.69        64.92954
819.10        64.61561
819.51        64.25551
819.92        64.20364
820.33        64.54331
820.74        65.15972
821.14        65.80668
821.55        66.08622
821.96        65.90812
822.37        65.40311
822.78        64.78607
823.19        64.41911
823.60        64.42024
824.00        64.70291
824.41        65.09399
824.82        65.39504
825.23         65.5145
825.64        65.51839
826.04        65.45432
826.45        65.35624
826.86        65.26212
827.27        65.15569
827.68        65.03213
828.08        64.92138
828.49        64.78827
828.90        64.65819
829.31        64.58385
829.72        64.64181
830.12        64.85801
830.53         65.1488
830.94        65.41128
831.35        65.42773
831.75        65.16637
832.16        64.68311
832.57        64.13617
832.97        63.75637
833.38        63.61855
833.79        63.64466
834.20        63.80708
834.60          64.054
835.01        64.35271
835.42        64.75919
835.82        65.18552
836.23        65.39996
836.64        65.38263
837.04         65.1476
837.45        64.92569
837.86        65.16643
838.26        65.96571
838.67        67.14676
839.08        68.30195
839.48        68.66259
839.89        68.03912
840.29        66.72412
840.70        65.30898
841.11         64.4649
841.51        64.37055
841.92        64.80578
842.33        65.55466
842.73        66.22865
843.14        66.56741
843.54        66.73728
843.95        66.79473
844.35        66.88086
844.76        67.01657
845.17        67.12217
845.57         67.1606
845.98        67.07033
846.38        66.86526
846.79        66.58295
847.19        66.28156
847.60        66.01791
848.00        65.82978
848.41        65.68567
848.81        65.60976
849.22        65.55917
849.62        65.55856
850.03         65.6044
850.43        65.68658
850.84        65.72284
851.24        65.73636
851.65         65.6778
852.05        65.67094
852.46        65.83114
852.86        66.16428
853.27        66.60654
853.67        66.95383
854.07        67.03447
854.48        66.80139
854.88        66.34986
855.29        65.75475
855.69        65.28573
856.10        64.98146
856.50        64.84445
856.90        64.83064
857.31        64.87479
857.71        64.98965
858.12        65.14065
858.52        65.29855
858.92        65.30294
859.33        65.10118
859.73        64.75385
860.13        64.32577
860.54        63.96349
860.94        63.75875
861.34         63.6777
861.75        63.65731
862.15         63.6238
862.55        63.53645
862.96         63.3892
863.36        63.29424
863.76        63.36013
864.17        63.58336
864.57        63.93367
864.97        64.22341
865.38        64.17993
865.78        63.78214
866.18        63.11428
866.58        62.39264
866.99        61.99993
867.39        62.07935
867.79         62.5186
868.19        63.14481
868.60        63.66933
869.00        64.02894
869.40         64.2689
869.80        64.45229
870.21        64.68526
870.61        65.03063
871.01        65.37168
871.41        65.56384
871.81        65.42504
872.22        64.94198
872.62        64.19124
873.02        63.40121
873.42        62.95185
873.82        62.95465
874.22        63.30608
874.63        63.78153
875.03        64.03076
875.43        63.94021
875.83        63.61506
876.23        63.21056
876.63        62.97031
877.03        62.96053
877.44        63.06849
877.84         63.2078
878.24        63.26618
878.64        63.16433
879.04        62.81827
879.44        62.39904
879.84        62.27079
880.24        62.47061
880.64        62.84906
881.04        63.19477
881.44        63.20077
881.84         62.7984
882.24        62.09129
882.65        61.34584
883.05        60.96835
883.45        61.05995
883.85        61.51471
884.25        62.08995
884.65        62.37013
885.05        62.24706
885.45        61.85521
885.85        61.43224
886.25        61.33755
886.65        61.64785
887.05        62.23158
887.45        62.88198
887.85        63.26427
888.25        63.27383
888.65        63.01417
889.04        62.63322
889.44        62.38623
889.84        62.33309
890.24        62.39785
890.64        62.48384
891.04         62.4452
891.44        62.24665
891.84         61.9539
892.24        61.66322
892.64        61.49391
893.04        61.49014
893.44        61.64905
893.83        61.89604
894.23        62.06044
894.63        62.11772
895.03        62.06337
895.43        62.07892
895.83        62.47058
896.23        63.24635
896.63        64.26956
897.02        65.12901
897.42        65.20275
897.82        64.40057
898.22        63.00192
898.62        61.46225
899.01        60.45276
899.41        60.16718
899.81        60.38491
900.21        60.92989
900.61        61.50613
901.00        61.96382
901.40        62.37328
901.80        62.64471
902.20        62.62147
902.59        62.31133
902.99         61.7507
903.39         61.0959
903.79         60.6312
904.18        60.44335
904.58        60.46652
904.98        60.69891
905.38        61.12737
905.77        61.70526
906.17        62.44484
906.57         63.1301
906.96        63.39882
907.36        63.16764
907.76        62.54107
908.15        61.85333
908.55         61.6357
908.95        62.01271
909.34        62.82435
909.74        63.72252
910.14        64.20784
910.53        64.10416
910.93        63.60371
911.33        62.86224
911.72        62.09933
912.12        61.49179
912.52        61.00402
912.91        60.67453
913.31         60.5817
913.70        60.72896
914.10        61.06129
914.49        61.62088
914.89        62.37594
915.29        63.27242
915.68        64.27698
916.08        65.06784
916.47        65.20438
916.87        64.64098
917.26        63.51449
917.66        62.31343
918.05        61.63395
918.45        61.61825
918.84        62.15441
919.24        62.89582
919.64        63.34242
920.03        63.34032
920.42        63.00218
920.82          62.619
921.21        62.58704
921.61        62.97551
922.00        63.67239
922.40        64.35313
922.79        64.60505
923.19        64.29274
923.58        63.60783
923.98        62.84888
924.37        62.38042
924.77        62.31198
925.16        62.49185
925.55        62.81021
925.95          63.058
926.34        63.16385
926.74        63.18078
927.13        63.08231
927.52        62.75461
927.92        62.26198
928.31        61.63655
928.70        61.06962
929.10        60.83388
929.49        60.97026
929.89        61.34999
930.28        61.94072
930.67        62.56415
931.07        63.09293
931.46        63.62422
931.85        63.93965
932.24        63.74724
932.64        63.07758
933.03        62.00545
933.42        60.98129
933.82         60.6548
934.21        61.15487
934.60        62.35731
934.99        63.81274
935.39        64.68839
935.78          64.768
936.17        64.17967
936.56         63.3733
936.96        63.06664
937.35        63.42254
937.74        64.21039
938.13        64.95206
938.53        64.92944
938.92        64.02016
939.31        62.53245
939.70        60.98977
940.09        60.11467
940.49        60.04939
940.88        60.61571
941.27        61.48333
941.66        62.04424
942.05        62.09794
942.44        61.84246
942.84        61.52747
943.23        61.52959
943.62        61.94551
944.01        62.58424
944.40        63.28715
944.79        63.83997
945.18        64.13393
945.57        64.21862
945.97        64.03326
946.36        63.58459
946.75        62.88972
947.14        62.03121
947.53        61.14369
947.92        60.39646
948.31        59.85272
948.70        59.49886
949.09        59.37612
949.48        59.53318
949.87        59.94509
950.26        60.56229
950.65        61.23928
951.04        61.74339
951.43        61.98196
951.82        61.97972
952.21        61.78516
952.60         61.5014
952.99        61.21113
953.38        60.94875
953.77         60.7467
954.16        60.65545
954.55        60.67718
954.94         60.7491
955.33        60.97305
955.72        61.50177
956.11         62.3082
956.50        63.35521
956.89         64.1668
957.28        63.96431
957.66        62.65274
958.05        60.57095
958.44        58.50068
958.83        57.56498
959.22        57.96659
959.61        59.37803
960.00         61.1874
960.39         62.2236
960.78        62.08726
961.16        61.15086
961.55        59.90283
961.94         58.9692
962.33        58.55651
962.72        58.48361
963.11         58.6615
963.49        58.98489
963.88        59.29683
964.27        59.61898
964.66        60.02456
965.04         60.6391
965.43        61.40943
965.82        62.32945
966.21        62.96803
966.60        62.57262
966.98        61.04352
967.37        58.78128
967.76        56.62652
968.15        55.61524
968.53        55.91293
968.92        57.27905
969.31        59.10495
969.69        60.13079
970.08        59.85675
970.47        58.68788
970.86        57.37926
971.24        57.01047
971.63        57.81988
972.02        59.49252
972.40         61.4666
972.79        62.39666
973.17        61.91745
973.56        60.50777
973.95        58.89874
974.33        58.02182
974.72        58.08237
975.11        58.75546
975.49        59.72243
975.88        60.33038
976.26        60.36534
976.65        60.00912
977.04        59.42029
977.42        58.78692
977.81        58.17651
978.19        57.51902
978.58        57.00118
978.96        56.89248
979.35        57.21502
979.74        57.93529
980.12        58.87074
980.51        59.43784
980.89        59.58811
981.28         59.4403
981.66        59.22869
982.05        59.28829
982.43        59.71546
982.82        60.34392
983.20        61.22356
983.59        62.34471
983.97         63.6746
984.35        65.17217
984.74         66.3343
985.12        66.56137
985.51         65.7104
985.89        64.05632
986.28        62.29236
986.66        61.37867
987.04        61.61525
987.43        62.71196
987.81        64.30899
988.20        65.54859
988.58        66.05689
988.96        65.93989
989.35        65.37283
989.73        64.61237
990.12        63.76674
990.50        62.84986
990.88        61.72253
991.27        60.26003
991.65        58.60233
992.03        56.90923
992.42        55.80373
992.80        56.07413
993.18        57.82565
993.56        60.89972
993.95        64.30833
994.33        66.25611
994.71        66.00906
995.10         64.0939
995.48        61.69645
995.86         60.7209
996.24        61.60486
996.63        63.71993
997.01         66.3215
997.39        67.52724
997.77        66.64821
998.15        64.48713
998.54        61.77443
998.92        59.38312
999.30        57.73167
999.68         56.5363
1000.06        56.04269
1000.45        56.59544
1000.83        58.25616
1001.21        61.06408
1001.59        64.39503
1001.97        66.56731
1002.35         66.9136
1002.73        65.85954
1003.12        64.37009
1003.50        63.70034
1003.88        64.25368
1004.26        65.51292
1004.64        67.31223
1005.02        69.19689
1005.40        70.75808
1005.78        72.26803
1006.16        72.93293
1006.54        71.49428
1006.92        68.07254
1007.30        63.22503
1007.69        58.71613
1008.07        56.90419
1008.45        58.42743
1008.83        62.80928
1009.21        68.70026
1009.59        72.59428
1009.97        72.76844
1010.35        70.20184
1010.73        66.23269
1011.11         62.8638
1011.49        60.80073
1011.86        59.44309
1012.24        58.79803
1012.62        58.93188
1013.00        59.73446
1013.38        61.31428
1013.76        63.32631
1014.14          64.654
1014.52        64.74754
1014.90        63.82938
1015.28        62.26102
1015.66        60.64563
1016.04         59.2105
1016.41        57.78949
1016.79        56.73872
1017.17        56.74832
1017.55        57.88113
1017.93        59.91091
1018.31        62.08358
1018.69         63.3187
1019.06        63.41166
1019.44        62.55767
1019.82        61.19221
1020.20        60.44709
1020.58        60.74403
1020.95        61.53764
1021.33        62.51648
1021.71        63.23818
1022.09        63.64396
1022.46        64.10832
1022.84        64.27498
1023.22        63.44399
1023.60        61.60207
1023.97        58.89101
1024.35        56.76781
1024.73        56.74508
