SpectraSmart Spectrum 2.9.0.0
--------- Device Information -----------
Spectrum Name :  反射率_0
Saving Time :  2024/04/26 23:53:22
Spectro-Module Model Name : SE2030-DUVN
Spectro-Module Serial Number : OS361AC55029948
Wavelength Start : 200
Wavelength End : 1025
Wavelength Unit : Wavelength(nm)
Spectrum Unit : Reflectance(%)
-----------Spectrum Setting ------------
Integration Time : 20ms
Average : 10
Boxcar : 0
Background removal :  enabled
linearity correction :  enabled
SC :  disabled
Intensity correction :  disabled
DWT denoise :  enabled
savitzky-golay :  disabled
FFT :  disabled
Running average :  disabled
Kalman :  disabled
High pass :  disabled
---------------BEGIN--------------------
Wavelength(nm)             Reflectance(%)
200.29               0
200.75        34.75063
201.21        34.43871
201.67        35.31015
202.13        36.98322
202.58        39.33535
203.04        43.46892
203.50        48.72956
203.96        51.81636
204.42        50.51722
204.88        44.42239
205.34        37.18589
205.80        36.30622
206.26        42.64142
206.72        52.43839
207.18        60.76016
207.64         63.5885
208.10        60.81303
208.55        53.36068
209.01        41.24755
209.47         32.7781
209.93        34.23283
210.39        40.80597
210.85        47.59703
211.31        53.23353
211.77        59.36614
212.23        69.91528
212.69        95.11475
213.14        143.3271
213.60        151.5098
214.06        125.3559
214.52        103.1372
214.98        88.74139
215.44        77.05965
215.90        64.56534
216.36        53.53606
216.81         48.4577
217.27        51.18801
217.73        63.08991
218.19           81.69
218.65        89.08908
219.11        78.51935
219.57         61.8822
220.02        50.75003
220.48         50.8086
220.94        61.14163
221.40        82.39616
221.86        113.4243
222.32        132.8495
222.77        123.0054
223.23        98.66332
223.69        75.44404
224.15          61.839
224.61        56.02731
225.06        53.59844
225.52        53.15257
225.98        53.28769
226.44        53.48567
226.90        54.27165
227.36        54.84301
227.81        53.74467
228.27        51.13294
228.73        47.49837
229.19        44.33318
229.65        43.35796
230.10        44.56576
230.56        47.39971
231.02        50.45415
231.48        51.47803
231.93        50.09104
232.39        47.43821
232.85         44.9124
233.31        44.36104
233.77        45.92958
234.22        48.91581
234.68        52.24843
235.14        54.35947
235.60         54.7833
236.05        54.05423
236.51        52.64403
236.97        51.61227
237.43        51.51211
237.88        52.08427
238.34        53.31915
238.80        55.50816
239.26        58.88338
239.71        64.28537
240.17        71.32149
240.63        78.37129
241.08        84.13555
241.54        87.46127
242.00        90.04938
242.46        96.72158
242.91        111.3624
243.37        136.3036
243.83        172.2016
244.28         202.457
244.74        202.5926
245.20        173.3413
245.66        137.3685
246.11        114.5403
246.57        105.5296
247.03        104.1421
247.48        105.5797
247.94         102.856
248.40        96.24042
248.85        89.70348
249.31        84.80397
249.77        81.00506
250.22        77.46156
250.68        72.95141
251.14        67.91375
251.59        65.41993
252.05        67.34736
252.51        72.65591
252.96         77.3923
253.42         78.3039
253.88        75.86784
254.33        71.51636
254.79        68.62405
255.25        69.72779
255.70        74.43643
256.16        81.54281
256.62        87.83177
257.07        88.50478
257.53        84.80305
257.99        79.58698
258.44        75.11452
258.90        73.65075
259.35        74.10466
259.81        75.76361
260.27         77.2254
260.72        76.90753
261.18        75.11717
261.63        72.31293
262.09        69.79379
262.55        68.28854
263.00        67.62231
263.46        67.57201
263.91         67.2645
264.37        66.00291
264.83         63.7773
265.28        60.99003
265.74        58.47866
266.19        56.91134
266.65        56.41282
267.11        56.55787
267.56        56.88741
268.02        56.69906
268.47        55.79496
268.93        54.46431
269.38        52.87919
269.84        51.36309
270.30        50.02012
270.75         48.7298
271.21        47.60148
271.66        46.74237
272.12        46.14814
272.57        45.77604
273.03        45.42211
273.48        44.72546
273.94        43.68624
274.39        42.38861
274.85        41.13071
275.31        40.17745
275.76        39.55021
276.22        39.18522
276.67        38.89856
277.13        38.53883
277.58        38.00367
278.04        37.37771
278.49        36.67819
278.95        36.05907
279.40        35.49013
279.86        34.99842
280.31        34.45635
280.77        33.80574
281.22        33.01645
281.68        32.21564
282.13        31.48153
282.59        31.00833
283.04        30.78111
283.50        30.75215
283.95        30.82639
284.41        30.86882
284.86        30.82864
285.32        30.77246
285.77          30.698
286.22        30.67367
286.68        30.71409
287.13        30.74612
287.59         30.7993
288.04        30.87464
288.50        30.98393
288.95        31.09604
289.41        31.16672
289.86        31.05207
290.32        30.79381
290.77        30.44412
291.22        30.15293
291.68        30.12014
292.13        30.38944
292.59        30.93712
293.04        31.68953
293.50        32.54369
293.95        33.44624
294.40        34.41851
294.86        35.48928
295.31        36.69329
295.77        38.03244
296.22        39.45765
296.68        40.90901
297.13        42.28654
297.58        43.58863
298.04        44.85981
298.49        46.17088
298.95        47.65335
299.40        49.31638
299.85        51.11095
300.31        52.97933
300.76        54.80756
301.21        56.56877
301.67        58.31407
302.12        60.00746
302.58        61.68668
303.03        63.32067
303.48        64.92738
303.94        66.57398
304.39         68.2951
304.84        70.12083
305.30        72.04304
305.75        73.95372
306.20        75.77825
306.66        77.50469
307.11        79.11383
307.57        80.65289
308.02        82.08649
308.47        83.44505
308.93        84.73627
309.38         85.9705
309.83        87.28274
310.29        88.69752
310.74        90.18064
311.19        91.61398
311.65        92.77064
312.10        93.58495
312.55        94.12091
313.00        94.56779
313.46        95.22881
313.91        96.14551
314.36        97.25125
314.82        98.36331
315.27        99.19985
315.72        99.66653
316.18        99.88183
316.63        99.96656
317.08        100.1585
317.53        100.5308
317.99        101.0041
318.44        101.5227
318.89        101.9654
319.35        102.2907
319.80        102.5485
320.25        102.7735
320.70        103.0182
321.16         103.295
321.61        103.6136
322.06        103.9374
322.51         104.223
322.97        104.4428
323.42        104.6138
323.87        104.7967
324.32        105.1132
324.78         105.545
325.23        106.1294
325.68        106.6633
326.13        106.8286
326.59        106.5695
327.04        106.0217
327.49         105.459
327.94        105.3474
328.39         105.795
328.85        106.6261
329.30        107.6979
329.75          108.49
330.20        108.8252
330.66         108.819
331.11        108.6799
331.56        108.6758
332.01        108.9056
332.46        109.2488
332.92         109.604
333.37        109.9785
333.82        110.2836
334.27          110.59
334.72        110.8505
335.17        110.9562
335.63        110.9083
336.08        110.8089
336.53        110.8201
336.98         111.259
337.43        112.1822
337.88        113.4512
338.34        114.8582
338.79         116.168
339.24        117.1892
339.69        117.9769
340.14        118.4304
340.59        118.4201
341.05        118.0178
341.50        117.2859
341.95        116.5608
342.40        116.3562
342.85        116.7939
343.30        117.7513
343.75        118.9606
344.20        119.9471
344.66        120.5512
345.11        120.8776
345.56        121.0483
346.01        121.2748
346.46        121.6263
346.91         122.029
347.36        122.3945
347.81        122.6155
348.26        122.6671
348.72        122.5859
349.17         122.499
349.62        122.6325
350.07        123.0149
350.52        123.5906
350.97        124.0781
351.42        124.0297
351.87        123.3823
352.32        122.2962
352.77        121.1843
353.22        120.6462
353.67         120.797
354.13        121.4549
354.58        122.2419
355.03        122.4857
355.48        122.0098
355.93        121.0138
356.38        119.9012
356.83        119.2779
357.28        119.2551
357.73        119.6073
358.18        119.9508
358.63        119.6815
359.08        118.6662
359.53        117.1465
359.98        115.4637
360.43        114.0981
360.88        113.1766
361.33        112.5523
361.78        112.0572
362.23        111.4337
362.68        110.6122
363.13        109.6936
363.58        108.7713
364.03        107.9681
364.48        107.3005
364.93        106.6921
365.38        106.0737
365.83         105.358
366.28        104.5307
366.73        103.6477
367.18         102.738
367.63        101.8335
368.08        100.9587
368.53        100.1067
368.98        99.33092
369.43        98.71149
369.88        98.25152
370.33        97.92463
370.78        97.62586
371.23        97.18542
371.68        96.55564
372.13        95.76671
372.58        94.92446
373.03        94.20445
373.48        93.64284
373.93        93.18493
374.38        92.71207
374.83        92.04236
375.28        91.14636
375.72         90.0808
376.17        89.03639
376.62        88.17999
377.07        87.56767
377.52        87.17172
377.97        86.88166
378.42        86.53131
378.87        86.07867
379.32        85.53925
379.77        85.08009
380.22        84.94682
380.67        85.14639
381.11        85.61819
381.56        85.97424
382.01        85.66602
382.46        84.62489
382.91         83.1049
383.36        81.58502
383.81        80.71814
384.26         80.6106
384.71        81.03906
385.15        81.69607
385.60        82.04337
386.05        81.90744
386.50        81.44849
386.95        80.78976
387.40        80.12775
387.85        79.54948
388.29        78.94401
388.74        78.42715
389.19        77.96438
389.64        77.54828
390.09        77.19751
390.54        76.89703
390.98        76.59119
391.43         76.3126
391.88        76.05719
392.33        75.84607
392.78        75.68649
393.23        75.56745
393.67        75.50645
394.12        75.52143
394.57        75.33409
395.02        75.00023
395.47         74.8855
395.91        74.95813
396.36        74.80091
396.81        74.43073
397.26        74.10887
397.71        73.82944
398.15        73.49511
398.60        73.20596
399.05        72.78995
399.50        72.38184
399.95        72.49606
400.39        73.00385
400.84        73.05215
401.29        72.60126
401.74        72.28639
402.18        72.13251
402.63        71.70916
403.08        71.14767
403.53        70.83717
403.97        70.81403
404.42        70.97022
404.87        71.16592
405.32        71.15368
405.76        70.87228
406.21        70.49598
406.66        70.11536
407.11        69.78109
407.55        69.62962
408.00        69.75746
408.45        70.08126
408.90        70.43932
409.34        70.59861
409.79        70.11717
410.24        69.24615
410.68        68.82517
411.13        68.93919
411.58        69.14087
412.03         69.2674
412.47        69.24202
412.92        68.98888
413.37        68.58121
413.81        68.15281
414.26        67.95592
414.71         68.0114
415.15         68.2716
415.60        68.60442
416.05        68.85509
416.49        68.96564
416.94        68.97162
417.39        68.93012
417.83        68.91409
418.28        68.95387
418.73        69.02058
419.17        69.09516
419.62        69.15713
420.07        69.18734
420.51        69.16917
420.96        69.14793
421.41        69.11037
421.85        69.02586
422.30        69.03661
422.74        69.02557
423.19        68.74127
423.64        68.25113
424.08        68.03559
424.53        68.10004
424.98        68.15582
425.42        68.21166
425.87        68.34692
426.31        68.54406
426.76        68.83423
427.21        69.12141
427.65        68.98422
428.10         68.4921
428.54        68.32896
428.99        68.57815
429.44        68.48271
429.88        68.22028
430.33        68.96244
430.77        70.23457
431.22        70.58801
431.66        69.98417
432.11        69.20482
432.56        68.61923
433.00        68.59106
433.45        69.19685
433.89         69.9687
434.34        70.21453
434.78         70.6323
435.23        69.58327
435.67        67.51788
436.12        68.83749
436.57        68.98008
437.01        69.17304
437.46        69.25391
437.90        69.24281
438.35        68.91306
438.79        68.87626
439.24        68.83745
439.68        68.95188
440.13        69.23208
440.57        69.65776
441.02        69.89448
441.46        69.93723
441.91        70.46902
442.35        71.16602
442.80         71.0365
443.24        70.23203
443.69        70.05476
444.13        70.50723
444.58         70.6726
445.02        70.53813
445.47        70.65507
445.91        70.99953
446.36        71.28986
446.80        71.48138
447.24        71.65522
447.69        71.78571
448.13        71.81356
448.58        71.77046
449.02        71.64801
449.47        71.48478
449.91         71.5017
450.36        71.37072
450.80        71.38071
451.25        71.43111
451.69        71.46715
452.13        71.48878
452.58        71.50775
453.02        71.52469
453.47        71.53576
453.91        71.52711
454.36        71.51787
454.80        71.49024
455.24        71.32824
455.69        71.02992
456.13        70.91049
456.58        70.67377
457.02         70.3503
457.46        70.00704
457.91        70.27555
458.35        70.87272
458.79        70.86272
459.24        70.26551
459.68        69.45496
460.13        68.73792
460.57        68.47844
461.01        68.82885
461.46        68.75503
461.90        69.67388
462.34        70.08263
462.79        70.33106
463.23        70.44763
463.68        70.36803
464.12         70.1392
464.56        69.70705
465.01        68.89198
465.45        67.95912
465.89        67.63213
466.34        67.82729
466.78        68.34188
467.22        69.00983
467.67        68.19275
468.11        67.83531
468.55        67.77885
468.99         68.4581
469.44        68.56763
469.88         68.0853
470.32        67.75888
470.77        67.65369
471.21        67.55364
471.65        67.46535
472.10        67.46211
472.54        67.50816
472.98        67.52832
473.42        67.49476
473.87        67.50702
474.31        67.50239
474.75        67.26323
475.20        66.87862
475.64        66.80858
476.08        67.06441
476.52        66.96297
476.97        66.42287
477.41        66.74685
477.85        66.70309
478.29        66.04612
478.74        66.69691
479.18        66.73737
479.62        66.82108
480.06         66.8352
480.50        66.78284
480.95        66.78142
481.39        66.80817
481.83        66.40793
482.27        66.52522
482.72        66.41585
483.16        66.32536
483.60        66.34292
484.04        66.42432
484.48         66.7543
484.93        67.13812
485.37        66.87746
485.81        66.14677
486.25        66.19312
486.69        66.41965
487.14        67.24374
487.58        65.77132
488.02        67.07106
488.46        65.63754
488.90        65.66472
489.34        66.72372
489.79        67.48695
490.23        67.16991
490.67        66.58104
491.11        65.80626
491.55        65.61172
491.99        65.95329
492.43         65.9362
492.88        65.55633
493.32        65.47362
493.76        65.68649
494.20        65.83392
494.64        65.88306
495.08         65.9126
495.52        65.91916
495.96        65.94099
496.41        65.95218
496.85        65.87666
497.29        65.65577
497.73        65.61187
498.17        65.00346
498.61        65.10714
499.05        65.57898
499.49        65.80494
499.93        65.50671
500.37        65.47735
500.82        65.70567
501.26        65.49087
501.70        65.69176
502.14        65.66099
502.58        65.67136
503.02        65.71916
503.46        65.80764
503.90        65.90885
504.34        65.97461
504.78        65.95551
505.22        65.83014
505.66        65.65245
506.10         65.4939
506.54        65.33758
506.98        65.17818
507.42        65.49058
507.86        65.41801
508.30        65.42399
508.74        65.45054
509.18        65.37615
509.62        65.28341
510.06        65.21649
510.50        65.19849
510.94         65.2031
511.38        65.22087
511.82        65.24194
512.26        65.26221
512.70        65.29115
513.14        65.32771
513.58        65.36931
514.02        65.41522
514.46        65.45178
514.90         65.4782
515.34        65.54781
515.78        65.66611
516.22        65.72522
516.66        65.66338
517.10        65.87807
517.54          65.577
517.98        65.42238
518.42        65.23128
518.86          65.104
519.30        65.05981
519.74        65.08191
520.18        65.16231
520.62        65.26288
521.06        65.37031
521.50        65.49824
521.93        65.62055
522.37        65.67431
522.81        65.65789
523.25        65.57456
523.69        65.48305
524.13        65.48312
524.57        65.58418
525.01        65.74577
525.45         65.8879
525.89        65.87923
526.32        65.68995
526.76        65.39786
527.20        65.06194
527.64        64.78014
528.08        64.59276
528.52        64.46389
528.96        64.41972
529.40        64.51604
529.83         64.7296
530.27        65.01218
530.71        65.27102
531.15        65.40163
531.59        65.38274
532.03        65.19776
532.46        64.91847
532.90        64.81445
533.34        64.93326
533.78        64.81499
534.22        65.03148
534.66         65.0587
535.09        65.01316
535.53        64.76769
535.97         64.3988
536.41         64.1768
536.85        64.13458
537.28        64.14568
537.72        64.19499
538.16        64.30969
538.60        64.46866
539.04        64.65597
539.47        64.82271
539.91        64.93667
540.35        64.97042
540.79        64.93271
541.22        64.84023
541.66        64.74386
542.10        64.65859
542.54        64.58791
542.97        64.51848
543.41        64.45666
543.85        64.39345
544.29        64.33577
544.72        64.30311
545.16        64.34083
545.60        64.43378
546.04        64.63128
546.47        64.86562
546.91        64.88287
547.35        64.72958
547.79        64.73997
548.22        64.89359
548.66        64.93118
549.10        64.88783
549.53        64.76625
549.97        64.61288
550.41        64.41328
550.84        64.25179
551.28        64.24375
551.72        64.33524
552.15        64.46629
552.59         64.6845
553.03        64.30215
553.46        64.77949
553.90        64.75446
554.34         64.6563
554.77         64.5086
555.21        64.39403
555.65        64.40392
556.08        64.53339
556.52        64.71133
556.96        64.86025
557.39        65.02998
557.83        65.14564
558.27        64.88088
558.70        64.35355
559.14        64.12339
559.57        64.20676
560.01        64.27529
560.45        64.29165
560.88        64.41015
561.32        64.60364
561.75        64.66893
562.19         64.6201
562.63        64.53269
563.06        64.44257
563.50        64.39285
563.93        64.34595
564.37        64.39948
564.80        64.54092
565.24        64.48096
565.68         64.0958
566.11          64.735
566.55        64.08199
566.98        63.88676
567.42        63.63935
567.85        63.79647
568.29        64.29034
568.72        64.64667
569.16        64.89745
569.60        64.95998
570.03        65.01525
570.47        65.11899
570.90        65.44064
571.34        64.42895
571.77         64.9372
572.21        65.34577
572.64        64.87504
573.08        65.31257
573.51        64.63977
573.95        64.62543
574.38        64.87772
574.82        65.09263
575.25        64.55918
575.69        64.47208
576.12        64.69006
576.56        64.15358
576.99        64.43248
577.42        64.36117
577.86        64.49596
578.29        65.36076
578.73        65.18097
579.16        65.12148
579.60        64.64906
580.03        64.78678
580.47        64.65076
580.90         65.3505
581.33        65.11356
581.77        65.62197
582.20        65.16061
582.64        65.39483
583.07        64.85883
583.51        64.66277
583.94        64.67191
584.37        65.10925
584.81        65.21777
585.24         65.2631
585.68        65.04975
586.11        65.00462
586.54        64.92706
586.98        64.31087
587.41        64.15381
587.85        64.45435
588.28        64.53468
588.71        64.15862
589.15        64.08225
589.58        64.53865
590.01        64.29411
590.45        64.07194
590.88        65.05782
591.31        64.97438
591.75        64.42485
592.18        64.13722
592.61        64.03824
593.05        64.59494
593.48        65.39504
593.91         65.0658
594.35        64.70442
594.78         64.0752
595.21        63.72541
595.65        63.96994
596.08        64.81511
596.51        65.09086
596.94        64.84597
597.38        64.31365
597.81        64.46568
598.24         65.1578
598.68        64.37621
599.11        64.11469
599.54        65.52831
599.97        64.76814
600.41         64.6892
600.84        64.13367
601.27        64.73076
601.70        64.37577
602.14        64.71276
602.57        64.42144
603.00         64.1898
603.43        63.51781
603.87        64.48892
604.30        64.71531
604.73        64.89545
605.16        63.94585
605.60        64.35439
606.03        63.96341
606.46        63.61727
606.89        63.55431
607.32        64.16779
607.76        64.25426
608.19        64.28235
608.62        64.21887
609.05        64.26953
609.48        64.28707
609.92        65.06641
610.35        64.74731
610.78        64.15257
611.21        63.94032
611.64        64.13587
612.07        64.40476
612.50        64.33842
612.94        64.30211
613.37        64.11135
613.80        64.43923
614.23          63.626
614.66        63.64721
615.09        63.96164
615.52        64.16116
615.96           64.16
616.39          64.187
616.82        64.25738
617.25        64.11535
617.68        63.84613
618.11        63.95415
618.54        64.36208
618.97        64.36423
619.40        63.97055
619.84        64.04114
620.27        64.00791
620.70        64.15585
621.13        64.21306
621.56        63.86731
621.99        63.30688
622.42        63.08467
622.85        63.31481
623.28        63.28138
623.71        63.23536
624.14         63.3697
624.57        64.17531
625.00        63.29287
625.43          63.888
625.86        63.68922
626.29        63.73203
626.72         63.0794
627.15        63.64666
627.58        63.69412
628.01        63.59612
628.44         63.9864
628.87        63.89412
629.30        63.20823
629.73        63.39463
630.16        63.26351
630.59        63.33316
631.02        63.54991
631.45        63.86396
631.88        64.05283
632.31        64.03757
632.74        64.16086
633.17         63.9495
633.60        63.84255
634.03        63.71667
634.46        63.58096
634.89        63.44295
635.32        63.28579
635.75        63.21923
636.18        63.09766
636.61        62.98842
637.04        62.98568
637.47        63.09267
637.89        63.26886
638.32        63.42705
638.75        63.48951
639.18        63.43184
639.61        63.27842
640.04        63.09452
640.47        62.98644
640.90        62.98325
641.33        63.05801
641.76        63.16578
642.18         63.2379
642.61        63.23304
643.04        63.18272
643.47        63.12352
643.90        63.11164
644.33        63.15871
644.76         63.2442
645.18        63.33042
645.61        63.34082
646.04        63.27067
646.47        63.15321
646.90        63.03655
647.33        62.98529
647.75        62.98831
648.18        63.07589
648.61        63.25247
649.04        63.27492
649.47         63.0558
649.89        63.64466
650.32        63.32664
650.75        63.16035
651.18        62.78264
651.61         62.8703
652.03        63.39071
652.46        63.53682
652.89        63.26585
653.32         63.2797
653.74        63.70408
654.17        62.80979
654.60        63.56091
655.03        63.10927
655.46        62.62009
655.88        62.84949
656.31         64.8904
656.74        66.04399
657.16        65.18779
657.59        65.14639
658.02        63.59755
658.45         64.4905
658.87        63.21209
659.30        63.37299
659.73        63.25696
660.15        64.62028
660.58        63.37133
661.01        63.23144
661.44        63.16519
661.86        62.93885
662.29        62.54591
662.72         62.9148
663.14         62.8177
663.57        62.79398
664.00        62.58176
664.42        62.64877
664.85        63.00595
665.27        63.39935
665.70        63.68103
666.13        63.79158
666.55        63.70299
666.98        63.36129
667.41        62.87785
667.83        62.85027
668.26        62.67629
668.69         62.8275
669.11        63.03867
669.54        63.19169
669.96        63.24848
670.39        63.24666
670.82        63.22014
671.24        63.19163
671.67        63.17382
672.09        63.14122
672.52        63.11512
672.94        63.09317
673.37         63.0812
673.80        63.07386
674.22        63.07856
674.65        63.06916
675.07        63.05745
675.50        63.03785
675.92        63.00494
676.35        62.93824
676.77        62.84212
677.20        62.72397
677.62        62.61957
678.05        62.58498
678.47        62.62775
678.90        62.73395
679.32        62.86078
679.75         62.9513
680.17        62.98491
680.60        62.98113
681.02        62.96369
681.45        62.97218
681.87        63.02989
682.30        63.09432
682.72        63.16835
683.15        63.26064
683.57        63.35537
684.00        63.35096
684.42          63.282
684.85        63.29303
685.27        63.38398
685.70        63.49198
686.12         63.5589
686.54        63.53736
686.97        63.41473
687.39        63.22048
687.82         63.0081
688.24        62.88214
688.66        62.86774
689.09        62.93379
689.51        63.05607
689.94        63.16306
690.36        63.23501
690.78        63.27236
691.21         63.2924
691.63        63.31334
692.06        63.34709
692.48        63.40343
692.90        63.43608
693.33        63.37978
693.75        63.22441
694.17        62.95722
694.60        62.71531
695.02        62.70793
695.44        62.93592
695.87        63.40114
696.29        63.89167
696.71        63.72866
697.14        63.03282
697.56        62.70074
697.98        62.82697
698.41        62.85544
698.83        62.79165
699.25        63.05217
699.68        63.48023
700.10        63.64601
700.52        63.46421
700.94        63.08023
701.37        62.66664
701.79        62.50366
702.21        62.65508
702.64        63.01093
703.06         63.4403
703.48        63.71977
703.90        63.77711
704.33        63.67813
704.75        63.49703
705.17         63.3438
705.59        63.26374
706.01        63.22144
706.44        63.19832
706.86        63.19432
707.28        63.19734
707.70        63.20415
708.12        63.23413
708.55         63.3391
708.97        63.49265
709.39        63.56621
709.81        63.55809
710.23        63.58773
710.66        63.65405
711.08        63.69807
711.50        63.68107
711.92        63.59805
712.34        63.45446
712.76        63.26534
713.19        63.07649
713.61        63.00132
714.03        63.05093
714.45        63.19877
714.87        63.40639
715.29        63.61251
715.71        63.78728
716.13        63.93143
716.56        64.01758
716.98        64.09157
717.40        64.12376
717.82         64.1087
718.24         64.0352
718.66        63.88855
719.08          63.689
719.50         63.4725
719.92         63.2916
720.34        63.21689
720.76        63.26333
721.19        63.38589
721.61        63.59516
722.03        63.85913
722.45        64.14133
722.87        64.42819
723.29        64.63815
723.71        64.64521
724.13        64.43487
724.55        64.05875
724.97        63.63245
725.39        63.32325
725.81        63.18625
726.23        63.21576
726.65        63.38083
727.07        63.46486
727.49        63.68308
727.91        63.85175
728.33        64.03103
728.75        64.18903
729.17        64.31197
729.59        64.38039
730.01        64.39098
730.43        64.36068
730.85        64.29818
731.27        64.21064
731.69        64.10349
732.10        63.98154
732.52        63.84996
732.94        63.72282
733.36        63.65314
733.78        63.59062
734.20        63.52825
734.62         63.7313
735.04        64.20459
735.46         63.7156
735.88        64.16175
736.30        64.11629
736.72        64.19722
737.13        64.40419
737.55        64.65716
737.97        64.97089
738.39        65.19895
738.81        64.92599
739.23        64.31139
739.65          64.224
740.06        64.63107
740.48        64.80943
740.90        64.72095
741.32        64.83868
741.74        65.13183
742.16        65.27924
742.57        65.24936
742.99        65.12276
743.41        64.95434
743.83        64.80872
744.25        64.71224
744.67        64.63209
745.08        64.59342
745.50        64.61437
745.92        64.69868
746.34        64.84165
746.75        64.98254
747.17        65.00574
747.59        64.89904
748.01        64.69752
748.42        64.48601
748.84        64.40402
749.26        64.47993
749.68        64.66026
750.09        64.87711
750.51        65.01765
750.93        65.04701
751.35        65.02776
751.76        64.94332
752.18         64.7597
752.60        64.48866
753.01         64.1713
753.43        63.87039
753.85        63.71504
754.27        63.74436
754.68        63.93445
755.10        64.21748
755.52        64.47523
755.93        64.65082
756.35        64.75043
756.77        64.82521
757.18        64.85863
757.60        64.84599
758.02        65.02043
758.43        65.29191
758.85        64.68639
759.26        64.29392
759.68        64.05086
760.10        64.23339
760.51        64.48164
760.93        64.75284
761.34        64.46092
761.76        64.70447
762.18        64.94421
762.59        65.44238
763.01        65.57761
763.42        65.39794
763.84         65.3271
764.26        65.40112
764.67        65.33365
765.09        65.17257
765.50        65.00732
765.92         64.8941
766.33         64.8112
766.75        64.70657
767.16        64.66032
767.58        64.63229
768.00        64.53745
768.41         64.4662
768.83        64.69559
769.24        65.10783
769.66        65.32484
770.07        65.30434
770.49        65.03325
770.90        64.72887
771.32        65.16235
771.73        66.13503
772.15        66.45296
772.56        66.03993
772.97        65.53781
773.39        65.15476
773.80        64.95711
774.22        64.99548
774.63        65.29195
775.05        65.66339
775.46        65.87609
775.88           65.83
776.29        65.62324
776.70        65.35311
777.12        65.20125
777.53        65.22819
777.95        65.32995
778.36        65.47459
778.77        65.57745
779.19        65.62992
779.60        65.68811
780.02        65.70981
780.43        65.71606
780.84        65.73521
781.26        65.43819
781.67        65.02866
782.09        65.53514
782.50        66.66129
782.91        66.71612
783.33        65.75955
783.74        65.37238
784.15        65.62378
784.57        65.57901
784.98        65.29937
785.39        65.31415
785.81        65.64163
786.22        66.13316
786.63        66.63017
787.04        66.87808
787.46        66.83045
787.87        66.55305
788.28        66.20892
788.70        66.01714
789.11        66.01131
789.52        66.17648
789.93        66.40526
790.35        66.44836
790.76        66.30125
791.17        66.16254
791.58        66.09829
792.00        66.03581
792.41        66.00653
792.82        66.13671
793.23        66.35632
793.65        66.31378
794.06        66.08491
794.47        66.17893
794.88        66.52737
795.29        66.62625
795.71        66.42419
796.12        66.25642
796.53        66.18894
796.94        66.12955
797.35        66.13963
797.76        66.42668
798.18        66.85599
798.59        67.06769
799.00        66.98558
799.41        66.76803
799.82        66.54388
800.23        66.47639
800.64        66.61015
801.06        66.86172
801.47        67.14625
801.88        67.23113
802.29         67.0574
802.70        66.70075
803.11        66.27625
803.52         65.9686
803.93        65.85502
804.34        65.89429
804.75        66.04195
805.17        66.25983
805.58        66.55463
805.99        66.75129
806.40        66.87315
806.81         67.3534
807.22        67.98978
807.63         67.8512
808.04        67.07226
808.45        66.67927
808.86        66.76984
809.27        66.82157
809.68        66.74126
810.09        66.62678
810.50        66.46416
810.91        66.23009
811.32        66.07207
811.73         66.2188
812.14        66.69958
812.55        67.44865
812.96        68.20911
813.37        68.50021
813.78        68.19405
814.19        67.45766
814.60        66.59076
815.01        66.00716
815.42        65.80195
815.83         65.8603
816.24        66.06229
816.65          66.175
817.05        66.12416
817.46        65.98575
817.87        65.83941
818.28        65.74268
818.69        65.72295
819.10        65.72797
819.51        65.81224
819.92        66.08652
820.33         66.5397
820.74        67.12118
821.14        67.66124
821.55        67.88507
821.96        67.73893
822.37         67.3031
822.78        66.74293
823.19        66.34974
823.60        66.22511
824.00         66.3212
824.41        66.51418
824.82        66.68375
825.23        66.76422
825.64        66.79777
826.04        66.80579
826.45        66.77391
826.86        66.72752
827.27        66.67763
827.68        66.60847
828.08        66.53408
828.49        66.41445
828.90        66.25211
829.31        66.16748
829.72          66.354
830.12        66.85227
830.53        67.55779
830.94        68.19421
831.35        68.24429
831.75        67.61886
832.16        66.46305
832.57        65.21287
832.97        64.54118
833.38        64.61523
833.79        65.21891
834.20        66.04471
834.60        66.59712
835.01         66.7321
835.42        66.64109
835.82        66.44946
836.23        66.29333
836.64        66.27402
837.04        66.29126
837.45         66.4241
837.86        66.88499
838.26        67.69688
838.67        68.76138
839.08        69.75819
839.48        70.06182
839.89        69.52158
840.29        68.35704
840.70        67.09378
841.11        66.32293
841.51        66.20255
841.92        66.54527
842.33        67.15642
842.73        67.68165
843.14        67.88727
843.54        67.94256
843.95        67.91715
844.35        67.97257
844.76        68.12962
845.17        68.29762
845.57        68.43881
845.98        68.48379
846.38        68.43224
846.79        68.31932
847.19        68.14707
847.60        67.88789
848.00        67.57001
848.41        67.18224
848.81        66.85044
849.22        66.70161
849.62         66.8041
850.03        67.11494
850.43        67.50682
850.84        67.70061
851.24        67.66904
851.65        67.41058
852.05        67.16853
852.46        67.26598
852.86        67.76077
853.27        68.51138
853.67        69.17866
854.07        69.41695
854.48        69.14365
854.88        68.50299
855.29        67.67022
855.69        67.09579
856.10        66.87099
856.50        66.95215
856.90        67.16833
857.31        67.24714
857.71        67.15018
858.12         66.9012
858.52        66.63236
858.92        66.44122
859.33        66.35349
859.73         66.3802
860.13         66.4097
860.54        66.29135
860.94        66.04221
861.34        65.69689
861.75        65.41879
862.15        65.51083
862.55        65.99914
862.96        66.74061
863.36        67.53314
863.76        67.95466
864.17        67.86755
864.57        67.42353
864.97        66.74313
865.38        66.03056
865.78         65.4063
866.18        64.82153
866.58        64.35893
866.99        64.15687
867.39        64.26938
867.79        64.68381
868.19         65.2558
868.60        65.72327
869.00        66.03907
869.40        66.20165
869.80         66.3205
870.21        66.60999
870.61        67.14493
871.01        67.77668
871.41        68.23437
871.81        68.15354
872.22        67.49436
872.62        66.38158
873.02        65.18309
873.42        64.52694
873.82        64.59124
874.22         65.1982
874.63        65.97171
875.03        66.31593
875.43        66.06078
875.83         65.4019
876.23        64.62328
876.63        64.15836
877.03        64.12955
877.44        64.36793
877.84        64.71877
878.24        64.95258
878.64        64.94225
879.04        64.63207
879.44        64.23521
879.84        64.17277
880.24         64.4888
880.64        65.01278
881.04        65.46013
881.44        65.40569
881.84         64.7744
882.24        63.73475
882.65        62.67439
883.05        62.18084
883.45        62.40306
883.85        63.18071
884.25        64.19732
884.65         64.9038
885.05        65.12459
885.45        65.00928
885.85        64.78794
886.25        64.82111
886.65        65.19086
887.05        65.75457
887.45        66.32117
887.85        66.59134
888.25        66.48522
888.65        66.12495
889.04        65.66108
889.44        65.34444
889.84        65.23084
890.24        65.23219
890.64        65.28783
891.04        65.30427
891.44        65.24386
891.84        65.16141
892.24        65.03085
892.64         64.7908
893.04        64.46494
893.44        64.09588
893.83        63.81248
894.23        63.78124
894.63        64.05376
895.03        64.53826
895.43        65.15482
895.83         65.7727
896.23        66.29814
896.63        66.72856
897.02          66.935
897.42        66.75288
897.82        66.19414
898.22        65.37013
898.62        64.48779
899.01        63.84959
899.41        63.56131
899.81        63.53342
900.21         63.7354
900.61        64.09789
901.00        64.54929
901.40        65.08292
901.80        65.55093
902.20        65.71514
902.59        65.54409
902.99        65.09352
903.39         64.5275
903.79        64.13414
904.18        63.99356
904.58        64.02921
904.98        64.20558
905.38        64.46323
905.77        64.76752
906.17        65.17252
906.57        65.53722
906.96        65.62318
907.36        65.38089
907.76        64.86752
908.15        64.39079
908.55        64.43392
908.95        65.08427
909.34         66.1925
909.74        67.31516
910.14         67.8009
910.53        67.46002
910.93        66.53757
911.33        65.35625
911.72        64.40302
912.12        63.90643
912.52         63.7343
912.91         63.7898
913.31        63.94566
913.70        64.13828
914.10        64.37022
914.49        64.71603
914.89        65.19382
915.29        65.79482
915.68        66.48853
916.08        66.98682
916.47        66.91793
916.87        66.25494
917.26        65.10976
917.66        63.98958
918.05        63.50217
918.45        63.77615
918.84        64.71217
919.24        65.82188
919.64         66.3606
920.03        66.13554
920.42        65.32346
920.82        64.48932
921.21        64.46378
921.61        65.39845
922.00        67.05719
922.40        68.79488
922.79        69.62001
923.19        69.22038
923.58        67.97058
923.98        66.46497
924.37        65.49339
924.77        65.28121
925.16        65.55252
925.55        66.06052
925.95        66.36741
926.34        66.33245
926.74        66.09907
927.13        65.74557
927.52        65.30112
927.92        64.86385
928.31        64.40488
928.70        64.01527
929.10         63.8278
929.49        63.84922
929.89        63.98595
930.28         64.3096
930.67        64.81566
931.07        65.42563
931.46        66.19455
931.85        66.77471
932.24        66.66244
932.64        65.84621
933.03        64.47226
933.42         63.1417
933.82        62.72962
934.21        63.40791
934.60        64.97414
934.99        66.84063
935.39        67.92837
935.78         67.9407
936.17        67.08004
936.56        65.90108
936.96        65.28623
937.35        65.46372
937.74        66.16927
938.13        66.90421
938.53        66.91395
938.92        66.06479
939.31        64.68651
939.70        63.31448
940.09        62.68692
940.49        62.93697
940.88        63.85484
941.27        65.07056
941.66        65.91016
942.05        66.13369
942.44        65.94656
942.84        65.58461
943.23        65.41225
943.62        65.54655
944.01        65.81848
944.40        66.14939
944.79        66.45032
945.18        66.65035
945.57        66.78098
945.97        66.73468
946.36        66.41804
946.75        65.81757
947.14        65.05714
947.53         64.2787
947.92        63.67069
948.31        63.30247
948.70        63.12167
949.09        63.21766
949.48        63.72612
949.87        64.61324
950.26        65.79853
950.65        66.96021
951.04        67.57751
951.43        67.50364
951.82        66.84794
952.21        65.90032
952.60         65.1647
952.99        64.81898
953.38        64.77453
953.77        64.86759
954.16        64.82441
954.55        64.56577
954.94        64.15965
955.33        63.80714
955.72        63.83161
956.11        64.29609
956.50        65.09985
956.89        65.84286
957.28        65.87718
957.66        65.06972
958.05        63.67813
958.44        62.25592
958.83        61.59466
959.22         61.8476
959.61        62.80487
960.00        63.99373
960.39        64.53191
960.78        64.16167
961.16        63.17236
961.55         62.0961
961.94        61.62508
962.33         61.9347
962.72        62.83321
963.11        63.99324
963.49        64.81522
963.88        64.97903
964.27         64.6526
964.66        64.19934
965.04        64.18655
965.43        64.68645
965.82        65.58218
966.21        66.40041
966.60         66.2776
966.98        65.02412
967.37        63.07172
967.76         61.1756
968.15        60.25431
968.53        60.46617
968.92        61.57546
969.31        63.04725
969.69        63.80818
970.08         63.4339
970.47        62.29287
970.86        61.07159
971.24        60.74402
971.63        61.50699
972.02        63.05216
972.40        64.85293
972.79        65.62463
973.17        65.03413
973.56        63.56543
973.95        61.85017
974.33        60.66547
974.72        60.21012
975.11        60.21357
975.49        60.58172
975.88        61.08188
976.26        61.62412
976.65        62.25186
977.04        62.82634
977.42        63.08325
977.81        62.94746
978.19        62.42553
978.58        61.86477
978.96        61.82342
979.35        62.40123
979.74        63.48624
980.12        64.71056
980.51        65.17537
980.89        64.78473
981.28         63.7963
981.66        62.75248
982.05         62.3975
982.43        62.90709
982.82        64.03569
983.20        65.54263
983.59        66.85116
983.97        67.78052
984.35        68.44856
984.74         68.7618
985.12        68.83295
985.51        68.66024
985.89        68.20485
986.28        67.74021
986.66        67.62924
987.04        67.99633
987.43        68.73414
987.81        69.55592
988.20        69.75593
988.58         69.1673
988.96        67.93568
989.35        66.48526
989.73        65.39599
990.12        64.80041
990.50        64.62105
990.88        64.52338
991.27        63.95663
991.65        62.85354
992.03        61.44055
992.42         60.3144
992.80        60.25493
993.18        61.40172
993.56        63.54942
993.95        65.92825
994.33        67.23114
994.71        66.91281
995.10         65.4599
995.48         63.7114
995.86        63.01759
996.24        63.69747
996.63         65.2223
997.01         67.2524
997.39        68.69351
997.77        69.04198
998.15        68.77457
998.54        67.92625
998.92        66.39484
999.30        64.44975
999.68        62.14275
1000.06        60.32835
1000.45        60.23463
1000.83        62.13605
1001.21        65.83852
1001.59        70.31316
1001.97        72.97248
1002.35        72.79796
1002.73        70.57068
1003.12        67.68971
1003.50           65.92
1003.88        65.78593
1004.26        66.59874
1004.64        68.15112
1005.02        69.93457
1005.40        71.52645
1005.78        73.29518
1006.16        74.36543
1006.54        73.31786
1006.92        70.21597
1007.30        65.55398
1007.69        61.25101
1008.07        59.96232
1008.45        62.37562
1008.83        67.97096
1009.21        74.98302
1009.59        78.98069
1009.97        77.93789
1010.35        73.18834
1010.73        66.87659
1011.11        62.08129
1011.49        59.71206
1011.86        58.87128
1012.24        59.06422
1012.62        59.67072
1013.00        60.46065
1013.38        61.76374
1013.76        63.60175
1014.14         65.6079
1014.52         67.3959
1014.90        68.68044
1015.28        69.29367
1015.66        69.30832
1016.04          68.828
1016.41        67.88219
1016.79        66.66776
1017.17        65.65575
1017.55        65.04967
1017.93         64.8075
1018.31        64.84844
1018.69        64.96912
1019.06        65.12291
1019.44        65.41274
1019.82        65.70709
1020.20        65.71933
1020.58        65.32121
1020.95        64.40009
1021.33        63.52017
1021.71        63.24263
1022.09         63.6455
1022.46        64.87432
1022.84         66.0685
1023.22        65.35365
1023.60        62.38139
1023.97        57.87727
1024.35        54.22519
1024.73        54.04062
