SpectraSmart Spectrum 2.9.0.0
--------- Device Information -----------
Spectrum Name :  反射率_0
Saving Time :  2024/04/27 00:00:07
Spectro-Module Model Name : SE2030-DUVN
Spectro-Module Serial Number : OS361AC55029948
Wavelength Start : 200
Wavelength End : 1025
Wavelength Unit : Wavelength(nm)
Spectrum Unit : Reflectance(%)
-----------Spectrum Setting ------------
Integration Time : 20ms
Average : 10
Boxcar : 0
Background removal :  enabled
linearity correction :  enabled
SC :  disabled
Intensity correction :  disabled
DWT denoise :  enabled
savitzky-golay :  disabled
FFT :  disabled
Running average :  disabled
Kalman :  disabled
High pass :  disabled
---------------BEGIN--------------------
Wavelength(nm)             Reflectance(%)
200.29               0
200.75        30.31971
201.21        34.70459
201.67        38.70839
202.13        40.27277
202.58        39.27266
203.04        36.54942
203.50         32.8951
203.96        31.00866
204.42        32.78454
204.88        37.40322
205.34        43.59836
205.80        48.74063
206.26        51.34272
206.72        51.96002
207.18         50.8223
207.64         47.8484
208.10        42.93394
208.55        35.36722
209.01        25.14555
209.47        19.37614
209.93        22.40765
210.39        29.76152
210.85        36.88091
211.31        42.66079
211.77        48.95196
212.23        59.71555
212.69        84.37252
213.14        127.5921
213.60        128.8354
214.06        100.2959
214.52        79.49794
214.98        68.70982
215.44         62.2111
215.90        56.54168
216.36        52.00998
216.81        49.64694
217.27        50.03331
217.73        54.11908
218.19         60.4405
218.65        61.13519
219.11        54.52711
219.57        46.10117
220.02        41.04667
220.48        42.03407
220.94        48.64548
221.40        61.75996
221.86        80.58234
222.32        91.85313
222.77        84.95838
223.23        69.07622
223.69        54.52871
224.15         47.0086
224.61        44.97486
225.06        45.33884
225.52        46.52388
225.98        46.85553
226.44        46.14866
226.90        45.14148
227.36        44.08488
227.81        43.29061
228.27        43.01402
228.73        42.88799
229.19        43.05714
229.65        43.80546
230.10        45.01951
230.56        46.58401
231.02        47.88158
231.48         47.9299
231.93        46.60597
232.39        44.60646
232.85         42.5314
233.31        41.19313
233.77        40.69164
234.22        40.78226
234.68        41.19336
235.14        41.63317
235.60        41.99696
236.05        42.47179
236.51        42.95682
236.97        43.20317
237.43        43.15713
237.88        42.82268
238.34        42.59571
238.80        43.45554
239.26        45.81589
239.71        50.09908
240.17        55.69327
240.63        60.56902
241.08        63.30459
241.54         63.3807
242.00         62.5529
242.46        65.06059
242.91        74.03359
243.37        91.02335
243.83        117.4514
244.28        143.6471
244.74        152.1061
245.20        140.0327
245.66        119.5614
246.11        103.1955
246.57        92.63976
247.03        84.75542
247.48        77.04811
247.94        67.70631
248.40        59.01814
248.85        52.60938
249.31        49.21237
249.77          48.539
250.22        49.91627
250.68        53.27935
251.14        57.79588
251.59        60.19075
252.05        59.01107
252.51        56.03166
252.96        52.76186
253.42        50.98409
253.88        50.69519
254.33         50.7779
254.79        52.21441
255.25        55.65692
255.70        60.68143
256.16        66.96276
256.62        71.93054
257.07        71.68984
257.53        67.68959
257.99        62.52991
258.44        58.23046
258.90        56.75087
259.35         57.1146
259.81        58.57186
260.27        60.02551
260.72        60.22138
261.18        59.28839
261.63         57.5521
262.09        55.81772
262.55        54.41601
263.00        53.29259
263.46         52.4292
263.91        51.44062
264.37        50.16091
264.83        48.60308
265.28        46.90465
265.74        45.49202
266.19        44.59688
266.65        44.27579
267.11        44.29849
267.56        44.43424
268.02        44.32303
268.47        43.85708
268.93        43.18173
269.38        42.32833
269.84        41.40813
270.30        40.46602
270.75        39.45341
271.21        38.53078
271.66         37.8916
272.12        37.55133
272.57        37.42896
273.03        37.29233
273.48        36.75185
273.94        35.79235
274.39        34.53294
274.85        33.27364
275.31        32.29385
275.76         31.6376
276.22        31.24226
276.67        30.95666
277.13        30.65042
277.58          30.234
278.04        29.76968
278.49         29.2714
278.95        28.86413
279.40        28.51332
279.86        28.23972
280.31        27.90208
280.77        27.40282
281.22        26.72153
281.68        25.98178
282.13        25.31253
282.59        24.96234
283.04        24.92734
283.50        25.13015
283.95        25.42389
284.41        25.58073
284.86        25.53081
285.32        25.37061
285.77        25.15086
286.22        25.00231
286.68        24.95955
287.13        24.94237
287.59        24.96304
288.04        25.00466
288.50        25.07121
288.95        25.14573
289.41        25.19807
289.86        25.11462
290.32        24.92867
290.77        24.67976
291.22        24.47564
291.68        24.46172
292.13        24.67081
292.59          25.086
293.04        25.67312
293.50        26.38841
293.95        27.19851
294.40        28.11947
294.86        29.13483
295.31         30.2091
295.77        31.33793
296.22        32.50322
296.68        33.73025
297.13        35.05139
297.58        36.48335
298.04         38.0257
298.49        39.64143
298.95        41.28735
299.40        42.93774
299.85        44.60078
300.31        46.31717
300.76        48.13261
301.21        50.05194
301.67        52.06114
302.12        54.05911
302.58        55.97893
303.03        57.76218
303.48        59.46347
303.94        61.16672
304.39        62.93358
304.84        64.81238
305.30        66.79431
305.75         68.7942
306.20        70.76824
306.66        72.70592
307.11        74.57577
307.57        76.41205
308.02         78.1637
308.47        79.84325
308.93        81.45367
309.38        82.97393
309.83        84.49294
310.29        86.03058
310.74        87.56385
311.19        89.01976
311.65        90.24693
312.10        91.19604
312.55        91.90979
313.00        92.53232
313.46        93.29711
313.91        94.23517
314.36        95.30759
314.82        96.37189
315.27        97.20953
315.72        97.74244
316.18        98.06361
316.63        98.26967
317.08        98.56127
317.53        99.00024
317.99        99.52336
318.44        100.0715
318.89        100.5186
319.35        100.8244
319.80        101.0315
320.25        101.2056
320.70        101.4504
321.16        101.7868
321.61        102.2192
322.06        102.6518
322.51        102.9386
322.97        103.0388
323.42        103.0052
323.87        102.9934
324.32        103.2789
324.78         103.877
325.23        104.7704
325.68        105.6632
326.13        106.0727
326.59        105.8813
327.04         105.267
327.49        104.5477
327.94        104.2602
328.39        104.5425
328.85        105.1992
329.30         106.097
329.75        106.7432
330.20        106.9741
330.66        106.9181
331.11        106.7743
331.56        106.7803
332.01        107.0273
332.46        107.4035
332.92        107.8115
333.37        108.2659
333.82        108.6764
334.27        109.0967
334.72        109.4807
335.17         109.728
335.63        109.8334
336.08        109.8919
336.53        110.0318
336.98        110.5144
337.43        111.3916
337.88        112.5498
338.34        113.8308
338.79         115.085
339.24        116.1434
339.69        117.0243
340.14          117.61
340.59        117.7378
341.05        117.4596
341.50        116.8602
341.95        116.2113
342.40        115.9282
342.85        116.1289
343.30        116.7093
343.75        117.5587
344.20        118.4638
344.66         119.312
345.11        120.1327
345.56         120.823
346.01        121.2313
346.46        121.3604
346.91        121.2646
347.36        121.0856
347.81        121.0774
348.26        121.2951
348.72        121.6401
349.17        122.0799
349.62        122.5899
350.07        123.1184
350.52           123.7
350.97         124.088
351.42        123.8885
351.87        123.0787
352.32        121.7933
352.77        120.5179
353.22        119.9698
353.67        120.2764
354.13        121.2346
354.58        122.3499
355.03        122.7421
355.48        122.1863
355.93        120.9435
356.38        119.5484
356.83        118.8085
357.28        118.8813
357.73        119.4807
358.18        120.1163
358.63          120.01
359.08        118.9794
359.53        117.3183
359.98        115.4616
360.43        114.0292
360.88        113.1738
361.33        112.6967
361.78         112.341
362.23        111.7096
362.68        110.7124
363.13        109.5207
363.58        108.3157
364.03        107.3491
364.48        106.6758
364.93        106.1716
365.38        105.7424
365.83        105.2622
366.28        104.6755
366.73        104.0293
367.18         103.299
367.63        102.4349
368.08        101.4532
368.53        100.3838
368.98        99.32327
369.43        98.42645
369.88        97.73527
370.33        97.21152
370.78        96.80116
371.23        96.41049
371.68        95.98921
372.13        95.53706
372.58         95.0419
373.03         94.4885
373.48         93.8659
373.93        93.16909
374.38        92.37527
374.83        91.46697
375.28        90.47126
375.72        89.40663
376.17        88.42078
376.62        87.61333
377.07         87.0195
377.52        86.63386
377.97        86.37185
378.42         86.1015
378.87        85.77744
379.32        85.38644
379.77        85.04621
380.22         84.9381
380.67        85.05803
381.11        85.36686
381.56        85.52126
382.01        85.05567
382.46        83.93262
382.91        82.38588
383.36        80.86786
383.81        79.98821
384.26        79.84009
384.71        80.21632
385.15        80.81544
385.60        81.10744
386.05        80.92524
386.50        80.42533
386.95        79.73662
387.40        79.06603
387.85        78.50085
388.29        77.92657
388.74        77.44864
389.19        77.02068
389.64        76.63033
390.09        76.29484
390.54        75.99728
390.98        75.68098
391.43        75.37047
391.88        75.06244
392.33        74.79213
392.78        74.51137
393.23        74.20287
393.67        74.05215
394.12         74.0934
394.57        73.41396
395.02        73.06738
395.47        72.80126
395.91        72.87756
396.36        72.74187
396.81        72.41344
397.26        72.20775
397.71         72.0748
398.15        71.87396
398.60        71.69363
399.05        71.28504
399.50        70.80447
399.95        71.01593
400.39        71.70879
400.84        71.50441
401.29        70.47727
401.74        70.00661
402.18        70.11486
402.63        69.76477
403.08        69.06255
403.53        68.74637
403.97        68.84652
404.42        69.07957
404.87        69.27345
405.32        69.22301
405.76        68.86642
406.21        68.31886
406.66        67.74805
407.11        67.40604
407.55        67.38612
408.00        67.59681
408.45        67.90379
408.90         68.0647
409.34        67.94772
409.79        67.50771
410.24        66.90816
410.68        66.49949
411.13        66.34975
411.58        66.29353
412.03        66.25938
412.47        66.19324
412.92        66.04945
413.37        65.88412
413.81        65.73759
414.26        65.72668
414.71        65.84205
415.15        66.06403
415.60        66.30908
416.05        66.51237
416.49        66.64214
416.94        66.70097
417.39        66.70486
417.83        66.66724
418.28        66.60654
418.73        66.52374
419.17          66.437
419.62        66.37824
420.07        66.34546
420.51        66.31052
420.96        66.30231
421.41        66.26599
421.85        66.16206
422.30        66.19071
422.74        66.23488
423.19        65.93137
423.64        65.39428
424.08        65.33722
424.53        65.70973
424.98         65.8806
425.42        65.81792
425.87         65.8445
426.31        65.96605
426.76        66.02467
427.21         66.0114
427.65        65.87269
428.10        65.63488
428.54        65.57897
428.99        65.76202
429.44        65.68074
429.88        65.49053
430.33        66.16858
430.77        67.28127
431.22        67.54242
431.66        66.93863
432.11        66.18922
432.56        65.61252
433.00        65.65015
433.45         66.3579
433.89        66.96395
434.34        66.81415
434.78        67.81672
435.23         66.3486
435.67        64.92657
436.12        65.03148
436.57        65.34109
437.01        66.18049
437.46        66.65143
437.90        66.45379
438.35        65.58273
438.79        65.77345
439.24        65.65599
439.68        65.72767
440.13        65.99482
440.57        66.45041
441.02        66.73266
441.46        66.79039
441.91        67.40602
442.35        68.20286
442.80        67.82189
443.24        66.58556
443.69         66.5713
444.13        67.65199
444.58        68.02513
445.02        67.63139
445.47        67.51768
445.91        67.74215
446.36        67.93058
446.80        68.06531
447.24        68.25416
447.69        68.46596
448.13         68.5823
448.58        68.62451
449.02         68.6859
449.47         68.7447
449.91        68.65379
450.36        68.43354
450.80        68.13342
451.25        67.85314
451.69        67.67619
452.13        67.64497
452.58        67.72601
453.02        67.86194
453.47        67.96943
453.91        67.99876
454.36        67.96449
454.80        67.87732
455.24        67.68063
455.69        67.38387
456.13        67.19772
456.58         67.1265
457.02        66.52167
457.46        65.69635
457.91        65.91956
458.35        66.87087
458.79        67.01929
459.24         66.3421
459.68         65.5578
460.13        64.94201
460.57        64.72065
461.01         65.0415
461.46        65.09898
461.90        65.41352
462.34        66.44228
462.79        65.48233
463.23        65.57607
463.68        65.77988
464.12        65.60454
464.56        65.03499
465.01        64.43635
465.45        63.94186
465.89        63.80413
466.34        63.91751
466.78        63.99047
467.22        64.06424
467.67        63.37882
468.11        63.75886
468.55         63.7126
468.99        63.71213
469.44        63.57546
469.88        63.31429
470.32        63.00944
470.77        62.72671
471.21         62.5719
471.65        62.55842
472.10         62.6674
472.54        62.81163
472.98        62.83216
473.42        62.68946
473.87        62.53811
474.31        62.38055
474.75        62.06529
475.20        61.72341
475.64        61.80095
476.08        62.23167
476.52        62.28792
476.97        61.87786
477.41        61.86857
477.85        62.00892
478.29         61.1995
478.74        61.50404
479.18        61.79276
479.62        61.92451
480.06        62.04731
480.50        61.90591
480.95        61.90614
481.39        62.08067
481.83         61.4706
482.27        61.50378
482.72        61.64251
483.16         61.5149
483.60        61.24652
484.04        61.55431
484.48        61.78198
484.93        61.98619
485.37        62.05457
485.81        61.14203
486.25        61.48873
486.69        63.83017
487.14        64.56712
487.58         61.9001
488.02         61.7757
488.46        60.67257
488.90        60.58553
489.34        61.70103
489.79        62.77535
490.23        61.91122
490.67        61.28725
491.11        60.62883
491.55        60.49537
491.99        60.80539
492.43        60.73801
492.88        60.30923
493.32         60.1973
493.76        60.41055
494.20        60.54707
494.64        60.57518
495.08        60.62835
495.52        60.69272
495.96        60.72551
496.41        60.72026
496.85         60.6946
497.29        60.57537
497.73        60.59348
498.17        60.01316
498.61        59.96122
499.05        60.15537
499.49        60.11138
499.93        59.69806
500.37        59.81288
500.82        60.32492
501.26        60.60015
501.70        60.57421
502.14        60.53695
502.58        60.54618
503.02        60.58515
503.46        60.66705
503.90        60.77603
504.34         60.8506
504.78        60.80526
505.22         60.6267
505.66        60.34896
506.10        60.05086
506.54        59.85408
506.98        59.78978
507.42         59.8241
507.86        59.90402
508.30        59.94084
508.74         59.9068
509.18        59.82859
509.62        59.73431
510.06        59.66885
510.50        59.64476
510.94        59.64241
511.38        59.64664
511.82        59.63633
512.26         59.6071
512.70        59.57336
513.14        59.54333
513.58        59.52673
514.02        59.52898
514.46        59.54416
514.90        59.57856
515.34        59.64422
515.78        59.73498
516.22        59.83805
516.66        59.92838
517.10        59.96717
517.54         59.9454
517.98          59.878
518.42        59.77622
518.86        59.65999
519.30         59.5437
519.74        59.42651
520.18        59.33247
520.62        59.29561
521.06        59.32063
521.50        59.40219
521.93        59.50656
522.37        59.55611
522.81        59.54088
523.25        59.47639
523.69         59.4017
524.13        59.38269
524.57        59.42756
525.01        59.50284
525.45        59.57172
525.89        59.57673
526.32        59.49739
526.76        59.37771
527.20        59.22174
527.64        59.04348
528.08        58.86368
528.52        58.67272
528.96        58.52459
529.40        58.53406
529.83        58.69065
530.27        58.89798
530.71        59.09297
531.15        59.24332
531.59         59.3196
532.03        59.29899
532.46         59.2056
532.90        59.14418
533.34        59.12603
533.78        59.08978
534.22        59.01971
534.66        58.96653
535.09        58.88556
535.53        58.65818
535.97        58.33505
536.41        58.14126
536.85        58.10392
537.28         58.1141
537.72        58.16114
538.16        58.27037
538.60        58.42362
539.04        58.60324
539.47        58.76875
539.91        58.89873
540.35        58.97023
540.79        58.98969
541.22        58.96264
541.66        58.92305
542.10         58.8755
542.54        58.81345
542.97        58.73993
543.41        58.68591
543.85        58.64927
544.29        58.63881
544.72        58.62286
545.16        58.58324
545.60        58.50787
546.04        58.41338
546.47        58.34763
546.91        58.38221
547.35        58.52058
547.79        58.73124
548.22        58.94683
548.66        59.05127
549.10        59.08437
549.53         59.0512
549.97        58.97713
550.41        58.77707
550.84        58.53864
551.28        58.41873
551.72        58.38826
552.15        58.44776
552.59        58.66492
553.03        58.18622
553.46        58.73922
553.90        58.75726
554.34        58.73877
554.77        58.68961
555.21        58.66439
555.65         58.7077
556.08        58.80353
556.52        58.90062
556.96        58.94728
557.39        59.02443
557.83        59.07863
558.27        58.79852
558.70        58.29209
559.14        58.10009
559.57        58.22496
560.01        58.28512
560.45        58.26299
560.88        58.43329
561.32        58.74142
561.75        58.82057
562.19        58.69986
562.63        58.61608
563.06        58.60137
563.50        58.58953
563.93        58.53516
564.37        58.55961
564.80         58.6559
565.24        58.56346
565.68         58.1845
566.11        58.75896
566.55        58.19285
566.98        58.07288
567.42        57.91667
567.85        58.15266
568.29        58.71377
568.72        59.07322
569.16        59.26997
569.60        59.60659
570.03        59.68098
570.47        59.96975
570.90        60.42404
571.34        59.48251
571.77         60.2276
572.21        60.14779
572.64        60.03471
573.08        60.24614
573.51        59.76569
573.95        59.82813
574.38        60.18425
574.82         60.6182
575.25         60.2935
575.69         60.2783
576.12        60.43867
576.56         59.7632
576.99        59.70685
577.42        60.06765
577.86         60.3171
578.29        61.03822
578.73        61.32126
579.16        61.12333
579.60        60.16544
580.03        60.10175
580.47         60.1656
580.90         60.6848
581.33          60.811
581.77        61.00963
582.20        61.64455
582.64        62.22295
583.07        61.19698
583.51        60.50415
583.94        59.97747
584.37         59.8328
584.81        60.18709
585.24        60.53704
585.68        60.59972
586.11        60.99061
586.54         60.5598
586.98        59.75472
587.41        59.44954
587.85        60.07304
588.28        60.11604
588.71        59.76897
589.15        59.73906
589.58        59.65763
590.01        59.18199
590.45        59.35361
590.88        59.88135
591.31        59.73395
591.75        59.05991
592.18        58.73115
592.61        58.95027
593.05        59.48767
593.48        60.96899
593.91        60.30537
594.35        60.19554
594.78        59.39498
595.21        58.86216
595.65        59.22173
596.08        60.39962
596.51        60.38553
596.94        59.63247
597.38         59.2456
597.81           59.37
598.24        59.93699
598.68        59.43031
599.11        59.12545
599.54        60.59525
599.97        60.22023
600.41        59.85926
600.84        59.29333
601.27        59.79699
601.70        59.52031
602.14         59.5891
602.57        59.27185
603.00        59.11946
603.43        58.51592
603.87        59.64039
604.30        59.94423
604.73        59.75829
605.16        59.07901
605.60        59.12926
606.03         58.8423
606.46        58.59288
606.89        58.87436
607.32         59.2089
607.76         59.1241
608.19        59.29749
608.62        59.14344
609.05        59.04117
609.48         58.9769
609.92        59.67119
610.35        59.51169
610.78        59.01445
611.21        58.87306
611.64        58.72573
612.07        58.91449
612.50        58.95837
612.94        58.92206
613.37         58.6296
613.80        58.89786
614.23        58.14304
614.66        58.18671
615.09        58.62561
615.52        58.74068
615.96        58.52097
616.39        58.50523
616.82        58.75331
617.25        58.42878
617.68        58.42193
618.11        58.47213
618.54        58.63785
618.97        58.60755
619.40        58.35878
619.84        58.43264
620.27        58.28123
620.70        58.44831
621.13        58.64136
621.56        58.06512
621.99         57.0705
622.42        56.88719
622.85        57.58712
623.28        57.48077
623.71        57.68235
624.14        57.52054
624.57        58.26534
625.00        57.94496
625.43         58.1599
625.86        57.93684
626.29        57.75285
626.72        57.43209
627.15        57.51024
627.58        57.52608
628.01        57.55191
628.44        57.56005
628.87          57.517
629.30        57.30901
629.73        57.22409
630.16        57.24134
630.59        57.28278
631.02        57.43742
631.45        57.61229
631.88        57.73813
632.31        57.78387
632.74        57.77361
633.17        57.71076
633.60        57.60022
634.03        57.45726
634.46        57.27814
634.89        57.10033
635.32        56.99886
635.75        56.99119
636.18        56.99905
636.61        57.00969
637.04        57.03504
637.47        57.06314
637.89        57.08311
638.32        57.06825
638.75        57.03328
639.18        56.98175
639.61        56.91084
640.04        56.84233
640.47        56.81298
640.90           56.83
641.33        56.88556
641.76        56.95559
642.18        57.00499
642.61        57.00335
643.04         56.9654
643.47        56.91075
643.90        56.87218
644.33        56.85714
644.76        56.85875
645.18        56.85516
645.61        56.79367
646.04        56.67824
646.47        56.53795
646.90        56.41715
647.33        56.37117
647.75        56.38596
648.18        56.49614
648.61        56.70275
649.04        56.75393
649.47        56.58297
649.89        57.19962
650.32        57.02929
650.75        56.92409
651.18        56.55555
651.61        56.53816
652.03        56.88926
652.46        57.09914
652.89         57.0998
653.32        57.15585
653.74        57.42653
654.17        56.84112
654.60        57.04422
655.03        56.92194
655.46         56.8564
655.88        56.89571
656.31        60.78198
656.74        65.97766
657.16        64.88792
657.59        63.45773
658.02        59.83767
658.45        58.32197
658.87        57.73992
659.30        57.60353
659.73        57.33155
660.15        58.29884
660.58        57.21458
661.01        57.11658
661.44        57.07639
661.86         56.7873
662.29        56.25973
662.72        56.66353
663.14        56.82267
663.57        56.74024
664.00        56.23534
664.42        56.21435
664.85          56.702
665.27        57.18893
665.70        57.49092
666.13        57.60832
666.55        57.50111
666.98        57.10297
667.41        56.54835
667.83        56.43403
668.26        56.23835
668.69        56.37687
669.11        56.60054
669.54        56.78209
669.96        56.87913
670.39        56.92922
670.82        56.97222
671.24        57.04113
671.67        57.14127
672.09        57.23604
672.52        57.31109
672.94        57.31776
673.37        57.25607
673.80        57.13915
674.22        57.01277
674.65        56.91869
675.07        56.88903
675.50        56.90322
675.92        56.93473
676.35        56.92676
676.77        56.87012
677.20        56.78422
677.62        56.70585
678.05        56.69057
678.47        56.74814
678.90        56.86039
679.32        56.98888
679.75        57.08653
680.17         57.1303
680.60        57.13272
681.02        57.11557
681.45        57.09921
681.87        57.10235
682.30        57.14146
682.72         57.2033
683.15        57.16235
683.57        57.05791
684.00        57.04873
684.42        57.15659
684.85        57.28323
685.27        57.41394
685.70        57.61871
686.12        57.82477
686.54        57.89724
686.97        57.81318
687.39         57.6169
687.82        57.37087
688.24         57.2051
688.66        57.15091
689.09         57.1562
689.51        57.20451
689.94        57.25837
690.36        57.30603
690.78        57.33415
691.21        57.35965
691.63        57.42143
692.06        57.51669
692.48        57.60343
692.90        57.64811
693.33        57.64169
693.75        57.57523
694.17        57.41212
694.60        57.24137
695.02        57.21386
695.44        57.32655
695.87        57.57959
696.29        57.84899
696.71        57.66585
697.14        57.14647
697.56        56.99131
697.98        57.22722
698.41         57.3313
698.83        57.28866
699.25        57.45777
699.68         57.7425
700.10         57.8546
700.52          57.739
700.94        57.49297
701.37        57.22512
701.79        57.11761
702.21        57.20836
702.64        57.42155
703.06        57.68031
703.48         57.8453
703.90         57.8733
704.33        57.81482
704.75        57.70025
705.17        57.56858
705.59        57.45011
706.01        57.33221
706.44        57.25892
706.86        57.31924
707.28         57.5099
707.70        57.80598
708.12        58.13491
708.55        58.36244
708.97        58.45941
709.39         58.4632
709.81        58.40533
710.23        58.34476
710.66        58.30228
711.08        58.27795
711.50        58.23389
711.92        58.12486
712.34        57.95176
712.76        57.74992
713.19        57.55862
713.61        57.46985
714.03        57.49469
714.45        57.61009
714.87        57.79106
715.29        58.00224
715.71         58.2165
716.13        58.42016
716.56        58.57735
716.98        58.71104
717.40        58.78415
717.82        58.79967
718.24        58.73083
718.66        58.53954
719.08        58.24928
719.50        57.90351
719.92        57.60292
720.34        57.49393
720.76        57.60285
721.19        57.86358
721.61        58.22356
722.03        58.54549
722.45        58.76657
722.87        58.90875
723.29        58.94616
723.71        58.84669
724.13        58.62767
724.55          58.309
724.97        57.97713
725.39        57.78364
725.81        57.77063
726.23        57.88412
726.65        58.06901
727.07        58.35656
727.49        58.49927
727.91        58.68301
728.33        58.84078
728.75        58.97309
729.17        59.07437
729.59        59.13166
730.01        59.14843
730.43          59.137
730.85        59.10369
731.27        59.05005
731.69        58.98489
732.10        58.91628
732.52        58.84658
732.94        58.79275
733.36        58.77067
733.78        58.67553
734.20        58.49392
734.62        58.50194
735.04        58.77608
735.46        58.25375
735.88        58.70858
736.30        58.92458
736.72        59.34918
737.13        59.63745
737.55        59.69218
737.97        59.75107
738.39        59.77913
738.81        59.47524
739.23        58.98069
739.65        58.93265
740.06        59.25357
740.48        59.36774
740.90        59.23086
741.32        59.11003
741.74        59.20115
742.16          59.257
742.57        59.32718
742.99        59.42127
743.41        59.49749
743.83         59.4744
744.25        59.34097
744.67        59.11428
745.08         58.8877
745.50         58.7935
745.92        58.87101
746.34        59.07888
746.75        59.31898
747.17        59.41824
747.59        59.34249
748.01        59.14618
748.42        58.92502
748.84        58.83171
749.26         58.9012
749.68        59.07489
750.09        59.27826
750.51        59.39271
750.93         59.3843
751.35        59.31649
751.76        59.19532
752.18        59.02076
752.60        58.80704
753.01        58.58192
753.43        58.37363
753.85        58.24832
754.27        58.23677
754.68        58.34594
755.10        58.54156
755.52        58.75838
755.93        58.94728
756.35        59.09129
756.77        59.26962
757.18        59.41326
757.60        59.49928
758.02        59.96473
758.43        60.64729
758.85        59.66546
759.26        59.26701
759.68        58.66952
760.10        59.05298
760.51        59.33887
760.93        59.54126
761.34        59.67425
761.76        59.73411
762.18        59.72351
762.59         59.7177
763.01        59.75178
763.42        59.89679
763.84        59.97634
764.26        59.99788
764.67        60.16347
765.09        60.37547
765.50        60.10118
765.92        59.47848
766.33        59.08941
766.75         58.9631
767.16        58.84449
767.58        58.72319
768.00        58.82465
768.41        59.11047
768.83        59.39817
769.24        59.58981
769.66        59.59596
770.07        59.47221
770.49         59.3644
770.90        59.38259
771.32        59.76564
771.73        60.35999
772.15        60.56423
772.56         60.3299
772.97        59.93758
773.39        59.55245
773.80         59.3511
774.22        59.37728
774.63        59.61631
775.05        59.90397
775.46        60.03743
775.88        59.92916
776.29        59.67212
776.70        59.36585
777.12        59.18642
777.53        59.19342
777.95        59.29833
778.36         59.4535
778.77        59.54852
779.19        59.56776
779.60         59.5703
780.02        59.55506
780.43        59.58551
780.84        59.69332
781.26        59.61039
781.67        59.46195
782.09        59.97287
782.50        60.89988
782.91        60.97553
783.33        60.26162
783.74        59.98227
784.15        60.19603
784.57        60.19384
784.98        59.99654
785.39        59.96044
785.81        60.09589
786.22        60.30734
786.63        60.53415
787.04        60.67623
787.46        60.71803
787.87        60.67759
788.28        60.59955
788.70        60.53365
789.11          60.481
789.52        60.45124
789.93        60.44051
790.35        60.43444
790.76         60.4332
791.17        60.43245
791.58        60.44456
792.00        60.40728
792.41         60.3203
792.82        60.38197
793.23        60.53904
793.65        60.23522
794.06         59.7009
794.47        60.01563
794.88        60.95732
795.29        61.31573
795.71        60.99518
796.12        60.67194
796.53        60.48653
796.94        60.38966
797.35        60.44139
797.76        60.66667
798.18        60.94559
798.59        61.11013
799.00        61.09291
799.41        60.94924
799.82         60.7538
800.23         60.6318
800.64        60.61669
801.06        60.63558
801.47        60.68579
801.88        60.68688
802.29        60.61409
802.70        60.49708
803.11        60.35406
803.52        60.20664
803.93         60.0849
804.34        59.99676
804.75        59.96022
805.17        60.04296
805.58        60.28679
805.99        60.48705
806.40         60.6521
806.81        61.18586
807.22        61.87737
807.63        61.82291
808.04        61.14182
808.45        60.82513
808.86        60.96009
809.27        61.01521
809.68        60.92914
810.09         60.8579
810.50        60.79665
810.91        60.71429
811.32        60.67183
811.73        60.75892
812.14        60.98165
812.55        61.30684
812.96        61.63171
813.37        61.76244
813.78        61.64323
814.19         61.3453
814.60        60.96058
815.01        60.60946
815.42        60.32872
815.83        60.08735
816.24        59.90369
816.65        59.81469
817.05        59.83797
817.46        59.95469
817.87        60.13071
818.28        60.26094
818.69         60.3199
819.10        60.31443
819.51        60.31445
819.92        60.45262
820.33        60.74585
820.74        61.13548
821.14        61.50304
821.55        61.66195
821.96        61.57471
822.37         61.3065
822.78        60.96407
823.19        60.72897
823.60        60.66538
824.00        60.74376
824.41         60.8822
824.82        61.02772
825.23        61.13877
825.64        61.23729
826.04         61.3104
826.45        61.29805
826.86        61.21003
827.27        61.06548
827.68        60.89788
828.08        60.79678
828.49        60.74335
828.90        60.72845
829.31        60.78024
829.72        60.94053
830.12        61.22183
830.53        61.56462
830.94        61.85012
831.35        61.83478
831.75        61.49083
832.16         60.8787
832.57        60.22893
832.97        59.88868
833.38        59.94604
833.79        60.28646
834.20        60.76653
834.60        61.15126
835.01        61.36736
835.42        61.51777
835.82        61.62542
836.23        61.66177
836.64        61.66129
837.04         61.5739
837.45        61.52659
837.86        61.79708
838.26        62.43398
838.67        63.32736
839.08        64.14223
839.48        64.23956
839.89        63.49265
840.29        62.16145
840.70        60.81048
841.11        60.08483
841.51        60.14286
841.92        60.76706
842.33        61.72486
842.73        62.58762
843.14        63.06915
843.54        63.32214
843.95        63.38164
844.35        63.36499
844.76        63.30503
845.17        63.14882
845.57        62.91088
845.98         62.6127
846.38        62.30215
846.79        62.00586
847.19         61.7816
847.60        61.67966
848.00        61.71365
848.41        61.83705
848.81        62.02194
849.22        62.14335
849.62        62.20036
850.03        62.21354
850.43        62.19058
850.84        62.09134
851.24         61.9643
851.65        61.75671
852.05          61.651
852.46        61.86556
852.86         62.4113
853.27         63.1805
853.67        63.86028
854.07        64.12348
854.48        63.89552
854.88        63.30697
855.29        62.50693
855.69        61.89705
856.10        61.57084
856.50        61.50163
856.90        61.58789
857.31        61.66566
857.71        61.71758
858.12        61.73774
858.52        61.77895
858.92        61.81408
859.33        61.81987
859.73        61.82158
860.13        61.74782
860.54        61.52063
860.94        61.18277
861.34        60.76269
861.75        60.38601
862.15        60.28991
862.55        60.50226
862.96        60.91712
863.36        61.43724
863.76        61.81526
864.17        61.94635
864.57        61.92002
864.97        61.71302
865.38        61.30618
865.78        60.76133
866.18        60.08647
866.58         59.4528
866.99        59.16795
867.39        59.32784
867.79        59.84221
868.19        60.52063
868.60        61.03926
869.00        61.32574
869.40        61.42542
869.80        61.39676
870.21        61.36327
870.61        61.42243
871.01         61.4836
871.41        61.46206
871.81         61.2468
872.22        60.82436
872.62        60.23998
873.02        59.66263
873.42        59.36325
873.82        59.41218
874.22        59.73682
874.63        60.11888
875.03         60.2244
875.43        59.96826
875.83        59.46245
876.23        58.92622
876.63        58.70356
877.03        58.87457
877.44        59.29073
877.84        59.79451
878.24         60.1498
878.64        60.21742
879.04        59.92288
879.44         59.4522
879.84        59.21276
880.24        59.25605
880.64        59.41027
881.04        59.49244
881.44        59.24954
881.84        58.64436
882.24        57.81139
882.65        56.98151
883.05        56.48751
883.45        56.42738
883.85         56.7108
884.25        57.21709
884.65        57.73008
885.05        58.14661
885.45        58.49707
885.85        58.79251
886.25        59.06321
886.65        59.31689
887.05        59.52131
887.45        59.63728
887.85        59.62349
888.25        59.47666
888.65        59.21946
889.04        58.93055
889.44        58.74873
889.84        58.69329
890.24        58.74298
890.64        58.80355
891.04        58.71509
891.44        58.45531
891.84        58.09263
892.24        57.75091
892.64        57.60635
893.04        57.70286
893.44        57.99503
893.83        58.40112
894.23        58.73704
894.63        58.95685
895.03        59.07122
895.43        59.15908
895.83        59.36309
896.23        59.68478
896.63        60.04328
897.02        60.26278
897.42        60.09879
897.82        59.52979
898.22        58.71289
898.62        57.83459
899.01        57.15146
899.41        56.76646
899.81        56.59552
900.21        56.66121
900.61        56.99244
901.00        57.53534
901.40        58.25102
901.80        58.93433
902.20         59.2509
902.59         59.1439
902.99        58.70524
903.39        58.11977
903.79        57.71587
904.18        57.58513
904.58        57.61397
904.98        57.79343
905.38        58.10946
905.77        58.52185
906.17        59.08162
906.57        59.54629
906.96        59.50228
907.36        58.88744
907.76        57.83368
908.15        56.82366
908.55        56.61609
908.95        57.37109
909.34        58.86374
909.74        60.52193
910.14         61.4586
910.53        61.38294
910.93        60.57138
911.33        59.39903
911.72        58.44695
912.12        57.96606
912.52        57.80002
912.91        57.78795
913.31        57.70279
913.70         57.4919
914.10        57.22464
914.49        57.12056
914.89        57.44753
915.29        58.24794
915.68        59.39032
916.08        60.46214
916.47        60.85632
916.87        60.45521
917.26        59.45528
917.66        58.31689
918.05        57.59958
918.45        57.45498
918.84        57.76095
919.24        58.27816
919.64          58.703
920.03        58.91982
920.42        58.98675
920.82        59.03542
921.21        59.21098
921.61        59.52746
922.00        59.94147
922.40         60.2649
922.79        60.32588
923.19        60.06739
923.58        59.60075
923.98        59.11883
924.37        58.84237
924.77        58.83738
925.16        58.99632
925.55         59.2519
925.95        59.46276
926.34        59.57672
926.74        59.62202
927.13         59.5348
927.52        59.14837
927.92         58.5261
928.31        57.73713
928.70        57.02204
929.10        56.72712
929.49        56.90231
929.89        57.37904
930.28        58.09973
930.67        58.84378
931.07        59.46273
931.46        60.08244
931.85        60.42172
932.24        60.08626
932.64         59.1157
933.03        57.62127
933.42        56.23505
933.82        55.88817
934.21         56.7439
934.60        58.58276
934.99        60.72894
935.39        61.93241
935.78        61.84351
936.17        60.72372
936.56        59.20251
936.96        58.29211
937.35        58.26954
937.74        58.83011
938.13        59.50281
938.53        59.57158
938.92        58.88523
939.31        57.75479
939.70        56.59997
940.09        55.98256
940.49        56.00574
940.88        56.49836
941.27        57.21207
941.66         57.7042
942.05        57.82251
942.44        57.72939
942.84        57.55929
943.23        57.50642
943.62        57.63696
944.01        57.82019
944.40        58.07393
944.79        58.46165
945.18        58.94102
945.57        59.49203
945.97        59.83902
946.36        59.60921
946.75        58.72979
947.14        57.40535
947.53        56.01777
947.92        55.10016
948.31        54.78719
948.70        54.94808
949.09        55.42975
949.48        55.94304
949.87        56.37006
950.26        56.78809
950.65        57.20216
951.04        57.63015
951.43        58.05246
951.82        58.37182
952.21        58.59458
952.60        58.76851
952.99        58.91348
953.38        59.08262
953.77        59.16461
954.16        58.97398
954.55        58.49656
954.94        57.74547
955.33        57.07039
955.72         57.0774
956.11        57.87829
956.50        59.31203
956.89        60.71723
957.28         60.9665
957.66        59.82981
958.05        57.75414
958.44        55.53642
958.83         54.3149
959.22         54.3349
959.61        55.25557
960.00        56.60636
960.39        57.50136
960.78        57.60775
961.16         57.2038
961.55        56.59743
961.94        56.16273
962.33        56.03474
962.72        56.08899
963.11        56.25066
963.49        56.45265
963.88        56.57964
964.27        56.64933
964.66        56.78565
965.04        57.18435
965.43        57.81538
965.82         58.6778
966.21        59.35567
966.60        59.09651
966.98         57.7732
967.37         55.7515
967.76        53.81842
968.15        52.95448
968.53        53.31872
968.92        54.68826
969.31        56.44915
969.69        57.34699
970.08        56.90763
970.47         55.5419
970.86        54.07605
971.24        53.68154
971.63         54.6084
972.02        56.53379
972.40        58.79242
972.79        59.83532
973.17        59.22305
973.56        57.48354
973.95        55.50675
974.33         54.4309
974.72        54.50781
975.11        55.39853
975.49        56.62615
975.88        57.25011
976.26        56.98433
976.65        56.08205
977.04        55.03593
977.42        54.55029
977.81        54.76482
978.19        55.44099
978.58        56.26447
978.96        56.70151
979.35        56.57591
979.74         56.0585
980.12        55.49157
980.51        55.26452
980.89        55.61341
981.28        56.35384
981.66        57.20284
982.05        57.73594
982.43        57.88406
982.82        57.73592
983.20         57.6696
983.59         58.2859
983.97        59.76464
984.35        61.83831
984.74        63.78364
985.12        64.64247
985.51         64.1014
985.89        62.53527
986.28        60.61701
986.66        59.25984
987.04          58.785
987.43        58.90265
987.81        59.40434
988.20        59.79033
988.58        59.86315
988.96        59.72758
989.35        59.41849
989.73        58.95751
990.12        58.35584
990.50        57.61575
990.88        56.69969
991.27         55.6475
991.65        54.57556
992.03        53.56574
992.42        52.88163
992.80         52.8328
993.18        53.45493
993.56        54.66039
993.95        56.05275
994.33         57.0114
994.71        57.19225
995.10        56.82534
995.48        56.19625
995.86        55.85162
996.24        55.94625
996.63        56.19876
997.01        56.68485
997.39        57.25005
997.77         57.7641
998.15        58.35193
998.54        58.74966
998.92        58.43559
999.30        57.47802
999.68        56.06781
1000.06        54.86196
1000.45        54.78105
1000.83        56.08799
1001.21        58.59655
1001.59        61.70211
1001.97        63.83612
1002.35        64.31445
1002.73        63.58024
1003.12        62.38759
1003.50        61.62158
1003.88         61.6256
1004.26        61.99836
1004.64        62.68666
1005.02        63.56321
1005.40        64.43485
1005.78        65.46635
1006.16        66.04997
1006.54        65.20155
1006.92        62.92609
1007.30        59.59766
1007.69        56.42065
1008.07        54.91398
1008.45        55.53801
1008.83        58.01136
1009.21         61.3567
1009.59        63.16125
1009.97        62.37359
1010.35        59.72767
1010.73        56.55341
1011.11        54.73734
1011.49        54.65752
1011.86        55.59342
1012.24        56.89951
1012.62        57.77827
1013.00        58.02207
1013.38        57.91892
1013.76        57.59174
1014.14        57.26198
1014.52        57.07256
1014.90        56.89468
1015.28        56.71432
1015.66        56.55447
1016.04        56.40257
1016.41        56.29457
1016.79        56.20596
1017.17         56.1094
1017.55        55.97772
1017.93         55.7925
1018.31        55.55235
1018.69        55.22845
1019.06        54.83532
1019.44        54.45678
1019.82         54.0485
1020.20        53.59058
1020.58        53.13419
1020.95         52.5767
1021.33         52.3852
1021.71         53.0679
1022.09        54.69767
1022.46        57.42762
1022.84         60.3209
1023.22        61.01068
1023.60        58.76264
1023.97        54.32461
1024.35        50.19968
1024.73        49.19424
