SpectraSmart Spectrum 2.9.0.0
--------- Device Information -----------
Spectrum Name :  反射率_0
Saving Time :  2024/04/26 23:48:59
Spectro-Module Model Name : SE2030-DUVN
Spectro-Module Serial Number : OS361AC55029948
Wavelength Start : 200
Wavelength End : 1025
Wavelength Unit : Wavelength(nm)
Spectrum Unit : Reflectance(%)
-----------Spectrum Setting ------------
Integration Time : 20ms
Average : 10
Boxcar : 0
Background removal :  enabled
linearity correction :  enabled
SC :  disabled
Intensity correction :  disabled
DWT denoise :  enabled
savitzky-golay :  disabled
FFT :  disabled
Running average :  disabled
Kalman :  disabled
High pass :  disabled
---------------BEGIN--------------------
Wavelength(nm)             Reflectance(%)
200.29               0
200.75         39.4467
201.21        37.52036
201.67        36.50617
202.13        36.32714
202.58        36.79728
203.04        38.57156
203.50        41.36082
203.96        43.50608
204.42        43.86772
204.88        42.04064
205.34        39.89539
205.80        41.31928
206.26         46.3338
206.72        52.58348
207.18        57.15936
207.64        57.62344
208.10        53.90892
208.55        46.47286
209.01        35.13553
209.47        27.31582
209.93        28.48329
210.39        34.05798
210.85        40.09143
211.31        45.65761
211.77        52.51071
212.23        65.78995
212.69        95.58989
213.14        137.2601
213.60        119.9714
214.06        77.75299
214.52        54.44818
214.98        48.04092
215.44        49.95406
215.90         55.9773
216.36        63.13065
216.81        66.84523
217.27        65.69275
217.73        60.79731
218.19        51.71355
218.65        42.55937
219.11        39.07898
219.57        39.51426
220.02        41.68185
220.48        45.11728
220.94        49.98299
221.40         57.5767
221.86        67.97317
222.32        74.88348
222.77        72.45184
223.23        65.05116
223.69        56.89955
224.15        50.33968
224.61         45.4104
225.06        41.28783
225.52        38.76396
225.98        38.50608
226.44        40.16673
226.90        43.35144
227.36        46.57881
227.81        47.28187
228.27        45.24666
228.73        41.49966
229.19        37.91997
229.65        36.61972
230.10         37.6864
230.56        40.35718
231.02         43.2186
231.48         44.0622
231.93        42.48494
232.39        39.62376
232.85        36.76225
233.31        35.54455
233.77        36.11166
234.22        37.86391
234.68        39.82757
235.14         40.6091
235.60        39.80999
236.05        37.86797
236.51        35.39437
236.97        33.69021
237.43        33.39346
237.88        34.23591
238.34        35.89441
238.80        38.00029
239.26        40.53554
239.71        44.23875
240.17         48.9801
240.63        54.06628
241.08         58.8604
241.54        62.30037
242.00        65.68756
242.46        72.86741
242.91        87.07157
243.37        110.8925
243.83        144.3988
244.28        170.5536
244.74        166.2878
245.20         133.494
245.66        96.26558
246.11          74.891
246.57        69.45538
247.03        73.72764
247.48        81.69552
247.94        83.08892
248.40        77.57352
248.85        70.72206
249.31          65.687
249.77        63.69444
250.22        64.28287
250.68        66.23799
251.14        69.61738
251.59        73.81815
252.05        77.42276
252.51        80.56882
252.96        80.74937
253.42        76.36353
253.88        68.70333
254.33         59.2601
254.79        52.15387
255.25        50.54001
255.70        53.66667
256.16        59.76101
256.62         65.2089
257.07        64.80125
257.53        59.86523
257.99        53.74211
258.44        48.59882
258.90        46.27919
259.35        45.85921
259.81        46.48709
260.27        47.27327
260.72         47.2832
261.18        46.55096
261.63        45.26973
262.09        43.96417
262.55        42.76036
263.00        41.63503
263.46        40.65466
263.91        39.56423
264.37        38.28576
264.83        36.86106
265.28        35.36478
265.74        34.18728
266.19        33.59066
266.65        33.59579
267.11        33.97757
267.56        34.41672
268.02        34.39791
268.47        33.79619
268.93        32.80635
269.38        31.59443
269.84        30.46605
270.30        29.52147
270.75         28.6695
271.21        27.97723
271.66        27.50183
272.12        27.22727
272.57        27.13222
273.03        27.05577
273.48        26.72041
273.94        26.11349
274.39        25.29734
274.85        24.48419
275.31        23.87519
275.76        23.49099
276.22        23.27137
276.67        23.10616
277.13        22.89603
277.58         22.5776
278.04        22.21264
278.49        21.78261
278.95        21.34544
279.40        20.88395
279.86        20.43541
280.31        19.98125
280.77        19.56784
281.22        19.18299
281.68        18.86469
282.13        18.59505
282.59        18.39833
283.04        18.25089
283.50        18.14518
283.95        18.07636
284.41        18.04032
284.86        18.02824
285.32         18.0565
285.77        18.07332
286.22        18.04897
286.68        17.98759
287.13        17.87691
287.59        17.79665
288.04        17.83793
288.50        18.02142
288.95        18.28819
289.41        18.55271
289.86        18.64308
290.32        18.56424
290.77        18.37676
291.22        18.20129
291.68        18.20444
292.13         18.4281
292.59        18.84392
293.04        19.40062
293.50        20.02838
293.95        20.69199
294.40        21.41484
294.86        22.21711
295.31        23.11949
295.77        24.12866
296.22        25.22249
296.68        26.37053
297.13        27.52131
297.58         28.6786
298.04        29.86708
298.49        31.13736
298.95        32.58039
299.40        34.19355
299.85        35.93467
300.31        37.73407
300.76        39.47549
301.21        41.13028
301.67        42.74286
302.12        44.31355
302.58        45.91538
303.03        47.53386
303.48        49.17211
303.94        50.85149
304.39        52.55693
304.84        54.30574
305.30        56.11016
305.75        57.92196
306.20        59.73621
306.66        61.55184
307.11        63.33569
307.57        65.07942
308.02        66.68878
308.47         68.1702
308.93        69.54092
309.38        70.85756
309.83        72.30837
310.29         73.9264
310.74        75.66086
311.19        77.33522
311.65         78.6326
312.10        79.47106
312.55        79.94174
313.00        80.30754
313.46        80.98393
313.91        82.03853
314.36        83.36816
314.82        84.71358
315.27        85.66039
315.72        86.08651
316.18        86.15502
316.63        86.07029
317.08        86.19019
317.53        86.61917
317.99        87.24178
318.44        87.94466
318.89        88.51686
319.35         88.8877
319.80        89.13173
320.25        89.32254
320.70        89.57186
321.16        89.90882
321.61        90.32107
322.06        90.73362
322.51        91.04274
322.97        91.21043
323.42        91.27298
323.87        91.34507
324.32        91.62949
324.78        92.13289
325.23        92.86356
325.68        93.56841
326.13        93.83509
326.59        93.58122
327.04        92.96883
327.49        92.32523
327.94        92.19659
328.39        92.71056
328.85          93.667
329.30        94.87659
329.75        95.76421
330.20        96.12924
330.66        96.11478
331.11        95.92725
331.56          95.839
332.01        95.96069
332.46        96.17135
332.92        96.42322
333.37        96.79757
333.82        97.22612
334.27        97.75354
334.72          98.259
335.17        98.50981
335.63        98.47047
336.08        98.26364
336.53        98.10198
336.98        98.38771
337.43        99.20976
337.88         100.415
338.34        101.7765
338.79        103.0095
339.24        103.9237
339.69        104.6008
340.14         104.987
340.59        105.0198
341.05         104.775
341.50        104.2797
341.95        103.8087
342.40        103.7892
342.85        104.3155
343.30        105.2857
343.75        106.4601
344.20        107.4091
344.66        108.0002
345.11         108.344
345.56        108.5546
346.01         108.832
346.46         109.241
346.91        109.6942
347.36        110.1559
347.81        110.5985
348.26        110.9905
348.72        111.3392
349.17        111.6191
349.62        111.8153
350.07        111.9252
350.52         111.978
350.97         111.915
351.42        111.6498
351.87        111.2042
352.32        110.6242
352.77        110.1208
353.22         109.992
353.67        110.2748
354.13        110.8736
354.58        111.5283
355.03        111.7647
355.48        111.4607
355.93        110.7463
356.38        109.9201
356.83        109.4404
357.28        109.3977
357.73        109.6338
358.18        109.8765
358.63        109.6937
359.08        108.9837
359.53        107.9091
359.98        106.7098
360.43        105.7231
360.88        105.0323
361.33        104.5347
361.78        104.0834
362.23        103.4551
362.68        102.6069
363.13        101.6375
363.58        100.6782
364.03        99.91145
364.48         99.3718
364.93        98.98066
365.38        98.63811
365.83        98.19646
366.28        97.61286
366.73        96.93835
367.18        96.21786
367.63        95.51768
368.08        94.85918
368.53        94.21521
368.98        93.58423
369.43        92.96457
369.88        92.35421
370.33        91.76859
370.78        91.18779
371.23        90.57877
371.68        89.94129
372.13        89.27758
372.58        88.64735
373.03        88.14355
373.48        87.76997
373.93        87.48942
374.38        87.19028
374.83        86.70108
375.28        85.99138
375.72        85.10299
376.17        84.20853
376.62        83.46505
377.07        82.92715
377.52        82.56851
377.97        82.30249
378.42        81.99857
378.87        81.61962
379.32        81.17406
379.77         80.7901
380.22        80.65263
380.67        80.76478
381.11        81.09045
381.56        81.30161
382.01        80.94863
382.46        79.98584
382.91        78.62498
383.36        77.29366
383.81        76.57587
384.26        76.55666
384.71         77.0319
385.15        77.69339
385.60        78.00269
386.05        77.79731
386.50        77.24554
386.95        76.49825
387.40        75.79484
387.85        75.23343
388.29        74.69343
388.74        74.27262
389.19        73.92296
389.64        73.62373
390.09        73.38654
390.54        73.17847
390.98        72.91579
391.43        72.62186
391.88        72.30747
392.33        71.99994
392.78        71.71172
393.23         71.4484
393.67        71.25037
394.12        71.16543
394.57        70.93716
395.02        70.65918
395.47        70.68842
395.91        70.96497
396.36        70.98129
396.81        70.72746
397.26        70.48929
397.71        70.25908
398.15        69.96664
398.60        69.71987
399.05        69.26146
399.50        68.75774
399.95        68.95326
400.39        69.64114
400.84        69.53931
401.29        68.68682
401.74        68.23918
402.18        68.26155
402.63        68.03969
403.08         67.6422
403.53        67.48129
403.97        67.57251
404.42        67.81239
404.87        68.04803
405.32        68.03114
405.76        67.70776
406.21        67.19288
406.66        66.66743
407.11        66.41739
407.55        66.52471
408.00        66.87495
408.45        67.30917
408.90        67.50941
409.34        67.37267
409.79          67.012
410.24        66.58395
410.68        66.29236
411.13        66.20351
411.58        66.24926
412.03         66.3274
412.47        66.27745
412.92        66.04216
413.37         65.7132
413.81        65.39561
414.26        65.29449
414.71        65.41879
415.15        65.73031
415.60        66.08654
416.05        66.31564
416.49        66.36171
416.94        66.26437
417.39        66.12075
417.83        66.06989
418.28        66.15411
418.73        66.32597
419.17        66.52498
419.62        66.66042
420.07         66.6937
420.51        66.63116
420.96        66.54552
421.41        66.46793
421.85        66.38821
422.30        66.43178
422.74        66.46704
423.19         66.2454
423.64        65.80844
424.08        65.57053
424.53        65.59566
424.98        65.69203
425.42         65.8728
425.87        66.32758
426.31        66.88601
426.76         67.0331
427.21        66.82468
427.65        66.66434
428.10        66.55821
428.54        66.87731
428.99        66.70168
429.44        66.66447
429.88        66.61826
430.33        67.24332
430.77        68.18358
431.22        68.57805
431.66        68.34592
432.11        67.74857
432.56        67.09393
433.00        67.05357
433.45        67.75899
433.89        68.50876
434.34        68.66351
434.78        69.59355
435.23        68.85181
435.67        67.00836
436.12        67.59972
436.57        67.63641
437.01        68.10182
437.46        68.33184
437.90        68.38508
438.35        67.70277
438.79         68.1561
439.24         68.1821
439.68        68.30005
440.13        68.47311
440.57        68.76218
441.02        69.08137
441.46        69.33212
441.91        69.90427
442.35        70.47694
442.80        70.09547
443.24        69.05705
443.69        69.12261
444.13        70.16335
444.58        70.58431
445.02        70.32542
445.47        70.31776
445.91        70.62199
446.36        70.92082
446.80        71.19437
447.24        71.51982
447.69        71.82262
448.13        71.96436
448.58         71.9413
449.02        71.76866
449.47        71.54511
449.91        71.39896
450.36         71.3914
450.80        71.46489
451.25        71.59751
451.69        71.69575
452.13        71.74875
452.58        71.77129
453.02        71.78107
453.47         71.8141
453.91        71.86776
454.36        71.93048
454.80        71.94541
455.24        71.80741
455.69        71.52272
456.13        71.16203
456.58        70.85494
457.02        70.50967
457.46        70.26431
457.91        70.47974
458.35        70.90916
458.79        70.87735
459.24        70.41137
459.68        69.71839
460.13        69.04434
460.57        68.84396
461.01        69.28664
461.46        68.98272
461.90        69.73152
462.34        70.42698
462.79          70.382
463.23         70.5558
463.68        70.55077
464.12        70.32092
464.56        69.84922
465.01        69.28349
465.45         68.7011
465.89        68.30438
466.34        68.10795
466.78         68.1924
467.22        68.49804
467.67        68.20511
468.11        68.08387
468.55        68.11832
468.99        68.45818
469.44        68.52661
469.88        68.31181
470.32        68.11025
470.77         67.9817
471.21        67.91439
471.65        67.91116
472.10        67.96658
472.54        68.03792
472.98        68.02451
473.42        67.89452
473.87        67.84907
474.31        67.80714
474.75        67.34452
475.20        66.64109
475.64        66.55901
476.08        67.09785
476.52        67.14848
476.97        66.57994
477.41        67.14777
477.85        67.43832
478.29        66.62908
478.74        67.46973
479.18        67.71236
479.62        67.56093
480.06        67.52236
480.50        67.41926
480.95        67.20237
481.39        66.87347
481.83        66.87541
482.27        66.52662
482.72        66.98034
483.16        66.80692
483.60        66.95937
484.04        67.05717
484.48        67.14881
484.93        67.05832
485.37        67.21072
485.81        66.30469
486.25        66.34599
486.69        66.84224
487.14        67.89215
487.58        66.65656
488.02        66.96878
488.46        66.10127
488.90         65.8483
489.34        67.36651
489.79         67.8186
490.23        67.44611
490.67        66.91518
491.11        66.44165
491.55        66.27733
491.99        66.39008
492.43        66.29915
492.88        66.01199
493.32         65.9716
493.76        66.17914
494.20        66.35449
494.64        66.45899
495.08         66.6038
495.52        66.74093
495.96        66.70502
496.41        66.51707
496.85        66.42535
497.29        66.35492
497.73         66.3387
498.17         65.6349
498.61        65.73476
499.05        66.27934
499.49        66.57017
499.93        66.32028
500.37        66.24259
500.82        66.30414
501.26        66.32544
501.70        66.30682
502.14        66.30104
502.58        66.32486
503.02        66.39148
503.46        66.49747
503.90        66.62978
504.34        66.73693
504.78         66.7383
505.22        66.61869
505.66        66.41022
506.10        66.19025
506.54         66.0262
506.98        65.93534
507.42        65.99649
507.86        66.19994
508.30        65.97168
508.74        66.16956
509.18        66.10824
509.62        66.05821
510.06        66.01015
510.50        65.97677
510.94        65.94192
511.38        65.90545
511.82        65.89412
512.26        65.91094
512.70        65.95599
513.14        66.01752
513.58        66.07295
514.02        66.11639
514.46        66.14953
514.90         66.1866
515.34        66.25384
515.78        66.34883
516.22        66.45226
516.66        66.53643
517.10        66.55899
517.54        66.51292
517.98        66.42249
518.42        66.30005
518.86        66.16496
519.30        66.03438
519.74        65.90608
520.18        65.82089
520.62        65.83829
521.06        65.96438
521.50        66.18623
521.93        66.43278
522.37          66.563
522.81         66.5537
523.25        66.43578
523.69        66.29558
524.13        66.27512
524.57        66.39659
525.01        66.60036
525.45        66.80045
525.89        66.85941
526.32        66.73747
526.76        66.51109
527.20        66.22334
527.64        65.94699
528.08        65.72107
528.52        65.51823
528.96        65.37253
529.40        65.38621
529.83        65.55244
530.27        65.75536
530.71        65.89748
531.15        66.17954
531.59        66.06245
532.03        65.95959
532.46         65.7767
532.90        65.67856
533.34          65.684
533.78        65.71858
534.22         65.7442
534.66        65.77126
535.09        65.73846
535.53        65.52262
535.97        65.18925
536.41        65.00693
536.85         65.0083
537.28        65.05945
537.72        65.14167
538.16        65.27536
538.60        65.43767
539.04        65.61601
539.47         65.7627
539.91        65.84826
540.35        65.85133
540.79        65.78526
541.22        65.67781
541.66         65.5984
542.10        65.56013
542.54        65.55004
542.97        65.54676
543.41        65.54434
543.85        65.52745
544.29        65.51131
544.72        65.48608
545.16        65.46391
545.60        65.43329
546.04        65.42551
546.47        65.45155
546.91        65.45508
547.35        65.46429
547.79        65.62668
548.22        65.87369
548.66        65.95279
549.10        65.91557
549.53        65.84752
549.97        65.78981
550.41         65.6225
550.84        65.43053
551.28         65.4131
551.72        65.51736
552.15        65.63185
552.59        65.80321
553.03         65.4012
553.46        65.82948
553.90        65.79992
554.34        65.72112
554.77        65.61314
555.21         65.5304
555.65        65.51811
556.08         65.5662
556.52        65.63261
556.96         65.6801
557.39        65.79597
557.83        65.91084
558.27        65.77653
558.70        65.29248
559.14        65.17087
559.57        65.33708
560.01        65.44253
560.45        65.45215
560.88        65.50134
561.32        65.60147
561.75        65.70735
562.19        65.80738
562.63        65.70864
563.06        65.45451
563.50        65.49139
563.93        65.51183
564.37        65.52112
564.80        65.47447
565.24        65.37165
565.68        65.08636
566.11        65.78707
566.55        65.11803
566.98        64.98172
567.42        64.82818
567.85        64.99504
568.29        65.41772
568.72        65.70286
569.16        65.92745
569.60        65.98361
570.03        66.02923
570.47         66.2507
570.90        66.76727
571.34        65.46768
571.77        66.32814
572.21        66.21374
572.64        65.99274
573.08        66.46615
573.51        65.49773
573.95        65.53075
574.38        65.99803
574.82        66.23902
575.25        65.80376
575.69        65.72855
576.12        65.98739
576.56        65.29765
576.99        65.54868
577.42        65.44116
577.86        65.87281
578.29        66.37553
578.73        66.16541
579.16         66.0171
579.60        65.67515
580.03        65.81881
580.47         65.5125
580.90        66.43684
581.33        66.47253
581.77        66.43198
582.20         66.1601
582.64        66.08051
583.07        66.08588
583.51        65.98318
583.94        65.93961
584.37        66.16473
584.81        66.59695
585.24         66.6022
585.68        66.23045
586.11          65.991
586.54        66.07173
586.98        65.32149
587.41        65.23862
587.85        65.61087
588.28        65.56023
588.71        65.46121
589.15        65.35892
589.58        65.57446
590.01        65.23175
590.45         65.3148
590.88        66.27451
591.31        66.28015
591.75         65.6931
592.18        65.33459
592.61        65.34361
593.05        65.92998
593.48        66.29239
593.91        66.04649
594.35        65.80013
594.78        65.19794
595.21        64.72324
595.65        65.28206
596.08        66.81116
596.51        66.57162
596.94        65.87986
597.38        65.46974
597.81        65.79906
598.24        66.24944
598.68        65.68172
599.11        65.67469
599.54        66.72115
599.97        65.96744
600.41        66.07524
600.84        65.27532
601.27        65.69803
601.70        65.73421
602.14        65.64448
602.57        65.53741
603.00        65.60352
603.43        64.88498
603.87        65.70975
604.30        66.19122
604.73        66.15475
605.16        65.50506
605.60        65.34372
606.03        64.85539
606.46        64.44003
606.89        65.06705
607.32        65.44131
607.76        65.27841
608.19        65.62308
608.62         65.5087
609.05        65.49417
609.48        65.41769
609.92        66.15233
610.35        65.94595
610.78        65.39031
611.21        65.31612
611.64        65.38583
612.07         65.6726
612.50        65.64159
612.94        65.68723
613.37        65.66256
613.80        65.46484
614.23        65.08385
614.66        64.83495
615.09        65.50503
615.52        65.64957
615.96        65.47315
616.39        65.49648
616.82        65.75259
617.25         65.4316
617.68        65.45008
618.11         65.3587
618.54        65.43902
618.97        65.51196
619.40        65.51859
619.84        65.62955
620.27        65.25322
620.70        65.25148
621.13        65.38331
621.56        65.02353
621.99        64.39384
622.42        64.22788
622.85        64.59026
623.28        64.64118
623.71         64.3184
624.14        64.80553
624.57        65.02587
625.00        64.82489
625.43        65.04988
625.86         64.9847
626.29        65.05305
626.72        64.60373
627.15         65.0307
627.58        65.04053
628.01        64.91682
628.44        65.29873
628.87        65.08582
629.30         64.7287
629.73        64.75969
630.16         64.6868
630.59        64.76178
631.02        64.93799
631.45        65.17452
631.88        65.33286
632.31        65.36402
632.74        65.40024
633.17        65.28492
633.60        65.18372
634.03        65.06609
634.46        64.92741
634.89        64.77893
635.32        64.66037
635.75        64.58732
636.18        64.48412
636.61         64.3878
637.04        64.39239
637.47         64.5001
637.89        64.67503
638.32        64.82687
638.75        64.87154
639.18        64.78594
639.61        64.59578
640.04        64.38297
640.47        64.27956
640.90        64.31792
641.33        64.46431
641.76        64.64619
642.18        64.74866
642.61        64.71937
643.04        64.60304
643.47        64.46803
643.90        64.42324
644.33        64.49207
644.76        64.63508
645.18        64.78607
645.61        64.82362
646.04        64.72937
646.47        64.54992
646.90        64.35265
647.33        64.23522
647.75        64.20306
648.18        64.27724
648.61         64.4525
649.04        64.50488
649.47        64.34426
649.89        64.93312
650.32        64.54937
650.75        64.55543
651.18        64.47865
651.61        64.50288
652.03        64.56341
652.46        64.64363
652.89        64.66085
653.32        64.78503
653.74        65.11926
654.17        64.71327
654.60        64.41541
655.03        65.30424
655.46        64.30367
655.88        63.71879
656.31        66.16637
656.74        66.85651
657.16         66.5354
657.59        66.64326
658.02        65.38244
658.45        65.46079
658.87        65.28123
659.30          65.138
659.73        64.82923
660.15        65.36784
660.58        64.74802
661.01        64.78795
661.44        64.86707
661.86        64.55034
662.29        63.89442
662.72        64.18584
663.14        64.19595
663.57        64.30923
664.00         64.1983
664.42         64.3237
664.85        64.68106
665.27        65.03371
665.70        65.25402
666.13        65.30131
666.55        65.15825
666.98        64.77168
667.41        64.23853
667.83        64.13656
668.26        63.85131
668.69         63.8856
669.11        63.99826
669.54        64.11246
669.96        64.20012
670.39         64.2807
670.82        64.37242
671.24         64.4717
671.67         64.5723
672.09        64.64729
672.52        64.69925
672.94            64.7
673.37        64.65503
673.80        64.56748
674.22        64.47199
674.65        64.38985
675.07        64.35007
675.50        64.33804
675.92        64.33698
676.35        64.30385
676.77        64.23304
677.20        64.13699
677.62        64.05019
678.05        64.02496
678.47        64.06922
678.90        64.17089
679.32        64.28401
679.75        64.34917
680.17        64.34606
680.60        64.29446
681.02        64.23831
681.45        64.23621
681.87        64.31217
682.30        64.45431
682.72        64.62785
683.15        64.68597
683.57        64.64528
684.00         64.6327
684.42        64.67441
684.85        64.72114
685.27        64.77007
685.70        64.86734
686.12        64.96918
686.54        65.01439
686.97        64.98978
687.39        64.89529
687.82        64.73962
688.24        64.71162
688.66         64.5772
689.09        64.52398
689.51        64.49174
689.94        64.47743
690.36        64.48482
690.78        64.50639
691.21        64.55122
691.63        64.61708
692.06        64.70275
692.48        64.81208
692.90        64.90491
693.33        64.92527
693.75        64.86314
694.17        64.70415
694.60        64.53519
695.02        64.51804
695.44        64.65408
695.87        64.87764
696.29         65.0793
696.71        64.98242
697.14        64.66076
697.56        64.44637
697.98        64.38541
698.41        64.63834
698.83        64.51193
699.25        64.76878
699.68        65.08267
700.10        65.21977
700.52        65.11047
700.94        64.84653
701.37        64.56557
701.79        64.47664
702.21        64.62392
702.64        64.92458
703.06        65.26316
703.48        65.43617
703.90        65.38719
704.33        65.18178
704.75        64.90982
705.17        64.70466
705.59        64.61855
706.01        64.61395
706.44        64.65829
706.86        64.73053
707.28        64.80516
707.70         64.8579
708.12        64.91312
708.55        65.07238
708.97        65.29329
709.39        65.35855
709.81        65.26611
710.23        65.22162
710.66        65.23555
711.08        65.20089
711.50        65.11113
711.92        65.03341
712.34        64.98044
712.76        64.94711
713.19        64.92464
713.61        64.94009
714.03        64.98388
714.45        65.03006
714.87        65.14619
715.29        65.32568
715.71        65.57352
716.13        65.85641
716.56        66.10177
716.98        66.27885
717.40        66.32845
717.82        66.27106
718.24        66.11236
718.66        65.86486
719.08        65.56499
719.50        65.24129
719.92        64.96169
720.34        64.82185
720.76         64.8392
721.19        64.96526
721.61        65.18983
722.03        65.43969
722.45        65.66966
722.87         65.8813
723.29        66.01279
723.71        65.97189
724.13        65.75728
724.55        65.40683
724.97        65.02743
725.39         64.8048
725.81        64.79141
726.23        64.91708
726.65        65.11831
727.07        65.43107
727.49        65.57819
727.91        65.77185
728.33        65.93616
728.75        66.06839
729.17        66.16213
729.59        66.20213
730.01        66.19781
730.43        66.17303
730.85        66.13426
731.27        66.07767
731.69        66.00135
732.10        65.89922
732.52        65.77585
732.94        65.65363
733.36        65.55599
733.78        65.42863
734.20        65.20814
734.62        65.18575
735.04        65.45091
735.46        64.95302
735.88        65.62759
736.30        65.89819
736.72        66.24582
737.13        66.49409
737.55        66.56539
737.97        66.49814
738.39        66.33453
738.81        66.21378
739.23        66.17036
739.65        66.16978
740.06        66.18883
740.48        66.26763
740.90        66.37224
741.32        66.50233
741.74        66.63475
742.16        66.72479
742.57        66.76114
742.99        66.73751
743.41        66.66427
743.83        66.54235
744.25        66.38549
744.67         66.1963
745.08        66.04131
745.50        66.00035
745.92        66.09393
746.34        66.28813
746.75        66.50829
747.17        66.61907
747.59        66.60024
748.01        66.49412
748.42        66.34377
748.84        66.27725
749.26        66.33199
749.68        66.30018
750.09        66.20706
750.51          66.493
750.93        66.95971
751.35        66.73523
751.76         65.9527
752.18        65.59054
752.60        65.70862
753.01        65.78395
753.43        65.75324
753.85        65.78157
754.27        65.85812
754.68        65.95712
755.10        66.06145
755.52        66.13731
755.93        66.16557
756.35        66.13907
756.77        66.14624
757.18        66.21036
757.60        66.32764
758.02        66.74193
758.43        67.29911
758.85         66.7788
759.26         66.4873
759.68        66.08042
760.10         66.0369
760.51        66.13278
760.93        66.34473
761.34        66.53873
761.76        66.94611
762.18          67.068
762.59        67.03603
763.01        67.00287
763.42        67.05436
763.84        66.99689
764.26        66.86848
764.67        66.80919
765.09        66.81762
765.50        66.65312
765.92         66.3912
766.33        66.22914
766.75         66.1644
767.16        66.20397
767.58        66.31153
768.00        66.50487
768.41        66.74145
768.83        66.97276
769.24        67.09785
769.66        66.93295
770.07        66.58183
770.49        66.29976
770.90        66.23897
771.32        66.69227
771.73         67.4632
772.15         67.7851
772.56        67.58273
772.97        67.21114
773.39        66.85448
773.80        66.69307
774.22        66.77701
774.63        67.09336
775.05         67.4585
775.46         67.6501
775.88        67.57432
776.29        67.33266
776.70        67.05269
777.12         66.9575
777.53        67.11117
777.95        67.39728
778.36        67.72267
778.77        67.89652
779.19        67.88375
779.60        67.77101
780.02        67.58344
780.43        67.44247
780.84        67.43287
781.26        67.18136
781.67        66.81011
782.09        67.35553
782.50        68.62566
782.91        68.09496
783.33        67.86075
783.74        67.51139
784.15        67.70066
784.57        67.71189
784.98        67.57431
785.39        67.46394
785.81         67.4546
786.22        67.85472
786.63        68.51447
787.04        68.84782
787.46        68.80206
787.87         68.6451
788.28        68.48574
788.70        68.37061
789.11        68.31783
789.52        68.33541
789.93        68.38052
790.35        68.37787
790.76        68.32184
791.17        68.22612
791.58        68.13483
792.00        68.08158
792.41        68.09151
792.82        68.19141
793.23        68.31151
793.65        68.22598
794.06        67.98273
794.47        67.89968
794.88        67.98639
795.29        68.00381
795.71        67.91854
796.12        67.95335
796.53        68.11593
796.94        68.21626
797.35        68.28599
797.76        68.62135
798.18        69.09311
798.59        69.28029
799.00        69.11652
799.41        68.81164
799.82        68.50175
800.23        68.33766
800.64        68.37539
801.06        68.54453
801.47        68.79433
801.88        68.94071
802.29        68.92414
802.70        68.79117
803.11        68.59467
803.52        68.42107
803.93        68.31982
804.34        68.27632
804.75        68.27258
805.17        68.33607
805.58        68.50607
805.99        68.54751
806.40        68.51965
806.81        69.03098
807.22        69.83318
807.63        69.72117
808.04        68.83481
808.45        68.44196
808.86        68.64344
809.27        68.75664
809.68        68.68479
810.09        68.60342
810.50        68.49963
810.91        68.32697
811.32        68.20719
811.73         68.3321
812.14        68.72252
812.55        69.31973
812.96        69.91753
813.37        70.12527
813.78        69.84462
814.19         69.2298
814.60            68.5
815.01        67.94945
815.42        67.65566
815.83        67.53185
816.24        67.56325
816.65          67.714
817.05        67.95182
817.46        68.27136
817.87        68.59377
818.28        68.74342
818.69        68.68906
819.10        68.44123
819.51        68.15607
819.92         68.1342
820.33        68.44236
820.74        68.98596
821.14         69.5498
821.55        69.78067
821.96        69.60043
822.37        69.12485
822.78        68.54582
823.19        68.18722
823.60        68.15694
824.00        68.38515
824.41        68.71216
824.82        68.96996
825.23        69.07515
825.64        69.07848
826.04        69.02815
826.45        68.95575
826.86        68.89819
827.27        68.85115
827.68        68.77787
828.08        68.65589
828.49        68.43995
828.90        68.16045
829.31         67.9535
829.72        68.03333
830.12         68.4539
830.53        69.10085
830.94        69.73067
831.35        69.87677
831.75        69.45155
832.16         68.5829
832.57        67.62013
832.97        67.10194
833.38        67.16445
833.79        67.61601
834.20        68.25323
834.60        68.74938
835.01        68.99916
835.42        69.15788
835.82        69.22665
836.23        69.12221
836.64        68.89761
837.04        68.52048
837.45        68.24363
837.86        68.55732
838.26         69.5476
838.67        71.03041
839.08        72.50384
839.48         73.0145
839.89        72.32113
840.29        70.76948
840.70        69.05052
841.11        67.97263
841.51        67.75401
841.92        68.13911
842.33        68.89366
842.73         69.5971
843.14        69.96621
843.54        70.17842
843.95        70.29012
844.35        70.43826
844.76         70.6366
845.17        70.80119
845.57        70.85989
845.98        70.70101
846.38        70.33862
846.79        69.82872
847.19        69.30826
847.60        68.95693
848.00        68.84072
848.41        68.89783
848.81        69.06799
849.22        69.15746
849.62        69.15267
850.03        69.09031
850.43        69.04029
850.84        69.05208
851.24        69.18224
851.65        69.32593
852.05        69.54501
852.46        69.83775
852.86        70.17435
853.27        70.54646
853.67        70.77169
854.07        70.70863
854.48        70.32837
854.88        69.71413
855.29        68.99575
855.69        68.55209
856.10        68.43678
856.50         68.6262
856.90        68.96262
857.31        69.19023
857.71        69.26593
858.12        69.18668
858.52        69.03125
858.92        68.81978
859.33        68.56853
859.73        68.32449
860.13        68.05389
860.54        67.73583
860.94        67.42826
861.34        67.13085
861.75        66.96675
862.15        67.16504
862.55        67.72169
862.96        68.52081
863.36        69.34375
863.76        69.73637
864.17        69.56738
864.57        68.99687
864.97        68.21221
865.38        67.52771
865.78        67.08649
866.18        66.81046
866.58        66.70908
866.99        66.78404
867.39        67.03365
867.79        67.46242
868.19        67.97742
868.60        68.40166
869.00        68.71127
869.40        68.88482
869.80        68.97333
870.21        69.09406
870.61        69.32465
871.01        69.57955
871.41        69.70331
871.81         69.4765
872.22        68.87865
872.62        67.98624
873.02        67.08071
873.42        66.63362
873.82        66.77013
874.22        67.35966
874.63         68.0655
875.03        68.36214
875.43        68.10381
875.83        67.44771
876.23        66.69946
876.63        66.33131
877.03        66.46518
877.44        66.93961
877.84        67.51667
878.24        67.80685
878.64        67.66541
879.04        67.10032
879.44        66.46056
879.84         66.3721
880.24          66.904
880.64        67.79596
881.04        68.63792
881.44        68.78779
881.84        68.10458
882.24         66.8461
882.65        65.42486
883.05        64.46576
883.45        64.16311
883.85        64.34206
884.25        64.84282
884.65        65.37783
885.05        65.81224
885.45        66.22755
885.85        66.59212
886.25        66.85426
886.65        67.01401
887.05        67.04096
887.45        66.99188
887.85        67.00048
888.25        67.08879
888.65        67.21664
889.04        67.31915
889.44        67.31253
889.84        67.17218
890.24        66.95962
890.64        66.70013
891.04        66.43376
891.44        66.19812
891.84        65.98485
892.24        65.87239
892.64        65.97444
893.04        66.29565
893.44        66.80887
893.83        67.37987
894.23        67.72307
894.63        67.79075
895.03        67.63918
895.43        67.43608
895.83        67.47718
896.23        67.81469
896.63        68.31982
897.02        68.80891
897.42        69.01488
897.82        68.86755
898.22        68.50388
898.62        67.99508
899.01        67.42843
899.41        66.88773
899.81        66.33587
900.21        65.92255
900.61        65.89133
901.00        66.26448
901.40        66.96912
901.80        67.72611
902.20        68.07133
902.59        67.90768
902.99        67.35154
903.39        66.67065
903.79        66.31897
904.18        66.39876
904.58         66.7505
904.98        67.20369
905.38        67.50791
905.77        67.59601
906.17        67.60169
906.57        67.50018
906.96        67.24666
907.36         66.8608
907.76        66.34656
908.15        65.97752
908.55         66.1731
908.95        66.99192
909.34        68.31924
909.74        69.66549
910.14        70.29555
910.53        70.00497
910.93        69.04062
911.33        67.81579
911.72        66.97721
912.12        66.76318
912.52        66.96515
912.91        67.36784
913.31        67.66314
913.70        67.75596
914.10        67.73669
914.49        67.73366
914.89        67.85663
915.29        68.15243
915.68        68.54856
916.08        68.87583
916.47        68.95104
916.87        68.74377
917.26        68.30245
917.66        67.83515
918.05        67.51214
918.45        67.39583
918.84        67.49085
919.24        67.64622
919.64        67.73675
920.03        67.73513
920.42        67.63489
920.82        67.61003
921.21        67.87795
921.61        68.44282
922.00        69.26033
922.40        70.01429
922.79        70.30376
923.19        70.00075
923.58        69.27588
923.98        68.44991
924.37        67.92513
924.77        67.82617
925.16        68.00454
925.55         68.3372
925.95        68.58552
926.34        68.66833
926.74        68.63202
927.13        68.47881
927.52        68.13771
927.92        67.67819
928.31        67.12618
928.70        66.59702
929.10        66.24322
929.49        66.09411
929.89        66.05376
930.28        66.23815
930.67        66.71951
931.07         67.4336
931.46        68.41198
931.85        69.25058
932.24        69.34715
932.64        68.65392
933.03        67.33645
933.42        66.00655
933.82        65.56184
934.21        66.18855
934.60        67.67574
934.99        69.46214
935.39        70.51886
935.78        70.56528
936.17        69.79457
936.56        68.72034
936.96        68.15601
937.35        68.30502
937.74        68.90878
938.13        69.50727
938.53        69.40733
938.92        68.50086
939.31        67.12659
939.70        65.75166
940.09        65.01414
940.49        65.02654
940.88         65.5752
941.27        66.45872
941.66        67.29755
942.05        67.90605
942.44        68.42117
942.84        68.72385
943.23        68.61651
943.62        68.12382
944.01        67.24574
944.40        66.38985
944.79        66.26814
945.18        67.00308
945.57        68.38857
945.97         69.8148
946.36        70.30979
946.75        69.59204
947.14        68.06192
947.53        66.27283
947.92        65.00687
948.31        64.49792
948.70         64.5274
949.09        64.97177
949.48        65.61976
949.87        66.33921
950.26        67.17535
950.65        68.04176
951.04        68.77769
951.43        69.30317
951.82        69.57695
952.21        69.56807
952.60        69.29028
952.99        68.80508
953.38          68.179
953.77        67.54292
954.16        67.08302
954.55        66.85255
954.94        66.80389
955.33         66.9386
955.72        67.22495
956.11        67.61255
956.50        68.11037
956.89        68.50526
957.28        68.45306
957.66        67.88821
958.05        66.94016
958.44        65.95996
958.83         65.4679
959.22         65.5564
959.61        66.09389
960.00        66.75014
960.39        66.91574
960.78         66.4226
961.16        65.46936
961.55        64.45793
961.94        63.87699
962.33        63.85799
962.72         64.3002
963.11          64.954
963.49        65.37351
963.88        65.33017
964.27        64.94921
964.66        64.61483
965.04        64.93605
965.43        65.96183
965.82        67.55161
966.21        69.08847
966.60        69.39896
966.98        68.17807
967.37        65.95556
967.76        63.62497
968.15        62.28763
968.53        62.16238
968.92        62.96937
969.31        64.23402
969.69         65.0043
970.08        64.86574
970.47        64.13826
970.86        63.37754
971.24        63.37093
971.63        64.27917
972.02          65.849
972.40        67.56104
972.79        68.16084
973.17        67.36971
973.56        65.66528
973.95        63.80001
974.33        62.72558
974.72        62.64104
975.11         63.2153
975.49        64.16806
975.88        64.88291
976.26         65.1438
976.65        65.11713
977.04        64.82375
977.42        64.24194
977.81        63.41715
978.19        62.34301
978.58        61.41681
978.96        61.26402
979.35        61.98287
979.74        63.42944
980.12        65.21089
980.51        66.33642
980.89        66.61681
981.28        66.29129
981.66        65.72054
982.05        65.43375
982.43        65.58865
982.82         65.9478
983.20        66.59138
983.59        67.55642
983.97        68.84375
984.35        70.45663
984.74        71.80369
985.12        72.11003
985.51        71.19022
985.89        69.33154
986.28        67.40744
986.66        66.67474
987.04        67.46822
987.43        69.39627
987.81        71.79736
988.20        73.20926
988.58        73.12149
988.96        71.88461
989.35        70.06348
989.73        68.44795
990.12        67.27299
990.50        66.36306
990.88         65.5198
991.27        64.48817
991.65        63.29123
992.03        62.13773
992.42        61.40124
992.80        61.49467
993.18        62.48506
993.56          64.244
993.95        66.21348
994.33        67.51009
994.71        67.69118
995.10        67.05989
995.48        66.15117
995.86        65.91817
996.24        66.57366
996.63        67.65258
997.01        68.97458
997.39         69.8017
997.77        69.78529
998.15        69.32079
998.54        68.29109
998.92        66.33146
999.30        63.71755
999.68        60.71845
1000.06        58.33045
1000.45        57.95088
1000.83        59.92171
1001.21         63.9592
1001.59        69.19958
1001.97        73.29801
1002.35        75.07016
1002.73        75.00791
1003.12        73.94244
1003.50        72.98982
1003.88        72.61466
1004.26        72.27903
1004.64        72.10098
1005.02        72.37716
1005.40        73.09001
1005.78        74.42515
1006.16        75.48758
1006.54        74.73476
1006.92        72.10146
1007.30         68.1838
1007.69        64.50127
1008.07        63.06451
1008.45        64.43184
1008.83        68.08759
1009.21        72.90075
1009.59        76.00188
1009.97        75.97898
1010.35        73.72773
1010.73        70.22205
1011.11         66.8969
1011.49         64.3804
1011.86         62.2742
1012.24        60.96596
1012.62        61.00071
1013.00         62.3596
1013.38        65.07464
1013.76        68.39545
1014.14        70.24277
1014.52         69.6847
1014.90        67.21387
1015.28          64.002
1015.66        61.78332
1016.04        60.95909
1016.41        61.01115
1016.79        61.61195
1017.17        62.20705
1017.55        62.53088
1017.93        62.87178
1018.31        63.08002
1018.69        62.85267
1019.06        62.18752
1019.44        61.01645
1019.82        59.77929
1020.20        59.58908
1020.58        60.70386
1020.95         62.5392
1021.33        64.43977
1021.71        65.56507
1022.09        65.86486
1022.46         65.8064
1022.84        65.24944
1023.22        64.13553
1023.60        62.71921
1023.97        60.85906
1024.35        59.88055
1024.73        61.27041
