SpectraSmart Spectrum 2.9.0.0
--------- Device Information -----------
Spectrum Name :  反射率_0
Saving Time :  2024/04/26 23:49:29
Spectro-Module Model Name : SE2030-DUVN
Spectro-Module Serial Number : OS361AC55029948
Wavelength Start : 200
Wavelength End : 1025
Wavelength Unit : Wavelength(nm)
Spectrum Unit : Reflectance(%)
-----------Spectrum Setting ------------
Integration Time : 20ms
Average : 10
Boxcar : 0
Background removal :  enabled
linearity correction :  enabled
SC :  disabled
Intensity correction :  disabled
DWT denoise :  enabled
savitzky-golay :  disabled
FFT :  disabled
Running average :  disabled
Kalman :  disabled
High pass :  disabled
---------------BEGIN--------------------
Wavelength(nm)             Reflectance(%)
200.29               0
200.75        57.94933
201.21        52.19866
201.67        47.30754
202.13        45.04994
202.58        45.29788
203.04        47.91978
203.50        52.19706
203.96        55.18271
204.42        54.78774
204.88        51.19917
205.34        46.28411
205.80        44.08347
206.26        45.39582
206.72          48.313
207.18        50.81437
207.64        51.07912
208.10        48.96808
208.55        45.22739
209.01        39.51757
209.47        35.30823
209.93        35.64897
210.39        38.34811
210.85        42.13264
211.31        47.73662
211.77        57.37895
212.23        77.74853
212.69        126.5698
213.14        204.0386
213.60         193.251
214.06        132.3548
214.52        93.19006
214.98        76.45031
215.44        70.17456
215.90        67.73309
216.36        67.79015
216.81        69.37672
217.27        72.37306
217.73        78.71707
218.19        87.32428
218.65        89.63085
219.11        83.36251
219.57        74.24168
220.02        67.84342
220.48        67.24447
220.94         71.4577
221.40         80.2305
221.86        93.17728
222.32        101.5696
222.77        97.52237
223.23         87.5102
223.69        76.47261
224.15        66.66719
224.61        58.39348
225.06        51.00431
225.52        45.82561
225.98        43.99107
226.44        45.01232
226.90        48.11226
227.36        51.53992
227.81        52.34494
228.27         50.1913
228.73        46.24858
229.19        42.40977
229.65        40.76876
230.10        41.44302
230.56        43.69032
231.02        46.21656
231.48        47.02867
231.93         45.7502
232.39        43.42499
232.85        41.23535
233.31        40.71953
233.77        41.99577
234.22        44.49243
234.68           47.23
235.14        48.79856
235.60        48.79809
236.05        47.67634
236.51        46.02059
236.97         45.1007
237.43        45.49543
237.88        46.89016
238.34        48.93811
238.80        51.34815
239.26        54.11091
239.71        57.93906
240.17        62.56019
240.63        67.13608
241.08        71.00069
241.54        73.24028
242.00        75.11811
242.46        80.06691
242.91        90.99441
243.37        109.8446
243.83        137.5889
244.28         162.618
244.74         166.384
245.20        147.7106
245.66        122.9394
246.11        107.4293
246.57        102.3198
247.03        103.4549
247.48        105.6378
247.94        101.2056
248.40        91.74232
248.85         82.0215
249.31        75.66161
249.77        74.15173
250.22        76.84156
250.68        83.06813
251.14        91.35765
251.59        95.79017
252.05        93.23564
252.51        86.95892
252.96        79.75629
253.42        74.66943
253.88        71.78165
254.33         69.5942
254.79        69.27477
255.25        71.39551
255.70        75.34542
256.16        80.78086
256.62        84.89188
257.07         83.6318
257.53        78.65858
257.99        72.60336
258.44        67.61102
258.90        65.76799
259.35        65.93785
259.81        67.36777
260.27        68.67366
260.72        68.28551
261.18        66.46825
261.63        63.70628
262.09        61.21418
262.55         59.6957
263.00        59.00644
263.46        58.92562
263.91        58.66113
264.37        57.56517
264.83         55.6268
265.28        53.20166
265.74        51.06869
266.19        49.86937
266.65        49.71398
267.11        50.21169
267.56        50.87439
268.02        50.94386
268.47        50.21524
268.93        48.97221
269.38        47.48028
269.84        46.20627
270.30        45.26567
270.75        44.48576
271.21        43.81992
271.66        43.14654
272.12        42.42607
272.57         41.7019
273.03        40.93862
273.48        40.04762
273.94        39.08803
274.39        38.05382
274.85        37.10725
275.31        36.33464
275.76        35.72565
276.22         35.2862
276.67        34.90291
277.13        34.50616
277.58        34.02315
278.04        33.49952
278.49        32.93786
278.95        32.46576
279.40        32.04389
279.86        31.69888
280.31        31.30145
280.77        30.77864
281.22        30.09843
281.68        29.37755
282.13        28.69958
282.59         28.2595
283.04        28.04916
283.50         28.0234
283.95        28.08343
284.41        28.08586
284.86        27.98445
285.32         27.8483
285.77          27.704
286.22        27.65137
286.68        27.70823
287.13        27.79851
287.59        27.90922
288.04        27.98134
288.50        28.01487
288.95        27.99652
289.41        27.94099
289.86        27.79728
290.32        27.61457
290.77        27.41799
291.22        27.26976
291.68        27.24374
292.13        27.36186
292.59         27.6316
293.04        28.08406
293.50        28.77924
293.95         29.6995
294.40        30.82424
294.86        32.05384
295.31        33.22157
295.77        34.29881
296.22        35.31384
296.68        36.36908
297.13        37.61625
297.58        39.09972
298.04        40.77171
298.49         42.5512
298.95         44.3264
299.40        46.04827
299.85        47.75727
300.31        49.48506
300.76        51.26059
301.21        53.09536
301.67        54.96961
302.12        56.84719
302.58        58.76722
303.03        60.67842
303.48        62.60767
303.94        64.52602
304.39        66.31899
304.84        68.01623
305.30        69.67281
305.75        71.34369
306.20        73.20256
306.66        75.27869
307.11        77.46084
307.57        79.65162
308.02        81.59699
308.47        83.26342
308.93        84.72099
309.38        86.04052
309.83        87.45302
310.29        89.01337
310.74        90.64829
311.19        92.22266
311.65        93.48899
312.10        94.37393
312.55        94.96085
313.00        95.44355
313.46        96.12344
313.91        97.04792
314.36        98.15411
314.82        99.26953
315.27        100.1302
315.72        100.6438
316.18          100.92
316.63        101.0733
317.08        101.3316
317.53        101.7639
317.99         102.296
318.44        102.8575
318.89        103.3049
319.35         103.594
319.80        103.7764
320.25        103.9282
320.70        104.1671
321.16        104.5204
321.61        104.9932
322.06         105.483
322.51         105.835
322.97        106.0009
323.42        106.0253
323.87        106.0758
324.32        106.4505
324.78        107.1622
325.23        108.1908
325.68        109.1867
326.13         109.577
326.59        109.2351
327.04         108.378
327.49        107.4178
327.94        107.0357
328.39        107.4045
328.85        108.2884
329.30        109.4864
329.75        110.3679
330.20        110.7108
330.66        110.6705
331.11        110.4787
331.56        110.4294
332.01        110.6357
332.46        110.9676
332.92        111.3148
333.37        111.6814
333.82         111.981
334.27        112.2901
334.72         112.594
335.17         112.834
335.63        113.0108
336.08        113.1997
336.53        113.4999
336.98        114.1278
337.43        115.1126
337.88        116.3467
338.34        117.6581
338.79        118.8815
339.24        119.8555
339.69        120.6157
340.14        121.0848
340.59        121.1656
341.05        120.9287
341.50        120.4347
341.95        119.9469
342.40        119.8649
342.85        120.2862
343.30        121.1025
343.75        122.1479
344.20        123.1202
344.66        123.8946
345.11        124.5333
345.56        125.0065
346.01        125.2829
346.46        125.4002
346.91        125.3793
347.36        125.3324
347.81        125.4615
348.26        125.7988
348.72        126.2609
349.17        126.7985
349.62        127.3596
350.07        127.8919
350.52        128.4361
350.97        128.7764
351.42        128.5737
351.87        127.8201
352.32        126.6362
352.77        125.4878
353.22        125.0625
353.67        125.4752
354.13        126.5251
354.58        127.7214
355.03        128.1854
355.48        127.6914
355.93        126.5023
356.38        125.1373
356.83        124.3841
357.28        124.4035
357.73        124.9165
358.18        125.4819
358.63        125.3995
359.08        124.4974
359.53        123.0428
359.98        121.3959
360.43        120.0637
360.88        119.1779
361.33        118.5746
361.78        118.0665
362.23        117.3704
362.68        116.4238
363.13        115.3597
363.58        114.3033
364.03        113.4201
364.48        112.7416
364.93        112.1731
365.38        111.6569
365.83         111.123
366.28        110.5364
366.73        109.9307
367.18        109.2592
367.63        108.4373
368.08        107.4755
368.53         106.415
368.98        105.3781
369.43        104.5633
369.88         104.007
370.33        103.6321
370.78         103.346
371.23        102.9924
371.68        102.5073
372.13        101.9369
372.58        101.2521
373.03        100.4087
373.48         99.4223
373.93        98.30203
374.38        97.18549
374.83        96.30646
375.28         95.7113
375.72          95.316
376.17        95.01386
376.62        94.51611
377.07        93.77682
377.52        92.90573
377.97        92.02429
378.42        91.34686
378.87        90.93239
379.32        90.66756
379.77        90.53774
380.22        90.52608
380.67        90.57921
381.11        90.73181
381.56        90.72682
382.01         90.2411
382.46         89.2682
382.91        87.97139
383.36        86.71059
383.81        85.97949
384.26        85.84858
384.71        86.15285
385.15        86.64787
385.60        86.89302
386.05        86.75101
386.50        86.34839
386.95        85.78055
387.40        85.20537
387.85        84.69344
388.29        84.13977
388.74        83.67358
389.19        83.26704
389.64        82.90842
390.09        82.60106
390.54        82.31274
390.98        81.96279
391.43        81.59009
391.88        81.21338
392.33        80.86203
392.78        80.56525
393.23        80.32101
393.67        80.10268
394.12        79.97662
394.57        79.79581
395.02        79.58794
395.47        79.54871
395.91        79.59375
396.36        79.37521
396.81        78.89185
397.26        78.31596
397.71        77.79483
398.15        77.42702
398.60        77.31243
399.05        77.40913
399.50        77.58124
399.95        77.47709
400.39        77.14055
400.84        76.95634
401.29        76.90929
401.74         76.6293
402.18        76.12263
402.63        75.57014
403.08        75.12638
403.53        74.90185
403.97        74.91864
404.42        75.14587
404.87        75.40131
405.32        75.38651
405.76         75.0367
406.21        74.48042
406.66        73.88413
407.11        73.53768
407.55        73.54031
408.00        73.71862
408.45        73.98432
408.90        74.29544
409.34        74.48425
409.79        74.25597
410.24        73.75473
410.68        73.47094
411.13         73.4658
411.58        73.48752
412.03        73.42932
412.47        73.23309
412.92        72.86231
413.37        72.39172
413.81        71.95589
414.26         71.8058
414.71        71.95119
415.15        72.34988
415.60        72.82336
416.05        73.13546
416.49        73.20764
416.94        73.09248
417.39         72.9074
417.83         72.8246
418.28        72.89829
418.73        73.07034
419.17        73.27264
419.62        73.40405
420.07          73.419
420.51        73.32668
420.96        73.21146
421.41         73.0954
421.85        72.96671
422.30        73.01159
422.74        73.06555
423.19        72.72911
423.64        72.08387
424.08         71.8028
424.53        71.94215
424.98        72.03577
425.42        72.06865
425.87        72.48222
426.31        73.08078
426.76        72.93829
427.21        72.20895
427.65        72.00095
428.10         72.2992
428.54        72.41551
428.99        72.39411
429.44        72.18726
429.88         72.0346
430.33        72.94537
430.77        74.37286
431.22         74.7881
431.66        74.11491
432.11        73.06561
432.56        72.11873
433.00        72.06274
433.45        73.04138
433.89        74.09682
434.34        74.31333
434.78         75.4161
435.23        74.00249
435.67        71.71249
436.12        72.50989
436.57        72.86501
437.01        73.69577
437.46        74.37603
437.90        73.95287
438.35        72.74184
438.79        72.84401
439.24        72.56857
439.68        72.57845
440.13        72.84133
440.57        73.34444
441.02        73.71864
441.46        73.86716
441.91         74.4988
442.35         75.2068
442.80        74.79398
443.24         73.6254
443.69        73.52609
444.13         74.3119
444.58        75.41435
445.02        74.58233
445.47        74.65794
445.91        75.04694
446.36        75.27628
446.80        75.27802
447.24        75.76588
447.69        75.71223
448.13        75.89194
448.58        76.00925
449.02        76.05927
449.47        76.02995
449.91        75.93658
450.36        75.82978
450.80        75.61855
451.25        75.35587
451.69        75.43147
452.13        75.27627
452.58        75.34551
453.02        75.43537
453.47        75.52287
453.91        75.56852
454.36        75.59408
454.80        75.58311
455.24        75.37043
455.69        74.95164
456.13        74.62036
456.58        74.50855
457.02        73.62845
457.46        73.34679
457.91        73.58189
458.35        74.34083
458.79        74.41425
459.24        73.78815
459.68        72.96081
460.13        72.25411
460.57        71.97022
461.01        72.25424
461.46        72.44101
461.90        73.10455
462.34         73.6709
462.79         73.0889
463.23        73.03202
463.68        73.49118
464.12        73.29165
464.56        72.56153
465.01        71.76291
465.45        71.09446
465.89        70.85801
466.34        70.92644
466.78        71.10943
467.22        71.42148
467.67        70.39198
468.11        70.73355
468.55        70.74601
468.99        71.10025
469.44        71.12397
469.88         70.8092
470.32        70.49989
470.77        70.26617
471.21        70.12197
471.65         70.0774
472.10        70.13026
472.54        70.22528
472.98        70.22948
473.42        70.09776
473.87        70.05724
474.31        70.02886
474.75         69.5322
475.20        68.77335
475.64        68.76701
476.08        69.46667
476.52        69.51554
476.97        68.74287
477.41        69.28358
477.85        69.27605
478.29        68.42085
478.74        69.38701
479.18        69.83233
479.62        68.95585
480.06        68.80734
480.50        68.92326
480.95        68.94344
481.39        68.83015
481.83        68.86396
482.27        68.36062
482.72        69.18031
483.16        68.93143
483.60        68.74326
484.04        68.91661
484.48        69.10448
484.93        69.37981
485.37        69.27238
485.81        68.50649
486.25        68.43277
486.69        70.38503
487.14        71.16318
487.58        69.14633
488.02        69.47447
488.46        67.65321
488.90        67.84441
489.34        68.59729
489.79        69.78182
490.23        68.94125
490.67        68.34011
491.11         67.6704
491.55        67.57575
491.99        67.97086
492.43        67.93624
492.88        67.47614
493.32        67.27957
493.76          67.396
494.20        67.50353
494.64        67.58829
495.08        67.74577
495.52        67.89731
495.96        67.96147
496.41         67.9034
496.85        67.62386
497.29        67.17226
497.73        67.21685
498.17        66.91269
498.61        67.04574
499.05        67.27383
499.49        67.37593
499.93        67.11915
500.37        67.22582
500.82        67.63483
501.26        67.41419
501.70        67.59967
502.14        67.47819
502.58        67.41979
503.02        67.42778
503.46        67.51898
503.90         67.6692
504.34        67.80138
504.78        67.79961
505.22        67.62856
505.66        67.41716
506.10        67.25265
506.54        67.03846
506.98        66.75645
507.42        67.22295
507.86        66.95937
508.30        67.02708
508.74        67.00056
509.18        66.92757
509.62        66.81348
510.06        66.68021
510.50        66.55651
510.94        66.42422
511.38        66.32066
511.82         66.3056
512.26        66.38647
512.70         66.5454
513.14        66.73498
513.58        66.87563
514.02        66.94229
514.46        66.95092
514.90        66.92771
515.34        66.92034
515.78        66.94085
516.22        66.96904
516.66        66.98872
517.10        66.97678
517.54        66.92764
517.98        66.85575
518.42        66.76807
518.86        66.67228
519.30        66.57558
519.74        66.47833
520.18         66.3938
520.62        66.33938
521.06        66.32205
521.50        66.34722
521.93        66.40088
522.37        66.43732
522.81        66.45525
523.25        66.45413
523.69        66.47005
524.13        66.56513
524.57        66.73629
525.01        66.94683
525.45        67.12412
525.89        67.15322
526.32        67.00974
526.76        66.76405
527.20        66.46857
527.64        66.22397
528.08        66.06903
528.52        65.93701
528.96        65.86395
529.40        65.98717
529.83        66.25194
530.27        66.45908
530.71        66.53669
531.15        66.54154
531.59        66.46021
532.03        66.21904
532.46        65.90294
532.90        65.74904
533.34        65.78542
533.78        65.90337
534.22        66.02907
534.66        66.12846
535.09        66.12326
535.53        65.90631
535.97        65.54121
536.41        65.29562
536.85        65.20899
537.28        65.14471
537.72        65.12142
538.16        65.22092
538.60           65.43
539.04        65.72128
539.47        65.98962
539.91        66.11375
540.35        66.05564
540.79        65.85735
541.22        65.60819
541.66        65.47604
542.10        65.49598
542.54        65.62128
542.97        65.77432
543.41        65.86171
543.85        65.84437
544.29        65.76622
544.72        65.65758
545.16         65.5835
545.60        65.54579
546.04        65.57932
546.47        65.66658
546.91        65.64899
547.35        65.57298
547.79        65.73434
548.22        66.04932
548.66        66.12888
549.10        66.02158
549.53        65.88581
549.97        65.78236
550.41        65.59205
550.84        65.40378
551.28        65.41221
551.72        65.54236
552.15        65.65011
552.59        65.77843
553.03        65.29904
553.46        65.66254
553.90          65.575
554.34        65.46197
554.77         65.3423
555.21        65.28826
555.65        65.31718
556.08          65.499
556.52         65.7059
556.96        65.87718
557.39        66.01472
557.83        66.06863
558.27        65.79183
558.70        65.28484
559.14        65.06368
559.57        65.13317
560.01        65.08539
560.45        64.96004
560.88        65.19157
561.32        65.69382
561.75        65.91257
562.19        65.83093
562.63        65.71691
563.06        65.62019
563.50        65.51002
563.93        65.37928
564.37        65.39999
564.80        65.56436
565.24         65.5539
565.68          65.221
566.11          65.897
566.55        65.21391
566.98        64.99777
567.42         64.7254
567.85        64.80794
568.29         65.2197
568.72        65.59794
569.16        65.94882
569.60        66.22905
570.03        66.28629
570.47        66.61034
570.90         66.8512
571.34        66.21429
571.77         66.5574
572.21        67.02572
572.64        66.77113
573.08        66.90878
573.51        66.31327
573.95        66.24416
574.38        66.60669
574.82        66.85428
575.25         66.6014
575.69        66.72083
576.12         66.6947
576.56        66.39631
576.99        66.42177
577.42        66.28793
577.86        66.72401
578.29        67.53131
578.73        67.54527
579.16        67.35032
579.60        66.65862
580.03        66.47231
580.47         66.5857
580.90        67.17071
581.33        67.43256
581.77        67.30715
582.20        67.87369
582.64        68.02444
583.07        67.39133
583.51        66.85494
583.94        66.50899
584.37        66.55343
584.81        67.01696
585.24        67.18332
585.68        66.93237
586.11        67.16698
586.54        67.20325
586.98        66.25983
587.41        65.60359
587.85        66.21063
588.28        66.27278
588.71        66.44296
589.15        66.04386
589.58        66.07442
590.01        65.97864
590.45        65.74352
590.88        66.50114
591.31        66.39854
591.75        65.91036
592.18        65.53955
592.61        65.53622
593.05        66.01481
593.48        66.86099
593.91        67.10655
594.35        66.60339
594.78         65.9504
595.21         65.3647
595.65        65.72825
596.08        66.95123
596.51        67.05592
596.94        66.15099
597.38         65.7169
597.81        65.76357
598.24        66.59913
598.68        66.15045
599.11        65.63314
599.54        67.06041
599.97        66.78502
600.41        66.32283
600.84        65.72794
601.27        66.19991
601.70        66.16807
602.14        66.24092
602.57        65.92542
603.00        65.60999
603.43        64.98159
603.87        66.06326
604.30        66.20755
604.73         66.0622
605.16        65.50891
605.60        65.54453
606.03        65.24852
606.46        64.92016
606.89        65.08108
607.32        65.85178
607.76        65.39956
608.19        65.72523
608.62        65.79736
609.05        65.70989
609.48        65.48447
609.92        66.00538
610.35        65.38615
610.78        65.51397
611.21        65.74833
611.64        65.50124
612.07        65.58209
612.50        65.36676
612.94        65.32731
613.37        65.33079
613.80        65.17133
614.23        64.87357
614.66        64.69878
615.09        65.07517
615.52        65.23408
615.96        65.22124
616.39         65.2607
616.82        65.37079
617.25        64.95568
617.68        64.73819
618.11        64.85608
618.54        65.39539
618.97        65.52169
619.40         65.1815
619.84        65.16814
620.27        64.99902
620.70        64.85126
621.13        64.60589
621.56        64.26247
621.99        63.88344
622.42        63.86245
622.85        64.23444
623.28        63.94471
623.71        64.34732
624.14        64.33666
624.57        64.67867
625.00        64.45396
625.43        64.59412
625.86        64.55081
626.29        64.62746
626.72        64.08186
627.15        64.47168
627.58        64.39684
628.01        64.19756
628.44        64.53381
628.87        64.09653
629.30        63.86118
629.73        64.03215
630.16        64.05146
630.59        64.08575
631.02        64.21554
631.45        64.42365
631.88        64.57509
632.31        64.63659
632.74        64.64729
633.17         64.5915
633.60        64.47817
634.03        64.31857
634.46         64.1133
634.89        63.89672
635.32        63.74166
635.75        63.67047
636.18        63.60041
636.61        63.54761
637.04        63.56852
637.47        63.64933
637.89        63.78652
638.32        63.91758
638.75         63.9241
639.18        63.77388
639.61        63.80161
640.04        63.51469
640.47        63.45019
640.90        63.46953
641.33        63.56487
641.76        63.68453
642.18        63.75921
642.61        63.75221
643.04        63.68715
643.47        63.61113
643.90        63.59861
644.33        63.66249
644.76          63.776
645.18        63.88488
645.61        63.88493
646.04        63.76778
646.47        63.57951
646.90        63.38509
647.33        63.27864
647.75        63.25859
648.18        63.33852
648.61        63.52376
649.04        63.58721
649.47        63.43007
649.89        64.07188
650.32        63.77141
650.75        63.61961
651.18        63.25304
651.61        63.27948
652.03        63.68848
652.46        63.88525
652.89         63.7904
653.32        63.73302
653.74        63.92261
654.17        63.17736
654.60        63.82803
655.03        63.64803
655.46        63.21228
655.88        63.31576
656.31        66.88382
656.74         70.2972
657.16        69.83414
657.59        68.95933
658.02        65.51335
658.45        64.79051
658.87        64.04365
659.30         64.5638
659.73        64.09606
660.15        64.91133
660.58        63.71389
661.01        63.52555
661.44        63.54444
661.86        63.39933
662.29        63.03637
662.72         63.3999
663.14        63.25689
663.57        63.21907
664.00        63.03021
664.42          63.108
664.85        63.46228
665.27        63.87331
665.70        64.17585
666.13        64.26513
666.55         64.1094
666.98        63.66957
667.41        63.08625
667.83        63.00586
668.26        62.83506
668.69        63.03011
669.11        63.30667
669.54         63.5163
669.96        63.61168
670.39        63.64121
670.82        63.63889
671.24        63.63601
671.67        63.64798
672.09        63.61758
672.52         63.5848
672.94         63.6311
673.37        63.74035
673.80        63.78377
674.22        63.75891
674.65        63.73045
675.07        63.71226
675.50        63.63334
675.92        63.52322
676.35        63.45097
676.77        63.43022
677.20        63.44221
677.62        63.46461
678.05        63.46011
678.47        63.41816
678.90        63.35742
679.32         63.2995
679.75        63.28932
680.17         63.3312
680.60        63.41266
681.02        63.50748
681.45        63.57225
681.87        63.60715
682.30         63.6048
682.72        63.59874
683.15         63.6274
683.57        63.70068
684.00        63.74196
684.42         63.7613
684.85        63.83106
685.27        63.93969
685.70        64.05759
686.12        64.14061
686.54        64.15181
686.97        64.08138
687.39        63.94955
687.82        63.79207
688.24        63.69331
688.66        63.67273
689.09         63.6909
689.51        63.73862
689.94        63.80667
690.36        63.86757
690.78        63.83373
691.21        63.74043
691.63        63.71112
692.06        63.76435
692.48        63.85217
692.90        63.92062
693.33        63.91255
693.75        63.81118
694.17        63.60485
694.60        63.41313
695.02         63.4132
695.44        63.60377
695.87        64.00759
696.29        64.45343
696.71        64.29523
697.14        63.67743
697.56        63.54166
697.98        63.89961
698.41        64.01716
698.83        63.87794
699.25        63.97098
699.68        64.20956
700.10        64.26822
700.52        64.09631
700.94        63.80413
701.37        63.51427
701.79        63.42825
702.21        63.58143
702.64        63.88602
703.06        64.22836
703.48        64.40995
703.90        64.37481
704.33        64.19025
704.75        63.92772
705.17        63.69404
705.59         63.5405
706.01         63.4363
706.44        63.40034
706.86        63.48845
707.28        63.68434
707.70        63.95171
708.12        64.23476
708.55        64.47563
708.97        64.62608
709.39        64.59246
709.81        64.42211
710.23        64.32356
710.66        64.33082
711.08        64.36058
711.50        64.37164
711.92        64.35104
712.34        64.29408
712.76        64.22584
713.19        64.15282
713.61        64.11749
714.03        64.11914
714.45         64.1488
714.87        64.22923
715.29        64.39941
715.71        64.64954
716.13        64.94881
716.56        65.21233
716.98        65.38519
717.40        65.40504
717.82        65.29958
718.24        65.09428
718.66        64.83374
719.08        64.56188
719.50        64.29653
719.92         64.0891
720.34        64.00989
720.76        64.06814
721.19        64.22123
721.61         64.4651
722.03        64.73795
722.45        64.99656
722.87        65.23571
723.29        65.38682
723.71        65.34812
724.13        65.11752
724.55        64.74019
724.97        64.32818
725.39        64.07415
725.81         64.0335
726.23         64.1326
726.65        64.31586
727.07        64.62885
727.49        64.79848
727.91        65.03566
728.33        65.24251
728.75        65.37727
729.17        65.42749
729.59        65.38776
730.01        65.30923
730.43        65.28409
730.85        65.32955
731.27        65.41701
731.69         65.4921
732.10        65.46507
732.52        65.32204
732.94        65.11383
733.36        64.89313
733.78        64.67947
734.20        64.50016
734.62        64.47488
735.04        64.65505
735.46        64.48494
735.88        64.93249
736.30        65.24385
736.72        65.62762
737.13        65.87034
737.55         65.8793
737.97         65.8448
738.39         65.7749
738.81        65.44056
739.23        64.99611
739.65        65.06468
740.06          65.535
740.48        65.76929
740.90        65.69907
741.32        65.68975
741.74          65.772
742.16        65.80132
742.57        65.78399
742.99        65.78147
743.41        65.77422
743.83        65.63157
744.25        65.39571
744.67         65.2608
745.08        65.28044
745.50        65.34695
745.92        65.46799
746.34        65.71146
746.75        65.95671
747.17        66.03514
747.59        65.76988
748.01         65.3578
748.42        64.91478
748.84        64.70883
749.26        64.80028
749.68        65.08219
750.09        65.42086
750.51        65.64627
750.93         65.6716
751.35        65.47637
751.76        65.14235
752.18          64.885
752.60        64.73788
753.01        64.65606
753.43        64.61759
753.85        64.54386
754.27        64.41389
754.68        64.66266
755.10        64.58317
755.52        64.75537
755.93        64.94478
756.35        65.13677
756.77        65.34196
757.18        65.48945
757.60        65.56849
758.02        65.81951
758.43        66.16629
758.85        65.62786
759.26        65.48779
759.68        65.12233
760.10        65.01934
760.51        65.30898
760.93        65.83406
761.34        66.04492
761.76        65.91353
762.18        65.81543
762.59        65.85047
763.01        65.92738
763.42        66.07285
763.84        66.10128
764.26        66.02785
764.67        65.95299
765.09        65.90958
765.50        65.81583
765.92        65.68976
766.33         65.4356
766.75        65.06511
767.16        64.91405
767.58        64.99451
768.00         65.0764
768.41        65.15604
768.83        65.50524
769.24        65.95309
769.66        65.88315
770.07        65.41351
770.49         65.1879
770.90        65.33161
771.32        65.79491
771.73         66.3963
772.15        66.63194
772.56        66.44463
772.97        66.06844
773.39        65.68025
773.80        65.48958
774.22        65.54359
774.63        65.83328
775.05        66.16217
775.46        66.27781
775.88        66.08922
776.29        65.71348
776.70        65.31922
777.12        65.19368
777.53        65.41222
777.95        65.83448
778.36         66.3261
778.77        66.62825
779.19        66.67826
779.60        66.57751
780.02        66.36189
780.43        66.16378
780.84        66.06129
781.26        65.73444
781.67        65.33826
782.09        65.77589
782.50        66.81853
782.91        66.73264
783.33        66.19288
783.74        65.97861
784.15        66.31526
784.57        66.42873
784.98        66.32678
785.39        66.34112
785.81        66.48175
786.22        66.70749
786.63        66.95227
787.04        67.06804
787.46        67.04863
787.87        66.94682
788.28        66.83101
788.70        66.77158
789.11        66.76814
789.52        66.81726
789.93        66.89709
790.35        66.96257
790.76         67.0078
791.17        67.03888
791.58        67.04832
792.00        66.98009
792.41        66.84924
792.82        66.73967
793.23        66.65762
793.65        66.48125
794.06        66.33831
794.47        66.56046
794.88        66.97739
795.29        67.48411
795.71        67.12416
796.12        66.96301
796.53        66.83466
796.94        66.74452
797.35        66.75661
797.76        67.00558
798.18         67.3778
798.59        67.57622
799.00         67.5302
799.41        67.37564
799.82        67.19649
800.23        67.09388
800.64        67.10127
801.06        67.14754
801.47        67.23154
801.88        67.26476
802.29        67.21878
802.70         67.1274
803.11        66.99258
803.52         66.8115
803.93        66.61831
804.34        66.42909
804.75        66.30496
805.17        66.40391
805.58         66.7859
805.99        67.15293
806.40        67.46132
806.81        68.17868
807.22        68.99416
807.63        68.68983
808.04        67.49557
808.45        66.88425
808.86        67.00822
809.27        67.10885
809.68        67.06557
810.09        67.03008
810.50        66.96999
810.91        66.85459
811.32         66.7954
811.73        66.96014
812.14        67.36602
812.55        67.95348
812.96        68.52876
813.37         68.7337
813.78        68.47633
814.19        67.89423
814.60        67.19988
815.01        66.67892
815.42        66.40372
815.83         66.2946
816.24        66.31483
816.65        66.38886
817.05        66.48491
817.46        66.61845
817.87        66.76645
818.28        66.83503
818.69        66.81241
819.10        66.69318
819.51        66.58846
819.92        66.71178
820.33        67.09677
820.74        67.66473
821.14        68.23381
821.55        68.51037
821.96        68.42792
822.37        68.07539
822.78        67.60641
823.19        67.28594
823.60        67.20564
824.00        67.31833
824.41        67.50031
824.82        67.63882
825.23        67.67912
825.64        67.67141
826.04        67.65047
826.45        67.62358
826.86        67.61718
827.27        67.62306
827.68        67.63054
828.08        67.65978
828.49        67.65831
828.90         67.6283
829.31        67.61578
829.72        67.69678
830.12        67.89617
830.53         68.1396
830.94        68.29679
831.35        68.10111
831.75        67.53909
832.16        66.70844
832.57        65.87846
832.97        65.44469
833.38        65.50783
833.79        65.92309
834.20        66.55399
834.60        67.18084
835.01        67.70618
835.42        68.21358
835.82        68.62537
836.23        68.73452
836.64        68.54476
837.04        68.06853
837.45        67.56267
837.86        67.52087
838.26        68.06474
838.67        69.03102
839.08        70.04845
839.48        70.39167
839.89        69.87193
840.29        68.75625
840.70        67.57961
841.11        66.93639
841.51        66.98679
841.92        67.52296
842.33        68.33878
842.73        69.07028
843.14        69.46092
843.54         69.6637
843.95        69.74254
844.35        69.85818
844.76        70.03246
845.17        70.18485
845.57        70.25812
845.98        70.15046
846.38         69.8729
846.79        69.48259
847.19        69.06354
847.60        68.71296
848.00        68.48141
848.41        68.32019
848.81        68.25748
849.22         68.2516
849.62        68.32264
850.03        68.47225
850.43        68.64913
850.84        68.70006
851.24        68.64107
851.65        68.43613
852.05        68.29261
852.46        68.46882
852.86        68.99577
853.27        69.74973
853.67          70.418
854.07        70.69168
854.48        70.49307
854.88        69.95602
855.29        69.20921
855.69         68.6265
856.10        68.28428
856.50         68.1683
856.90        68.18562
857.31         68.1951
857.71        68.18762
858.12        68.13763
858.52        68.10231
858.92        68.04971
859.33        67.95864
859.73        67.88062
860.13        67.71605
860.54        67.33882
860.94        66.79639
861.34        66.12356
861.75         65.5489
862.15        65.48004
862.55        65.96755
862.96        66.85324
863.36        67.86558
863.76        68.44923
864.17        68.42471
864.57        67.97504
864.97        67.27231
865.38        66.60926
865.78         66.1303
866.18        65.75265
866.58        65.51867
866.99        65.50133
867.39        65.72147
867.79         66.1712
868.19        66.73428
868.60        67.19115
869.00        67.50634
869.40        67.67565
869.80        67.75407
870.21        67.86562
870.61        68.09008
871.01        68.33171
871.41        68.45014
871.81         68.2506
872.22        67.71591
872.62        66.92323
873.02        66.11346
873.42        65.68777
873.82        65.75562
874.22        66.19972
874.63        66.75956
875.03        67.03075
875.43        66.88953
875.83        66.46014
876.23        65.93551
876.63        65.61575
877.03        65.58573
877.44        65.72216
877.84        65.92033
878.24        66.02952
878.64        65.95347
879.04        65.61349
879.44        65.19339
879.84        65.07008
880.24        65.27667
880.64        65.66198
881.04        65.96683
881.44        65.80163
881.84        65.10824
882.24        64.05422
882.65        62.99764
883.05        62.48159
883.45        62.64212
883.85        63.31567
884.25        64.24532
884.65          64.981
885.05         65.3554
885.45        65.48582
885.85        65.47115
886.25        65.47342
886.65        65.54905
887.05        65.62199
887.45        65.67515
887.85        65.70313
888.25        65.69794
888.65        65.68466
889.04        65.64617
889.44         65.5704
889.84          65.439
890.24        65.24355
890.64        65.01401
891.04        64.80709
891.44        64.64177
891.84         64.5273
892.24        64.40474
892.64         64.1685
893.04         63.8287
893.44        63.45118
893.83        63.18837
894.23        63.23373
894.63         63.6426
895.03         64.3092
895.43        65.11046
895.83        65.85238
896.23        66.42244
896.63        66.82328
897.02        66.97549
897.42        66.80151
897.82        66.32175
898.22        65.61092
898.62        64.80579
899.01        64.09996
899.41        63.58956
899.81         63.2468
900.21        63.10423
900.61        63.19114
901.00        63.47993
901.40        63.93741
901.80        64.43896
902.20         64.7791
902.59        64.90819
902.99        64.86073
903.39        64.69495
903.79        64.52536
904.18        64.38889
904.58        64.25111
904.98        64.17221
905.38        64.25162
905.77        64.49596
906.17        64.91193
906.57        65.31519
906.96        65.39014
907.36        65.06816
907.76        64.45506
908.15        63.86881
908.55        63.79686
908.95         64.3421
909.34        65.35006
909.74        66.43172
910.14        67.02914
910.53        66.95449
910.93        66.40417
911.33        65.59777
911.72         64.8662
912.12        64.39682
912.52        64.10078
912.91        63.94278
913.31        63.89063
913.70        63.92023
914.10        64.02328
914.49        64.26533
914.89        64.65099
915.29        65.16862
915.68        65.79227
916.08        66.28043
916.47        66.31981
916.87        65.88356
917.26         65.0659
917.66        64.24648
918.05        63.86024
918.45        64.01038
918.84        64.62126
919.24        65.39268
919.64        65.91315
920.03        66.05555
920.42        65.89619
920.82        65.69473
921.21        65.81083
921.61        66.29803
922.00        67.05063
922.40        67.76051
922.79        68.04639
923.19        67.77235
923.58        67.12062
923.98        66.34115
924.37        65.71851
924.77        65.36417
925.16        65.16743
925.55        65.10846
925.95        65.13293
926.34        65.21727
926.74         65.3624
927.13        65.48202
927.52        65.36208
927.92        65.02042
928.31        64.50847
928.70         63.9959
929.10        63.72289
929.49        63.73656
929.89        63.91714
930.28        64.29169
930.67        64.78831
931.07        65.31961
931.46        65.96986
931.85        66.48748
932.24        66.51411
932.64        66.04702
933.03        65.15937
933.42        64.30238
933.82        64.13647
934.21        64.78288
934.60        66.09451
934.99        67.58108
935.39        68.35094
935.78        68.18073
936.17        67.22748
936.56        65.99405
936.96        65.27159
937.35        65.26406
937.74        65.75433
938.13        66.27986
938.53        66.13217
938.92        65.19446
939.31        63.77607
939.70        62.39422
940.09        61.76491
940.49         62.0141
940.88        62.94108
941.27        64.18462
941.66        65.08126
942.05        65.39577
942.44        65.32932
942.84        65.10971
943.23        65.09535
943.62        65.39413
944.01        65.82021
944.40        66.30181
944.79        66.76434
945.18        67.13178
945.57        67.43243
945.97        67.48759
946.36        67.09438
946.75        66.22285
947.14        65.02801
947.53        63.79436
947.92        62.90766
948.31         62.4774
948.70        62.43071
949.09        62.68922
949.48         63.0927
949.87         63.5576
950.26         64.0978
950.65        64.68377
951.04        65.27872
951.43        65.82761
951.82        66.25605
952.21         66.4939
952.60        66.47159
952.99        66.20585
953.38        65.78133
953.77        65.26515
954.16        64.74757
954.55        64.28164
954.94        63.84601
955.33        63.57876
955.72        63.69844
956.11        64.22136
956.50        65.08395
956.89        65.93736
957.28        66.18929
957.66        65.69019
958.05        64.64639
958.44        63.45641
958.83        62.71017
959.22        62.53055
959.61        62.74812
960.00        63.10082
960.39        63.11598
960.78        62.66406
961.16        61.93578
961.55        61.18852
961.94        60.69369
962.33          60.542
962.72        60.66728
963.11        60.99355
963.49        61.41188
963.88        61.77092
964.27        62.05945
964.66        62.38342
965.04        62.95422
965.43        63.74361
965.82         64.7353
966.21        65.51723
966.60        65.34317
966.98        64.07892
967.37        62.10095
967.76        60.17965
968.15        59.26646
968.53        59.52978
968.92        60.76331
969.31        62.40377
969.69        63.29604
970.08        62.98452
970.47        61.83517
970.86        60.61804
971.24        60.44039
971.63        61.52456
972.02        63.54914
972.40        65.82898
972.79        66.74964
973.17         65.9042
973.56        63.90781
973.95        61.68063
974.33        60.39058
974.72        60.30005
975.11         61.0172
975.49        62.23892
975.88        63.30682
976.26        63.95039
976.65        64.32553
977.04        64.42178
977.42        64.17573
977.81         63.6092
978.19        62.69853
978.58        61.79248
978.96        61.46283
979.35        61.80173
979.74        62.67711
980.12        63.80587
980.51        64.40199
980.89        64.36559
981.28        63.94138
981.66        63.36084
982.05        62.92384
982.43        62.75346
982.82        62.67911
983.20        62.98109
983.59        64.07565
983.97        66.04368
984.35         68.7363
984.74        71.26164
985.12        72.35015
985.51         71.6344
985.89        69.50578
986.28        67.01047
986.66        65.67465
987.04        65.93828
987.43         67.3772
987.81        69.30047
988.20        70.21869
988.58        69.67056
988.96        68.09077
989.35        66.18526
989.73        64.91786
990.12        64.50949
990.50         64.6812
990.88        64.97977
991.27        64.67853
991.65        63.63285
992.03        62.18031
992.42         60.8724
992.80        60.39324
993.18         60.8821
993.56        62.09772
993.95        63.53983
994.33        64.45282
994.71        64.44291
995.10        63.86331
995.48        63.02106
995.86        62.46193
996.24        62.33892
996.63        62.29488
997.01        62.54055
997.39        63.17203
997.77        64.08727
998.15        65.33797
998.54        66.27916
998.92        65.81282
999.30        63.98469
999.68        61.23298
1000.06        58.70586
1000.45        58.03112
1000.83        59.64125
1001.21        63.18081
1001.59         67.7674
1001.97        71.11376
1002.35        72.15443
1002.73        71.49779
1003.12        70.09729
1003.50        69.14599
1003.88         69.0994
1004.26        69.41705
1004.64        70.04809
1005.02        70.92322
1005.40        71.83572
1005.78        72.96991
1006.16        73.64267
1006.54         72.6855
1006.92        70.13013
1007.30        66.51892
1007.69        63.08995
1008.07        61.41347
1008.45        61.97533
1008.83        64.34527
1009.21        67.90845
1009.59        70.94754
1009.97        72.37405
1010.35        72.55897
1010.73        71.53786
1011.11        69.47625
1011.49        66.83762
1011.86        63.79281
1012.24         61.1445
1012.62         59.9273
1013.00        60.28046
1013.38        61.97296
1013.76         64.6422
1014.14        67.08722
1014.52        68.51535
1014.90          69.102
1015.28        68.79596
1015.66        67.66657
1016.04        65.89588
1016.41        63.42931
1016.79        60.87316
1017.17         59.5257
1017.55         59.7128
1017.93        61.05262
1018.31        62.79147
1018.69        63.78649
1019.06         63.7501
1019.44        62.97387
1019.82        61.57649
1020.20        60.04121
1020.58        58.76119
1020.95        57.54656
1021.33        56.78616
1021.71        56.78807
1022.09        57.58089
1022.46        59.44288
1022.84        61.70893
1023.22          62.621
1023.60        61.58069
1023.97        58.89678
1024.35        56.67617
1024.73        57.48965
