SpectraSmart Spectrum 2.9.0.0
--------- Device Information -----------
Spectrum Name :  反射率_0
Saving Time :  2024/04/26 23:51:10
Spectro-Module Model Name : SE2030-DUVN
Spectro-Module Serial Number : OS361AC55029948
Wavelength Start : 200
Wavelength End : 1025
Wavelength Unit : Wavelength(nm)
Spectrum Unit : Reflectance(%)
-----------Spectrum Setting ------------
Integration Time : 20ms
Average : 10
Boxcar : 0
Background removal :  enabled
linearity correction :  enabled
SC :  disabled
Intensity correction :  disabled
DWT denoise :  enabled
savitzky-golay :  disabled
FFT :  disabled
Running average :  disabled
Kalman :  disabled
High pass :  disabled
---------------BEGIN--------------------
Wavelength(nm)             Reflectance(%)
200.29               0
200.75        43.59844
201.21        42.39075
201.67        42.27729
202.13         43.6371
202.58        46.47897
203.04        51.51962
203.50        58.32585
203.96        63.85701
204.42        65.78672
204.88        63.92984
205.34        60.32599
205.80        59.90238
206.26        63.39562
206.72         67.9753
207.18        71.88717
207.64        74.02257
208.10        74.41306
208.55        74.43835
209.01        71.82728
209.47        63.74681
209.93        53.88693
210.39        46.42619
210.85        42.82396
211.31        42.95691
211.77        46.82256
212.23         57.4901
212.69        87.61894
213.14         149.293
213.60        165.6133
214.06        137.3042
214.52        111.4624
214.98         94.9847
215.44        82.14156
215.90        68.04198
216.36        55.57235
216.81        50.55468
217.27        55.20798
217.73        71.54776
218.19        95.67923
218.65        102.6989
219.11        84.81981
219.57        59.66152
220.02         42.7436
220.48        40.45282
220.94        51.02757
221.40        74.88458
221.86        110.7773
222.32        134.2448
222.77        124.5236
223.23        97.77699
223.69        72.21095
224.15        58.03972
224.61        53.07493
225.06        52.11009
225.52        52.83783
225.98         52.9896
226.44        52.16315
226.90        51.32005
227.36        50.55726
227.81        49.86222
228.27        49.38258
228.73        48.68386
229.19         48.1744
229.65        48.45541
230.10        49.43989
230.56        51.04932
231.02        52.24325
231.48        51.41654
231.93         48.5417
232.39         44.6394
232.85        41.19487
233.31        40.13763
233.77        41.56869
234.22         44.8274
234.68        48.60682
235.14        50.91488
235.60        51.18568
236.05         49.9783
236.51        48.10208
236.97        47.33879
237.43        48.41491
237.88        50.77762
238.34        53.81781
238.80        56.87849
239.26        59.83578
239.71        63.59024
240.17         67.7672
240.63        71.41708
241.08        73.97614
241.54        74.49575
242.00        75.05036
242.46        80.61259
242.91        94.98682
243.37        121.1692
243.83        160.3164
244.28        195.0776
244.74        198.9651
245.20        171.1948
245.66        134.0629
246.11        108.1815
246.57        94.95439
247.03        88.51245
247.48        85.92603
247.94        83.53332
248.40         80.9665
248.85        79.62267
249.31        79.68288
249.77        80.48353
250.22        81.82345
250.68        83.31592
251.14        85.07206
251.59          87.113
252.05        88.95416
252.51        90.68875
252.96        90.47813
253.42        87.32891
253.88        82.07758
254.33         75.6947
254.79          71.414
255.25        71.51958
255.70        75.34053
256.16        81.50116
256.62        86.86897
257.07        86.83431
257.53        82.68639
257.99        77.29971
258.44         72.4697
258.90        70.02461
259.35        69.02683
259.81         68.9429
260.27        69.04671
260.72        68.64665
261.18        67.88383
261.63        66.70933
262.09        65.62738
262.55        64.59782
263.00         63.5324
263.46        62.59668
263.91        61.47326
264.37        60.14783
264.83        58.63174
265.28        56.96906
265.74        55.59895
266.19        54.72779
266.65        54.41448
267.11        54.43769
267.56         54.4964
268.02        54.12584
268.47        53.21022
268.93        51.93164
269.38        50.46373
269.84        49.14394
270.30        48.04998
270.75         47.0729
271.21        46.19888
271.66        45.33583
272.12        44.45993
272.57        43.59501
273.03         42.7183
273.48        41.76721
273.94        40.80394
274.39        39.81409
274.85        38.92905
275.31        38.18702
275.76        37.56401
276.22        37.07075
276.67        36.62119
277.13        36.19432
277.58        35.71695
278.04        35.22039
278.49        34.65784
278.95        34.08774
279.40        33.47458
279.86        32.89388
280.31        32.28017
280.77        31.65293
281.22        30.98888
281.68        30.35818
282.13        29.81071
282.59        29.50157
283.04        29.40173
283.50        29.48071
283.95        29.60193
284.41        29.56322
284.86        29.32059
285.32        28.96952
285.77        28.61529
286.22        28.47367
286.68        28.57691
287.13        28.80836
287.59        29.08797
288.04        29.24689
288.50        29.26377
288.95        29.17032
289.41         29.0205
289.86        28.81802
290.32        28.63093
290.77        28.45806
291.22        28.37268
291.68        28.46762
292.13        28.75874
292.59         29.2529
293.04        29.92933
293.50        30.76245
293.95        31.72183
294.40        32.81275
294.86        34.00735
295.31        35.25436
295.77        36.54628
296.22         37.8657
296.68        39.24564
297.13        40.73046
297.58        42.33315
298.04        44.03568
298.49        45.79013
298.95        47.54042
299.40        49.25563
299.85        50.96106
300.31        52.68111
300.76        54.42953
301.21         56.2257
301.67        58.07922
302.12        59.96466
302.58        61.93386
303.03        63.93848
303.48        65.99203
303.94        68.08363
304.39        70.12659
304.84        72.13402
305.30        74.12886
305.75        76.09399
306.20        78.10085
306.66        80.16576
307.11        82.22195
307.57        84.22503
308.02        85.99656
308.47        87.53856
308.93        88.90398
309.38        90.19167
309.83        91.67504
310.29        93.40708
310.74        95.30943
311.19        97.16526
311.65        98.58836
312.10        99.47469
312.55        99.93851
313.00        100.2802
313.46        100.9707
313.91        102.0862
314.36        103.5119
314.82        104.9586
315.27        105.9703
315.72        106.4119
316.18        106.4653
316.63         106.357
317.08        106.4913
317.53        106.9762
317.99        107.6673
318.44        108.4279
318.89        109.0052
319.35        109.3176
319.80        109.4684
320.25        109.5265
320.70        109.5934
321.16        109.7147
321.61         109.896
322.06        110.1339
322.51        110.4424
322.97        110.7961
323.42        111.1849
323.87        111.6297
324.32         112.185
324.78        112.7989
325.23        113.5275
325.68         114.124
326.13        114.2083
326.59        113.7309
327.04        112.8545
327.49        111.9682
327.94        111.7189
328.39        112.2536
328.85        113.3527
329.30        114.7721
329.75        115.7787
330.20         116.123
330.66         115.977
331.11         115.634
331.56        115.4983
332.01        115.7147
332.46        116.1184
332.92        116.5746
333.37        117.0471
333.82        117.4244
334.27        117.8047
334.72        118.1448
335.17         118.335
335.63        118.3761
336.08        118.3605
336.53        118.4629
336.98        119.0294
337.43        120.1213
337.88        121.5975
338.34        123.2038
338.79        124.6361
339.24        125.6791
339.69        126.3953
340.14        126.7589
340.59        126.7637
341.05        126.5075
341.50        126.0239
341.95        125.5318
342.40        125.3635
342.85        125.6129
343.30        126.2115
343.75        127.0591
344.20        127.9537
344.66        128.7946
345.11        129.6035
345.56        130.2972
346.01        130.7633
346.46        131.0023
346.91        131.0454
347.36        131.0008
347.81         131.069
348.26        131.2892
348.72        131.5822
349.17        131.9122
349.62         132.256
350.07         132.575
350.52        132.9085
350.97        133.0637
351.42        132.7319
351.87        131.9094
352.32        130.7161
352.77        129.5676
353.22        129.0692
353.67        129.3266
354.13        130.1657
354.58        131.1664
355.03         131.572
355.48        131.1772
355.93        130.1848
356.38        129.0458
356.83        128.4492
357.28        128.5211
357.73         129.013
358.18        129.4738
358.63        129.1917
359.08         128.017
359.53         126.234
359.98         124.279
360.43        122.7704
360.88        121.8604
361.33        121.3575
361.78        121.0067
362.23        120.4106
362.68        119.4679
363.13        118.3325
363.58        117.1679
364.03        116.2028
364.48        115.4847
364.93        114.9007
365.38        114.3497
365.83        113.6967
366.28        112.9017
366.73        112.0265
367.18        111.1012
367.63        110.1573
368.08        109.2202
368.53        108.2856
368.98        107.3895
369.43        106.5888
369.88         105.892
370.33        105.2855
370.78        104.7294
371.23        104.1582
371.68        103.5472
372.13        102.8999
372.58        102.2326
373.03        101.5754
373.48        100.9245
373.93        100.2573
374.38        99.54043
374.83        98.73259
375.28        97.83909
375.72        96.87654
376.17        95.94342
376.62        95.06284
377.07        94.26573
377.52        93.56833
377.97        92.97966
378.42        92.52402
378.87        92.19363
379.32        91.93583
379.77        91.76752
380.22        91.71446
380.67        91.73976
381.11        91.85126
381.56         91.7966
382.01        91.27475
382.46        90.28806
382.91        89.00804
383.36        87.77886
383.81        87.06705
384.26        86.93349
384.71         87.2057
385.15        87.66671
385.60         87.9219
386.05        87.83709
386.50        87.52869
386.95        87.01298
387.40        86.33033
387.85        85.55011
388.29        84.62192
388.74        83.80782
389.19        83.25389
389.64        82.97527
390.09         82.9273
390.54        82.94705
390.98        82.73693
391.43        82.27798
391.88        81.65134
392.33        81.03533
392.78         80.6376
393.23        80.48213
393.67        80.57435
394.12        80.80774
394.57        80.57068
395.02        79.95587
395.47        79.71832
395.91        79.85653
396.36        79.71147
396.81         79.3001
397.26        79.01653
397.71        78.85444
398.15        78.61705
398.60        78.38969
399.05        78.09069
399.50        77.77229
399.95        77.68481
400.39        77.75854
400.84         77.5039
401.29        76.96197
401.74        76.58315
402.18        76.41328
402.63        76.17966
403.08        75.92525
403.53        75.80021
403.97          75.786
404.42        75.82681
404.87        75.84904
405.32        75.68544
405.76        75.30573
406.21        74.95565
406.66        74.64391
407.11        74.11456
407.55        73.59966
408.00        73.62234
408.45        74.12357
408.90        74.76691
409.34         75.1623
409.79        74.53453
410.24        73.24368
410.68        72.67364
411.13        72.94122
411.58        73.26408
412.03        73.44038
412.47        73.49684
412.92        73.33704
413.37         72.9978
413.81        72.60831
414.26        72.42422
414.71        72.46756
415.15        72.69633
415.60        72.98313
416.05        73.18794
416.49        73.26108
416.94        73.23675
417.39        73.17963
417.83        73.16788
418.28        73.23117
418.73        73.34258
419.17        73.45905
419.62        73.51962
420.07        73.49564
420.51        73.38303
420.96        73.27249
421.41        73.18962
421.85        73.11752
422.30        73.26456
422.74        73.44484
423.19        73.16969
423.64        72.54337
424.08         72.3764
424.53        72.69801
424.98        72.88766
425.42        72.91844
425.87        73.27979
426.31        73.80193
426.76        73.65385
427.21        72.95497
427.65        72.60652
428.10        72.65151
428.54        72.64217
428.99        72.62862
429.44        72.51276
429.88        72.47901
430.33        73.29762
430.77        74.51003
431.22        75.05011
431.66        74.74767
432.11        73.76086
432.56        72.55129
433.00        72.23307
433.45        73.03229
433.89        74.07153
434.34        74.42233
434.78        75.51298
435.23        74.05723
435.67        71.79811
436.12        72.25369
436.57        72.58311
437.01        73.61842
437.46        74.07935
437.90        73.95748
438.35        73.09511
438.79        73.25019
439.24        73.39426
439.68        73.24853
440.13        73.55791
440.57        74.07484
441.02        74.14248
441.46        73.84146
441.91        74.60904
442.35        75.87519
442.80         75.5344
443.24        73.94522
443.69        73.62603
444.13        74.50201
444.58        75.23206
445.02        74.61263
445.47        74.73469
445.91         75.2324
446.36        75.58624
446.80        75.74038
447.24         75.8509
447.69        75.93915
448.13        75.98988
448.58        76.03015
449.02        76.01479
449.47        75.97704
449.91        75.94745
450.36        75.95815
450.80        75.98637
451.25        76.03165
451.69         76.0278
452.13        75.98048
452.58        75.89892
453.02        75.82191
453.47        75.82165
453.91        75.89227
454.36        76.01328
454.80        76.09621
455.24        75.93623
455.69        75.51814
456.13        75.06981
456.58        74.72954
457.02         74.1057
457.46        73.50386
457.91        73.95978
458.35        75.04198
458.79        75.22175
459.24        74.48706
459.68        73.41523
460.13        72.36654
460.57        72.09699
461.01        72.69524
461.46        72.17878
461.90        73.19243
462.34        74.18785
462.79        73.55864
463.23        73.63602
463.68           73.68
464.12        73.61691
464.56        73.32904
465.01        72.59996
465.45        71.68192
465.89        71.52332
466.34        71.98667
466.78        72.27592
467.22        72.33852
467.67        71.80166
468.11        71.90196
468.55        71.89469
468.99        72.06708
469.44        72.00317
469.88        71.71118
470.32        71.47056
470.77        71.30851
471.21        71.15067
471.65        70.99734
472.10        70.87931
472.54        70.81863
472.98        70.81493
473.42         70.8455
473.87        71.03989
474.31         71.2326
474.75        70.93827
475.20        70.29837
475.64        70.04051
476.08        70.21591
476.52        70.08605
476.97         69.5938
477.41        69.62982
477.85        70.12028
478.29        69.19923
478.74        69.87627
479.18         70.1908
479.62        69.91029
480.06        69.90997
480.50        69.83614
480.95        69.84318
481.39        69.94221
481.83        69.50153
482.27        69.35838
482.72        69.79693
483.16        69.74918
483.60        69.28827
484.04        69.68854
484.48        69.89912
484.93        70.23921
485.37        69.77338
485.81        69.40428
486.25        69.18113
486.69        71.03461
487.14         71.9149
487.58        69.96511
488.02         70.5964
488.46        68.82069
488.90        68.57044
489.34        69.98875
489.79        70.33566
490.23        69.94655
490.67        69.39857
491.11        68.96859
491.55        68.79565
491.99        68.85071
492.43        68.70183
492.88        68.36033
493.32        68.25107
493.76        68.38586
494.20        68.50132
494.64        68.55805
495.08        68.69086
495.52        68.84863
495.96        68.77455
496.41        68.52352
496.85        68.54985
497.29        68.68974
497.73        68.71237
498.17        67.78452
498.61        67.67117
499.05        67.51623
499.49        67.88657
499.93        68.19321
500.37        68.27921
500.82         68.0878
501.26        68.11193
501.70        68.34684
502.14        68.40641
502.58        68.30879
503.02        68.28847
503.46        68.35671
503.90         68.4325
504.34        68.46873
504.78        68.40334
505.22        68.22766
505.66        67.98546
506.10        67.76149
506.54        67.62156
506.98        67.57822
507.42        67.70802
507.86        67.98895
508.30        67.80715
508.74        68.04298
509.18         67.9949
509.62        67.93529
510.06        67.84634
510.50        67.74456
510.94        67.61263
511.38        67.48766
511.82        67.45679
512.26        67.53091
512.70         67.6944
513.14        67.87148
513.58        67.93456
514.02        67.85631
514.46        67.67041
514.90        67.46803
515.34        67.39855
515.78        67.49304
516.22        67.70094
516.66        67.92559
517.10         68.0132
517.54        67.92805
517.98        67.72478
518.42        67.48299
518.86        67.32937
519.30        67.29939
519.74        67.34474
520.18        67.42419
520.62        67.48151
521.06        67.50111
521.50        67.48144
521.93        67.48959
522.37        67.45274
522.81        67.40113
523.25        67.32832
523.69        67.30308
524.13        67.36499
524.57        67.50003
525.01         67.8119
525.45        68.22905
525.89        67.91856
526.32        67.97783
526.76        67.58317
527.20        67.16795
527.64        66.86337
528.08        66.72507
528.52        66.68887
528.96        66.72873
529.40        66.83091
529.83        66.96436
530.27        67.14515
530.71        67.29843
531.15        67.30767
531.59        67.15883
532.03        66.88254
532.46         66.5762
532.90        66.44148
533.34        66.50109
533.78        66.68228
534.22         66.9012
534.66        67.03259
535.09        66.97623
535.53        66.92921
535.97        66.44857
536.41        66.27028
536.85        66.27963
537.28        66.33629
537.72        66.40884
538.16        66.51029
538.60        66.62383
539.04        66.74992
539.47        66.84211
539.91        66.86792
540.35        66.81036
540.79        66.68034
541.22        66.53814
541.66         66.5052
542.10        66.59438
542.54        66.76952
542.97        66.94027
543.41        66.99657
543.85         66.9015
544.29        66.70222
544.72        66.46241
545.16        66.30714
545.60        66.26077
546.04         66.3366
546.47         66.4868
546.91        66.57597
547.35         66.6249
547.79        66.72935
548.22        66.87988
548.66        67.14752
549.10        67.46021
549.53        67.27994
549.97        66.72445
550.41        66.34106
550.84        66.25903
551.28        66.30412
551.72        66.39529
552.15        66.53711
552.59        66.76196
553.03        66.40578
553.46         66.9099
553.90        66.85242
554.34        66.68388
554.77        66.57967
555.21        66.38232
555.65        66.30528
556.08        66.43578
556.52        66.61297
556.96        66.79866
557.39         66.8966
557.83         66.8392
558.27        66.73745
558.70        66.12229
559.14        65.94185
559.57        66.01741
560.01        66.05161
560.45        66.03635
560.88        66.12199
561.32        66.31544
561.75        66.58523
562.19        66.85307
562.63        66.74192
563.06         66.3513
563.50        66.30112
563.93        66.51678
564.37        66.55913
564.80        66.45193
565.24        66.34274
565.68        66.10008
566.11        66.81953
566.55        66.10223
566.98        65.93378
567.42        65.75057
567.85        65.86823
568.29        66.27376
568.72         66.6161
569.16        66.89232
569.60         67.2805
570.03        67.22852
570.47        67.39944
570.90          67.772
571.34        66.94351
571.77        67.40768
572.21        68.00895
572.64        67.91415
573.08        67.95845
573.51        67.04582
573.95        66.96133
574.38        67.61546
574.82        67.97201
575.25        67.60146
575.69         67.9243
576.12        67.64863
576.56        66.87007
576.99        67.14922
577.42        67.38613
577.86        67.53707
578.29        68.44349
578.73        68.39209
579.16        68.19675
579.60        67.46365
580.03         67.4339
580.47        67.22318
580.90        68.14632
581.33        68.06995
581.77        68.20483
582.20        68.36817
582.64        68.62714
583.07        68.52009
583.51        68.01056
583.94         67.2757
584.37        67.13848
584.81        67.72593
585.24        68.02441
585.68        67.87388
586.11        67.79108
586.54        67.91248
586.98        66.88102
587.41        66.31356
587.85        67.08251
588.28        67.29263
588.71        66.85794
589.15        66.65223
589.58        67.23166
590.01        66.70862
590.45        66.52969
590.88        67.78477
591.31        67.57948
591.75        66.62826
592.18        66.13851
592.61        66.37492
593.05        67.06843
593.48        67.52863
593.91         67.9102
594.35        67.55695
594.78        66.67165
595.21        66.32491
595.65        66.49861
596.08        67.51331
596.51        67.56029
596.94        67.02711
597.38        66.72368
597.81         66.7119
598.24        67.55386
598.68        67.08425
599.11        66.58268
599.54        67.98458
599.97        67.31188
600.41        67.18602
600.84        66.55335
601.27        66.95557
601.70        66.96112
602.14        67.04459
602.57        66.81665
603.00        67.02737
603.43        66.42704
603.87        67.13756
604.30        67.34505
604.73         67.1216
605.16        66.48397
605.60        66.45451
606.03        66.07615
606.46        65.74801
606.89         66.0052
607.32        66.82919
607.76        66.57791
608.19         66.9136
608.62        66.61954
609.05        66.33307
609.48        66.34282
609.92        67.59045
610.35        66.61935
610.78        66.31131
611.21        66.39533
611.64        66.34199
612.07         66.6292
612.50        66.50948
612.94        66.46327
613.37        66.29364
613.80        66.43597
614.23        65.78983
614.66        65.62614
615.09        66.01572
615.52        66.20213
615.96        66.17951
616.39        66.39898
616.82        66.69251
617.25        66.01412
617.68        66.15264
618.11        66.15416
618.54        66.46619
618.97        66.40566
619.40        65.99458
619.84        65.89994
620.27        65.63421
620.70        65.78745
621.13        66.07857
621.56        65.62798
621.99         64.7067
622.42        64.50964
622.85        65.23496
623.28        64.59068
623.71        64.71687
624.14        65.37093
624.57        65.60593
625.00        65.57098
625.43        65.78163
625.86        65.65317
626.29        65.56257
626.72        65.05148
627.15         65.2947
627.58        65.27679
628.01        65.22951
628.44         65.3313
628.87        65.19595
629.30        65.04253
629.73        64.74856
630.16        65.24966
630.59         65.0297
631.02        65.26993
631.45        65.48701
631.88        65.58838
632.31        65.51555
632.74        65.67092
633.17           65.41
633.60        65.32935
634.03        65.24634
634.46        65.17839
634.89        65.10477
635.32        64.97975
635.75        64.83558
636.18        64.70489
636.61        64.62451
637.04        64.60144
637.47        64.64012
637.89        64.75845
638.32         64.8836
638.75         64.9327
639.18        64.88481
639.61        64.76463
640.04        64.62698
640.47        64.55981
640.90        64.58472
641.33        64.68017
641.76        64.80302
642.18        64.86274
642.61        64.81308
643.04        64.73794
643.47         64.7011
643.90        64.53351
644.33        64.68007
644.76        64.76939
645.18        64.87272
645.61        64.86969
646.04        64.75208
646.47        64.56288
646.90        64.36572
647.33        64.25729
647.75        64.23624
648.18         64.3383
648.61        64.56171
649.04        64.62131
649.47        64.43446
649.89        65.13087
650.32        64.93771
650.75        64.86552
651.18        64.53023
651.61         64.6293
652.03        65.10939
652.46        65.28754
652.89        65.12367
653.32        65.08007
653.74        65.00443
654.17        64.91805
654.60        65.08219
655.03        65.12923
655.46        64.18047
655.88         64.1094
656.31        67.63117
656.74        71.07661
657.16        70.82109
657.59        70.40034
658.02        66.48476
658.45        66.13123
658.87        65.66354
659.30        64.99516
659.73         64.8559
660.15        66.45454
660.58        64.92365
661.01        64.89061
661.44         64.8361
661.86        64.61856
662.29        64.18004
662.72        64.51176
663.14        64.37586
663.57         64.3263
664.00        64.10526
664.42        64.18668
664.85        64.57713
665.27        65.01526
665.70        65.33395
666.13        65.44953
666.55        65.32832
666.98        64.91986
667.41        64.35564
667.83        64.27827
668.26          64.081
668.69        64.23949
669.11        64.47926
669.54        64.66621
669.96        64.75459
670.39        64.80566
670.82        64.84948
671.24        64.84501
671.67        64.82601
672.09        64.88782
672.52         65.0105
672.94        65.02188
673.37        64.91916
673.80        64.78819
674.22        64.67512
674.65        64.58389
675.07        64.54565
675.50         64.5441
675.92        64.56177
676.35        64.55599
676.77        64.51822
677.20        64.46132
677.62         64.4017
678.05        64.36373
678.47        64.35383
678.90        64.36869
679.32        64.39729
679.75        64.43716
680.17        64.47614
680.60        64.51304
681.02        64.55382
681.45         64.5908
681.87        64.63375
682.30        64.70775
682.72        64.79714
683.15        64.76563
683.57        64.65381
684.00        64.62096
684.42        64.70628
684.85        64.82982
685.27        64.97834
685.70        65.24425
686.12        65.51507
686.54        65.56235
686.97         65.3961
687.39        65.16111
687.82        64.88912
688.24        64.92495
688.66        64.64555
689.09        64.63026
689.51        64.68446
689.94        64.75571
690.36        64.82821
690.78        64.90419
691.21        64.99928
691.63        65.11153
692.06        65.23962
692.48        65.38618
692.90        65.48409
693.33        65.44018
693.75        65.24441
694.17        64.89655
694.60          64.553
695.02        64.47565
695.44        64.68543
695.87        65.11405
696.29        65.56024
696.71        65.53627
697.14        65.10309
697.56        64.76173
697.98        64.62572
698.41        64.82301
698.83        64.73103
699.25        65.10138
699.68        65.56105
700.10        65.73914
700.52        65.53923
700.94        65.10255
701.37        64.62801
701.79        64.42014
702.21        64.55018
702.64        64.90165
703.06        65.32811
703.48        65.57649
703.90        65.57154
704.33        65.39905
704.75        65.14604
705.17        64.93892
705.59        64.83393
706.01        64.79113
706.44        64.80768
706.86        64.90971
707.28        65.07702
707.70         65.2822
708.12        65.50419
708.55        65.74258
708.97        65.95432
709.39        66.01411
709.81        65.93314
710.23        65.87037
710.66        65.84293
711.08        65.78239
711.50        65.67241
711.92        65.54276
712.34        65.40355
712.76        65.26707
713.19         65.1476
713.61        65.10023
714.03        65.12376
714.45        65.21127
714.87        65.35707
715.29        65.55354
715.71        65.78186
716.13        66.01836
716.56        66.21711
716.98        66.39519
717.40        66.50439
717.82        66.54861
718.24        66.49712
718.66        66.30496
719.08        65.99675
719.50        65.62157
719.92        65.28276
720.34         65.1311
720.76        65.19714
721.19        65.41202
721.61        65.74261
722.03        66.07711
722.45        66.35452
722.87        66.58758
723.29        66.71554
723.71        66.64859
724.13        66.39098
724.55        65.97952
724.97        65.53576
725.39        65.27006
725.81           65.24
726.23        65.37087
726.65        65.58637
727.07        65.89905
727.49        66.02525
727.91        66.18937
728.33        66.32319
728.75        66.43789
729.17        66.53245
729.59        66.58368
730.01        66.60719
730.43        66.63755
730.85        66.67708
731.27        66.71604
731.69        66.72576
732.10        66.65617
732.52        66.50342
732.94        66.30824
733.36        66.12747
733.78        65.92702
734.20        65.71629
734.62        65.73593
735.04         66.0629
735.46        65.58598
735.88        66.24339
736.30        66.45288
736.72         66.7382
737.13        66.95805
737.55        67.03882
737.97        67.09286
738.39        67.09155
738.81        66.84645
739.23        66.47198
739.65        66.47025
740.06         66.7716
740.48         66.9112
740.90        66.83921
741.32        66.83718
741.74        66.92859
742.16        67.00485
742.57        67.06563
742.99         67.1216
743.41        67.14248
743.83        67.06613
744.25        66.88924
744.67        66.62246
745.08        66.36617
745.50        66.25876
745.92        66.33862
746.34         66.5633
746.75        66.81531
747.17        66.88767
747.59        66.74616
748.01        66.46095
748.42        66.15363
748.84        66.03174
749.26        66.14225
749.68        66.36715
750.09        66.62787
750.51        66.88619
750.93        67.05472
751.35        67.00835
751.76        66.76559
752.18        66.51802
752.60        66.29527
753.01        66.01221
753.43        65.72901
753.85        65.62664
754.27        65.74038
754.68        66.03332
755.10        66.40994
755.52        66.70924
755.93        66.86433
756.35         66.8911
756.77        66.88705
757.18        66.89156
757.60        66.91918
758.02        67.22755
758.43        67.66907
758.85        67.04285
759.26        66.72465
759.68        66.30784
760.10        66.22268
760.51        66.65543
760.93        67.29613
761.34        66.78711
761.76        67.05038
762.18        67.02666
762.59        67.30864
763.01        67.27332
763.42         67.0341
763.84        67.00255
764.26        67.18319
764.67        67.31101
765.09        67.34503
765.50        67.18036
765.92        66.90402
766.33        66.71207
766.75        66.59628
767.16        66.53114
767.58        66.48084
768.00        66.50018
768.41        66.63074
768.83        66.84229
769.24         67.0476
769.66        67.30344
770.07        67.49744
770.49        67.06911
770.90        66.31506
771.32        66.61903
771.73        67.80193
772.15        68.22513
772.56         67.7956
772.97        67.40912
773.39        67.23022
773.80        67.12736
774.22        67.12643
774.63        67.30391
775.05        67.51766
775.46         67.6115
775.88        67.51397
776.29        67.29716
776.70        67.05233
777.12        66.95348
777.53         67.0493
777.95        67.23911
778.36        67.46719
778.77        67.59338
779.19        67.59669
779.60        67.58028
780.02        67.53144
780.43        67.43089
780.84        67.36568
781.26        67.19981
781.67        67.06576
782.09        67.68534
782.50        68.72631
782.91         68.6503
783.33        67.59948
783.74        67.20289
784.15        67.54874
784.57        67.74836
784.98        67.73817
785.39        67.70483
785.81         67.6975
786.22        67.94302
786.63        68.36951
787.04        68.58299
787.46        68.56145
787.87        68.49151
788.28        68.43533
788.70        68.37917
789.11        68.32347
789.52        68.32845
789.93        68.36333
790.35        68.31192
790.76        68.19564
791.17        68.13905
791.58        68.17947
792.00        68.18216
792.41        68.15293
792.82         68.3515
793.23        68.65968
793.65        68.38562
794.06        67.72795
794.47        67.78741
794.88         68.4635
795.29        68.69039
795.71        68.38793
796.12        68.33824
796.53        68.54485
796.94        68.32269
797.35        67.82874
797.76        68.05083
798.18        68.84472
798.59        69.17672
799.00        68.94178
799.41        68.70779
799.82        68.59138
800.23        68.53513
800.64        68.57338
801.06        68.67789
801.47        68.82585
801.88        68.89133
802.29        68.83456
802.70        68.68391
803.11        68.46902
803.52        68.24138
803.93        68.05124
804.34        67.90636
804.75        67.82296
805.17        67.90428
805.58        68.20442
805.99        68.38555
806.40         68.4874
806.81        69.26165
807.22        70.35612
807.63        70.17849
808.04        68.93195
808.45        68.34303
808.86         68.5583
809.27        68.64762
809.68         68.5052
810.09        68.40739
810.50        68.34306
810.91        68.25043
811.32        68.22902
811.73        68.42854
812.14        68.86014
812.55        69.47203
812.96        70.08804
813.37        70.37276
813.78        70.22966
814.19        69.77877
814.60         69.1912
815.01        68.69874
815.42        68.36816
815.83        68.13773
816.24        68.00992
816.65        67.98719
817.05        68.06872
817.46        68.24858
817.87        68.47731
818.28        68.61756
818.69        68.63852
819.10        68.54206
819.51        68.43599
819.92        68.52835
820.33        68.85368
820.74        69.33614
821.14        69.79617
821.55        69.94392
821.96        69.72419
822.37        69.23788
822.78        68.66608
823.19        68.31555
823.60        68.28624
824.00        68.51343
824.41        68.84985
824.82        69.14202
825.23        69.30904
825.64        69.40089
826.04        69.42622
826.45        69.35744
826.86        69.22025
827.27        69.01608
827.68         68.7873
828.08        68.64509
828.49        68.57169
828.90        68.56739
829.31        68.63742
829.72        68.77924
830.12        69.00003
830.53        69.24294
830.94        69.43616
831.35        69.41283
831.75        69.16235
832.16        68.71703
832.57        68.23952
832.97        67.97006
833.38        67.96966
833.79        68.14722
834.20        68.43134
834.60         68.7005
835.01        68.90948
835.42        69.14095
835.82        69.34119
836.23        69.33761
836.64        69.14641
837.04        68.77614
837.45        68.47739
837.86        68.72743
838.26        69.61893
838.67        70.96178
839.08        72.30347
839.48        72.78493
839.89        72.18601
840.29        70.82759
840.70        69.32884
841.11        68.39579
841.51        68.22919
841.92        68.59856
842.33        69.32577
842.73         70.0946
843.14        70.63792
843.54        71.07985
843.95        71.40742
844.35        71.65259
844.76        71.80713
845.17         71.8435
845.57        71.71063
845.98        71.32889
846.38        70.74783
846.79        70.01435
847.19        69.35738
847.60        69.10487
848.00        69.32635
848.41        69.90129
848.81        70.59396
849.22        70.91225
849.62         70.7664
850.03        70.28275
850.43        69.67714
850.84         69.2412
851.24        69.12428
851.65        69.16861
852.05         69.4247
852.46        69.85719
852.86        70.39782
853.27        71.03893
853.67        71.54565
854.07        71.70683
854.48        71.47408
854.88        70.92665
855.29        70.19888
855.69        69.69407
856.10        69.48156
856.50        69.55125
856.90        69.74782
857.31        69.81546
857.71        69.72763
858.12        69.49353
858.52        69.25716
858.92        69.13694
859.33         69.1515
859.73        69.29936
860.13        69.42758
860.54        69.31653
860.94        68.97169
861.34        68.45593
861.75        67.96352
862.15        67.85217
862.55          68.172
862.96        68.76358
863.36        69.45947
863.76         69.8871
864.17         69.9109
864.57         69.6778
864.97        69.22007
865.38         68.5964
865.78        67.90878
866.18        67.15417
866.58        66.52748
866.99        66.37183
867.39        66.77896
867.79        67.62956
868.19        68.67995
868.60        69.53339
869.00        70.09095
869.40        70.39484
869.80         70.4838
870.21         70.4557
870.61        70.42169
871.01        70.31632
871.41        70.08384
871.81        69.64577
872.22         69.0079
872.62        68.21656
873.02        67.50859
873.42        67.26152
873.82        67.55085
874.22        68.25698
874.63        69.02364
875.03        69.29865
875.43        68.94259
875.83        68.12876
876.23        67.19259
876.63        66.65712
877.03        66.66679
877.44        67.04835
877.84        67.59659
878.24        67.97324
878.64         68.0136
879.04        67.68124
879.44        67.23418
879.84        67.15906
880.24        67.50451
880.64        68.07647
881.04        68.50945
881.44        68.24413
881.84        67.20335
882.24        65.63988
882.65        64.06206
883.05        63.23569
883.45        63.35932
883.85        64.20887
884.25        65.44667
884.65        66.47563
885.05        67.06435
885.45         67.3611
885.85        67.46722
886.25        67.55637
886.65        67.68888
887.05        67.76205
887.45        67.77081
887.85        67.74519
888.25        67.68661
888.65        67.62649
889.04        67.52522
889.44        67.32305
889.84         67.0081
890.24        66.60977
890.64        66.21514
891.04        65.96953
891.44        65.90966
891.84        65.99764
892.24        66.14097
892.64        66.19176
893.04        66.12386
893.44        65.99475
893.83        65.90004
894.23        65.94159
894.63        66.16609
895.03        66.50999
895.43        66.92152
895.83        67.32809
896.23        67.67222
896.63         67.9401
897.02        68.07958
897.42        68.03835
897.82        67.81941
898.22        67.48203
898.62        67.06215
899.01        66.60288
899.41        66.16608
899.81          65.744
900.21        65.46247
900.61        65.51519
901.00        65.91171
901.40        66.57393
901.80        67.26924
902.20          67.616
902.59        67.53651
902.99        67.13832
903.39        66.61251
903.79        66.28442
904.18         66.2404
904.58        66.36491
904.98        66.61614
905.38        66.94105
905.77        67.29764
906.17        67.74203
906.57        68.10018
906.96        68.07464
907.36        67.61743
907.76         66.8223
908.15        66.06049
908.55        65.91232
908.95        66.49252
909.34        67.62128
909.74        68.83669
910.14        69.44997
910.53        69.24292
910.93        68.46765
911.33        67.39409
911.72        66.42931
912.12         65.8011
912.52        65.40463
912.91        65.23413
913.31        65.30481
913.70        65.58717
914.10        66.05185
914.49        66.69775
914.89        67.40551
915.29        68.11674
915.68        68.82333
916.08        69.29974
916.47        69.28223
916.87        68.76709
917.26        67.82948
917.66        66.87587
918.05        66.37601
918.45         66.4329
918.84        66.96783
919.24        67.64175
919.64        67.97324
920.03        67.83633
920.42        67.35735
920.82        66.84739
921.21        66.73266
921.61        67.09547
922.00        67.81888
922.40        68.62826
922.79        69.18755
923.19        69.33905
923.58        69.22041
923.98         68.9759
924.37        68.75523
924.77        68.63578
925.16        68.51406
925.55        68.42941
925.95        68.44009
926.34        68.55506
926.74        68.75574
927.13        68.87418
927.52        68.56259
927.92        67.83981
928.31        66.83126
928.70        65.85727
929.10        65.37431
929.49        65.46934
929.89        65.94542
930.28        66.69774
930.67        67.42165
931.07        67.94047
931.46        68.39629
931.85        68.59787
932.24        68.29554
932.64        67.54749
933.03        66.41914
933.42        65.36612
933.82        65.05067
934.21        65.59928
934.60        66.87489
934.99        68.43545
935.39         69.4556
935.78        69.70231
936.17        69.28139
936.56        68.56409
936.96        68.14955
937.35        68.19308
937.74        68.52198
938.13        68.77189
938.53        68.40819
938.92        67.37343
939.31        65.93807
939.70        64.57696
940.09        63.93638
940.49        64.12113
940.88        64.95866
941.27        66.11275
941.66        66.95734
942.05        67.26441
942.44        67.21267
942.84        66.99409
943.23        66.91548
943.62        67.07697
944.01        67.32024
944.40         67.6076
944.79        67.91702
945.18        68.19615
945.57        68.46375
945.97        68.55444
946.36         68.2798
946.75        67.60155
947.14        66.66685
947.53        65.70835
947.92        65.04343
948.31        64.76517
948.70        64.79636
949.09        65.10345
949.48        65.61471
949.87        66.24676
950.26        66.96537
950.65        67.64278
951.04        68.08273
951.43        68.20938
951.82         68.0417
952.21        67.61183
952.60        67.00234
952.99        66.31356
953.38        65.61559
953.77        65.02257
954.16        64.69035
954.55        64.65427
954.94        64.85013
955.33        65.29494
955.72        65.98794
956.11        66.84848
956.50        67.83767
956.89        68.61251
957.28        68.62873
957.66        67.79998
958.05        66.35827
958.44        64.81105
958.83        63.89503
959.22        63.76152
959.61        64.21377
960.00        64.93594
960.39        65.32161
960.78        65.16454
961.16        64.66596
961.55        64.06073
961.94        63.60321
962.33        63.39229
962.72        63.35196
963.11        63.45704
963.49        63.71611
963.88        64.02124
964.27        64.35149
964.66        64.75967
965.04        65.36355
965.43        66.11126
965.82        67.01286
966.21        67.70255
966.60        67.51999
966.98        66.34991
967.37         64.5252
967.76        62.75032
968.15        61.90445
968.53        62.13541
968.92        63.23936
969.31        64.69257
969.69        65.42262
970.08        65.01472
970.47        63.84851
970.86        62.60728
971.24        62.25869
971.63        63.00586
972.02         64.5455
972.40        66.39494
972.79        67.33582
973.17        67.02789
973.56        65.90048
973.95        64.50394
974.33        63.52752
974.72        63.15288
975.11        63.12252
975.49        63.35995
975.88        63.67197
976.26        64.00027
976.65        64.39138
977.04        64.71811
977.42        64.71829
977.81        64.33427
978.19        63.61119
978.58        62.91765
978.96        62.83251
979.35        63.46114
979.74        64.66976
980.12        66.11776
980.51        66.94015
980.89          67.008
981.28        66.53679
981.66        65.93268
982.05        65.76999
982.43        66.19874
982.82        66.99493
983.20        68.06944
983.59        69.13816
983.97        70.10834
984.35        71.01728
984.74        71.57437
985.12        71.54428
985.51        70.85949
985.89        69.65676
986.28        68.40446
986.66        67.72169
987.04        67.82996
987.43        68.56143
987.81        69.65875
988.20        70.45081
988.58        70.69086
988.96        70.42025
989.35        69.90454
989.73        69.53709
990.12         69.3987
990.50         69.4444
990.88        69.26955
991.27        68.24466
991.65        66.37141
992.03        63.97095
992.42        61.91312
992.80        61.32257
993.18        62.39151
993.56         64.8394
993.95        67.70614
994.33         69.2793
994.71         68.8594
995.10        67.05708
995.48        64.84259
995.86        63.75174
996.24        64.16682
996.63        65.49964
997.01        67.42574
997.39        68.90345
997.77        69.41789
998.15        69.40268
998.54        68.86261
998.92        67.63815
999.30        65.96896
999.68        63.93624
1000.06        62.27884
1000.45        62.05132
1000.83        63.52806
1001.21        66.54702
1001.59        70.38041
1001.97        73.08661
1002.35        73.81841
1002.73        73.09029
1003.12        71.80753
1003.50        71.11346
1003.88        71.41438
1004.26        72.17075
1004.64          73.308
1005.02        74.63575
1005.40        75.88351
1005.78        77.30721
1006.16          78.062
1006.54        76.76461
1006.92        73.49375
1007.30        68.85274
1007.69        64.61603
1008.07        63.16081
1008.45        65.14553
1008.83        70.07061
1009.21        76.55335
1009.59        81.00021
1009.97         81.5453
1010.35        79.07586
1010.73        74.92724
1011.11        71.12923
1011.49        68.46742
1011.86        66.48236
1012.24        65.14122
1012.62        64.34459
1013.00        63.99358
1013.38        64.20466
1013.76        65.10134
1014.14        66.64996
1014.52        68.57815
1014.90          70.568
1015.28        72.01296
1015.66        72.30366
1016.04        71.39832
1016.41         69.4759
1016.79         66.9948
1017.17        64.97739
1017.55        63.88165
1017.93        63.55812
1018.31        63.77892
1018.69        64.13833
1019.06        64.51876
1019.44        65.05546
1019.82        65.79882
1020.20        66.70737
1020.58         67.5766
1020.95        68.09479
1021.33        68.32204
1021.71         68.2942
1022.09        68.10943
1022.46        68.02113
1022.84        67.75166
1023.22        66.90624
1023.60        65.58338
1023.97        63.80289
1024.35        62.96487
1024.73        64.66613
