SpectraSmart Spectrum 2.9.0.0
--------- Device Information -----------
Spectrum Name :  反射率_0
Saving Time :  2024/04/26 23:52:41
Spectro-Module Model Name : SE2030-DUVN
Spectro-Module Serial Number : OS361AC55029948
Wavelength Start : 200
Wavelength End : 1025
Wavelength Unit : Wavelength(nm)
Spectrum Unit : Reflectance(%)
-----------Spectrum Setting ------------
Integration Time : 20ms
Average : 10
Boxcar : 0
Background removal :  enabled
linearity correction :  enabled
SC :  disabled
Intensity correction :  disabled
DWT denoise :  enabled
savitzky-golay :  disabled
FFT :  disabled
Running average :  disabled
Kalman :  disabled
High pass :  disabled
---------------BEGIN--------------------
Wavelength(nm)             Reflectance(%)
200.29               0
200.75        34.79358
201.21        35.13259
201.67        35.97151
202.13        36.32396
202.58         35.9431
203.04        35.34021
203.50        34.67094
203.96        34.34977
204.42        34.80983
204.88        35.83197
205.34        37.55722
205.80         40.2442
206.26        43.23327
206.72         45.6322
207.18        47.17034
207.64        47.84339
208.10        47.91878
208.55        48.25346
209.01        47.45895
209.47        43.67797
209.93        38.52915
210.39        34.10156
210.85        32.51365
211.31        35.14238
211.77        43.32121
212.23        63.54513
212.69         113.358
213.14        188.4815
213.60        170.1679
214.06        104.9423
214.52         66.4068
214.98        53.98259
215.44        54.39516
215.90        60.20052
216.36        67.94694
216.81        72.86118
217.27        73.44382
217.73         72.2286
218.19        67.53911
218.65        57.44948
219.11        47.44525
219.57        40.41424
220.02        38.49133
220.48        43.13976
220.94        54.37447
221.40        74.44273
221.86        103.1927
222.32        122.7215
222.77        116.6543
223.23         96.5211
223.69        75.40034
224.15        60.74276
224.61        51.87895
225.06        45.88454
225.52        42.48548
225.98        41.35671
226.44        41.95932
226.90          44.222
227.36        47.04071
227.81         48.3876
228.27        47.91034
228.73        46.04398
229.19          44.096
229.65         43.6638
230.10        44.80186
230.56        46.99979
231.02         48.9552
231.48        48.67897
231.93        46.00776
232.39         42.1539
232.85        38.63526
233.31         37.3718
233.77        38.50383
234.22        41.35151
234.68        44.71338
235.14        46.81423
235.60        47.10753
236.05        46.05686
236.51        44.36441
236.97        43.53434
237.43         44.2288
237.88        46.12125
238.34        48.54452
238.80        50.66875
239.26         52.3424
239.71        54.22742
240.17        56.78941
240.63        61.36052
241.08        68.59893
241.54        77.53331
242.00        87.76914
242.46        99.66675
242.91        114.9899
243.37        135.3094
243.83        160.7743
244.28        180.4537
244.74        177.6993
245.20        152.9847
245.66        123.8931
246.11        104.8326
246.57         96.2024
247.03        94.14341
247.48         94.7317
247.94        92.00395
248.40        86.36454
248.85        80.75472
249.31        77.07928
249.77        75.73192
250.22        76.16495
250.68        77.63279
251.14        79.69418
251.59        80.89043
252.05        80.59833
252.51        80.08865
252.96        78.66662
253.42        76.13344
253.88        72.87656
254.33        68.90991
254.79        66.97607
255.25        69.11585
255.70        74.70461
256.16        82.73288
256.62        89.32968
257.07         88.8311
257.53        83.08985
257.99          75.781
258.44        69.83291
258.90         67.8828
259.35        68.60322
259.81         70.8593
260.27        72.97187
260.72        72.98674
261.18        71.15757
261.63        68.18873
262.09        65.37381
262.55        63.44233
263.00        62.29293
263.46        61.69604
263.91        61.02129
264.37        59.86264
264.83        58.17865
265.28        56.21487
265.74        54.49015
266.19        53.28983
266.65        52.70252
267.11        52.45063
267.56        52.31562
268.02        51.98185
268.47        51.33875
268.93        50.52301
269.38        49.52035
269.84        48.37199
270.30        47.10969
270.75        45.72049
271.21        44.39454
271.66        43.35672
272.12        42.64837
272.57        42.18549
273.03        41.77855
273.48        41.10128
273.94        40.14339
274.39        38.98407
274.85        37.86328
275.31        36.96625
275.76        36.30653
276.22        35.84517
276.67         35.4445
277.13        35.01095
277.58        34.46537
278.04        33.87545
278.49        33.25092
278.95         32.7216
279.40        32.25805
279.86        31.89376
280.31        31.50579
280.77        31.03356
281.22        30.43764
281.68         29.8123
282.13        29.24215
282.59        28.92964
283.04        28.85704
283.50        28.97719
283.95        29.13761
284.41        29.10983
284.86        28.84845
285.32        28.46977
285.77        28.09403
286.22        27.95245
286.68        28.08493
287.13        28.37028
287.59         28.7344
288.04         29.0179
288.50        29.19078
288.95        29.27021
289.41        29.28428
289.86        29.20294
290.32        29.08169
290.77        28.92049
291.22        28.80474
291.68         28.8464
292.13        29.07217
292.59        29.49845
293.04        30.09515
293.50        30.81943
293.95        31.65122
294.40        32.61183
294.86        33.72792
295.31        35.02953
295.77        36.51351
296.22        38.12432
296.68        39.82219
297.13        41.53615
297.58        43.25442
298.04        45.00409
298.49        46.76846
298.95         48.5462
299.40        50.32743
299.85         52.1046
300.31        53.94035
300.76        55.91072
301.21        58.02169
301.67        60.25483
302.12        62.46124
302.58         64.5059
303.03        66.31957
303.48        67.99382
303.94        69.66194
304.39        71.45065
304.84        73.42496
305.30        75.54209
305.75        77.70293
306.20         79.8523
306.66        81.96756
307.11        84.02304
307.57        86.00466
308.02        87.77098
308.47        89.34142
308.93        90.75793
309.38        92.10616
309.83        93.64953
310.29        95.43921
310.74        97.39528
311.19        99.33285
311.65        100.9124
312.10        102.0237
312.55        102.7553
313.00        103.3299
313.46        104.1056
313.91        105.1427
314.36        106.3668
314.82        107.5738
315.27        108.4523
315.72        108.9063
316.18        109.0745
316.63        109.1261
317.08        109.3723
317.53        109.8971
317.99        110.5962
318.44        111.3452
318.89        111.9103
319.35        112.2174
319.80        112.3424
320.25        112.3921
320.70        112.5346
321.16        112.8186
321.61        113.2434
322.06        113.6957
322.51         114.004
322.97        114.1171
323.42        114.0869
323.87        114.1127
324.32        114.5405
324.78        115.3841
325.23        116.6132
325.68        117.8034
326.13        118.2578
326.59        117.8204
327.04        116.7451
327.49        115.5414
327.94        115.0465
328.39        115.4741
328.85         116.552
329.30        118.0023
329.75        119.0296
330.20        119.3632
330.66        119.2043
331.11        118.8851
331.56        118.8569
332.01         119.266
332.46        119.9168
332.92        120.5978
333.37        121.1557
333.82        121.4464
334.27        121.6061
334.72        121.6681
335.17        121.6513
335.63        121.6006
336.08        121.5773
336.53        121.7273
336.98        122.3452
337.43        123.4663
337.88         124.964
338.34        126.5727
338.79        127.9677
339.24        128.9347
339.69        129.5486
340.14        129.7957
340.59        129.6962
341.05        129.3621
341.50        128.8156
341.95        128.3118
342.40        128.2371
342.85        128.6786
343.30        129.5442
343.75        130.6346
344.20        131.5868
344.66        132.2674
345.11        132.7502
345.56        133.0662
346.01        133.2859
346.46        133.4628
346.91        133.5826
347.36        133.6841
347.81        133.8536
348.26        134.1004
348.72         134.386
349.17        134.7181
349.62        135.1377
350.07        135.6183
350.52        136.1634
350.97        136.5388
351.42        136.3775
351.87        135.6522
352.32        134.4934
352.77        133.3328
353.22        132.8039
353.67        133.0162
354.13        133.7786
354.58         134.666
355.03         134.912
355.48        134.3253
355.93        133.1496
356.38        131.8317
356.83        131.0429
357.28        130.9188
357.73        131.2082
358.18        131.5531
358.63        131.3936
359.08        130.5763
359.53        129.3081
359.98        127.8348
360.43        126.4907
360.88        125.3828
361.33        124.4265
361.78        123.5227
362.23         122.535
362.68        121.4423
363.13        120.3053
363.58        119.2544
364.03        118.4642
364.48        117.9367
364.93        117.5856
365.38         117.197
365.83        116.4442
366.28        115.2726
366.73        113.8094
367.18        112.2808
367.63         111.035
368.08        110.1676
368.53        109.5783
368.98        109.1463
369.43        108.6693
369.88        108.0743
370.33        107.4205
370.78        106.7353
371.23        106.0672
371.68        105.4333
372.13        104.7906
372.58        104.1373
373.03        103.4853
373.48        102.8244
373.93        102.1523
374.38         101.439
374.83        100.6373
375.28        99.75093
375.72         98.7906
376.17        97.85912
376.62        96.98678
377.07        96.20461
377.52        95.52737
377.97        94.94677
378.42        94.46233
378.87        94.06025
379.32        93.68932
379.77        93.39974
380.22        93.26378
380.67         93.2532
381.11        93.37445
381.56        93.31826
382.01        92.69048
382.46        91.48605
382.91        89.91268
383.36        88.42528
383.81        87.64156
384.26        87.64127
384.71         88.2086
385.15        88.99354
385.60        89.37884
386.05        89.17644
386.50        88.56677
386.95        87.72125
387.40        86.91956
387.85        86.27267
388.29        85.64185
388.74        85.13613
389.19        84.69023
389.64         84.2868
390.09        83.95734
390.54        83.67076
390.98        83.34072
391.43        82.99665
391.88        82.63789
392.33        82.32124
392.78        82.08523
393.23        81.91914
393.67        81.89118
394.12        81.97451
394.57        81.65539
395.02        81.05759
395.47        80.92496
395.91        81.18684
396.36        81.04948
396.81        80.50328
397.26        80.00036
397.71        79.61391
398.15        79.24835
398.60        79.02016
399.05        78.82496
399.50         78.6381
399.95        78.64252
400.39        78.77675
400.84        78.42488
401.29        77.70116
401.74        77.61983
402.18        78.01742
402.63         77.4809
403.08        76.24955
403.53        75.78168
403.97        76.15137
404.42        76.61301
404.87        76.92079
405.32        76.96237
405.76        76.64964
406.21        76.11577
406.66        75.53337
407.11        75.08813
407.55        74.93653
408.00         75.1547
408.45        75.60822
408.90        75.94994
409.34        75.97111
409.79        75.50539
410.24        74.76656
410.68        74.32798
411.13        74.27457
411.58        74.30611
412.03         74.3157
412.47        74.26168
412.92        74.08542
413.37        73.83814
413.81        73.60462
414.26        73.57594
414.71        73.74848
415.15        74.08847
415.60        74.44568
416.05        74.64497
416.49        74.63504
416.94        74.46374
417.39        74.23115
417.83         74.0769
418.28        74.04908
418.73         74.1012
419.17        74.20379
419.62        74.31155
420.07        74.38647
420.51        74.41937
420.96        74.42648
421.41         74.3288
421.85        74.09949
422.30        73.95575
422.74        73.82262
423.19        73.43713
423.64        72.90711
424.08        72.86083
424.53        73.25656
424.98        73.50321
425.42         73.5507
425.87        73.77378
426.31        74.08356
426.76        73.97491
427.21        73.52833
427.65        73.22827
428.10        73.12521
428.54        73.13037
428.99        73.29391
429.44        73.26144
429.88        73.21931
430.33        74.13575
430.77        75.49247
431.22        75.98121
431.66         75.4668
432.11        74.34515
432.56        73.13265
433.00        72.83133
433.45        73.64519
433.89        74.81142
434.34        75.43682
434.78        76.37148
435.23        75.34383
435.67        73.23721
436.12        73.05218
436.57        73.30862
437.01        74.60449
437.46        74.99302
437.90        74.37606
438.35        73.91904
438.79        73.81491
439.24        73.81516
439.68        73.90781
440.13        74.42767
440.57        75.19013
441.02        75.08491
441.46         74.3297
441.91        74.81261
442.35        76.08786
442.80        76.06842
443.24        74.94607
443.69        74.82507
444.13        75.66451
444.58        75.99469
445.02        75.76232
445.47        75.79059
445.91          76.102
446.36        76.27916
446.80        76.26356
447.24        76.71737
447.69        76.59415
448.13        76.69187
448.58        76.71774
449.02        76.68062
449.47        76.59238
449.91        76.46065
450.36        76.33288
450.80        76.18295
451.25        76.07979
451.69        76.06055
452.13        76.14646
452.58        76.31451
453.02        76.50073
453.47        76.60959
453.91        76.59666
454.36        76.48911
454.80        76.31363
455.24        76.03865
455.69        75.68932
456.13        75.47385
456.58        75.41513
457.02        74.86483
457.46        74.13586
457.91        74.51208
458.35        75.61716
458.79        75.80775
459.24        75.05106
459.68        74.13987
460.13        73.38739
460.57        73.06589
461.01        73.25871
461.46        73.48702
461.90        73.46498
462.34        75.04332
462.79        74.47462
463.23        74.68629
463.68        74.76422
464.12        74.64642
464.56        74.32104
465.01        73.60435
465.45        72.74554
465.89        72.42625
466.34         72.5687
466.78        72.93236
467.22        73.24358
467.67         72.6097
468.11        72.50119
468.55        72.50559
468.99        72.94839
469.44        72.97688
469.88         72.5781
470.32        72.22951
470.77        72.01296
471.21        71.86523
471.65        71.79749
472.10         71.8335
472.54        71.91141
472.98        71.90009
473.42        71.76198
473.87        71.68013
474.31        71.59646
474.75        71.18978
475.20        70.64472
475.64        70.61841
476.08        71.03675
476.52        71.14278
476.97        70.86909
477.41        70.74339
477.85        70.87563
478.29         70.6691
478.74        70.67776
479.18        71.25652
479.62        70.97936
480.06        71.03982
480.50        70.90005
480.95        71.03421
481.39        71.50666
481.83        70.40747
482.27        70.68046
482.72        70.81757
483.16        70.75946
483.60        70.03118
484.04        70.50141
484.48        70.82834
484.93        71.49275
485.37        70.61515
485.81        70.24059
486.25        70.06084
486.69        71.55023
487.14        71.83691
487.58        70.61938
488.02        71.13812
488.46        69.29321
488.90        69.08773
489.34        70.84683
489.79         71.5479
490.23        71.12047
490.67        70.51324
491.11        69.95584
491.55        69.74516
491.99        69.85525
492.43        69.69355
492.88        69.27549
493.32        69.15075
493.76        69.33562
494.20        69.48331
494.64        69.53686
495.08        69.70845
495.52        69.93323
495.96        69.77649
496.41        69.31643
496.85        69.48219
497.29        69.61024
497.73        69.65923
498.17        68.71033
498.61        68.51076
499.05        68.81791
499.49        69.26739
499.93        69.44965
500.37         69.4013
500.82        69.11961
501.26        69.08376
501.70        69.30597
502.14        69.40697
502.58        69.38809
503.02        69.45177
503.46        69.59724
503.90        69.75387
504.34        69.85806
504.78        69.82061
505.22        69.62636
505.66        69.32269
506.10        69.04495
506.54        68.88142
506.98        68.84465
507.42        69.11646
507.86         69.6501
508.30        69.17543
508.74        69.52792
509.18        69.25209
509.62        68.98163
510.06        68.78815
510.50        68.72096
510.94        68.72063
511.38         68.7414
511.82         68.7632
512.26        68.76871
512.70        68.78087
513.14        68.79551
513.58        68.79915
514.02        68.79174
514.46        68.76476
514.90        68.74945
515.34        68.80186
515.78        68.92429
516.22        69.09586
516.66        69.25115
517.10        69.28494
517.54        69.17997
517.98        68.97635
518.42        68.74481
518.86        68.59973
519.30        68.57178
519.74         68.6217
520.18        68.71539
520.62        68.79644
521.06         68.8444
521.50        68.88508
521.93         68.9065
522.37        68.86596
522.81        68.77425
523.25        68.63535
523.69        68.51066
524.13        68.50075
524.57        68.61604
525.01        68.81866
525.45        69.02663
525.89        69.10429
526.32        69.01246
526.76        68.81688
527.20        68.57189
527.64        68.37043
528.08        68.24656
528.52        68.17138
528.96        68.14885
529.40        68.18562
529.83        68.26755
530.27        68.39964
530.71        68.52975
531.15        68.57792
531.59        68.52987
532.03         68.4061
532.46        68.24406
532.90        68.15533
533.34        68.15271
533.78        68.16525
534.22        68.17211
534.66        68.22504
535.09        68.26159
535.53        68.13596
535.97        67.87436
536.41        67.69492
536.85         67.6204
537.28        67.53127
537.72        67.45551
538.16        67.49115
538.60        67.63542
539.04        67.85552
539.47        68.06306
539.91        68.16464
540.35        68.12569
540.79        67.98431
541.22        67.80225
541.66         67.7027
542.10        67.70924
542.54        67.78267
542.97        67.87801
543.41         67.9572
543.85         67.9921
544.29        68.00787
544.72        67.98952
545.16        67.95271
545.60        67.89296
546.04        67.81447
546.47        67.75382
546.91        67.77421
547.35          67.882
547.79        68.03692
548.22        68.18764
548.66        68.29594
549.10        68.38757
549.53        68.31966
549.97        68.15656
550.41         67.9688
550.84        67.84882
551.28         67.9174
551.72        68.08499
552.15        68.18306
552.59        68.24781
553.03        67.78033
553.46        68.05135
553.90          67.984
554.34        67.93711
554.77        67.93804
555.21        68.01154
555.65        68.06248
556.08        68.04229
556.52        68.29317
556.96        68.15729
557.39        68.21588
557.83        68.25261
558.27        68.01299
558.70        67.57151
559.14        67.38445
559.57        67.43629
560.01        67.41033
560.45        67.33331
560.88        67.40279
561.32         67.6172
561.75        67.93665
562.19        68.26209
562.63        68.12146
563.06        67.65564
563.50        67.69292
563.93        68.11156
564.37        68.21877
564.80        68.02469
565.24        67.81405
565.68        67.48631
566.11        68.15336
566.55           67.38
566.98        67.20541
567.42        67.05457
567.85        67.17943
568.29        67.55623
568.72        67.96643
569.16        68.41872
569.60        68.58969
570.03        68.67558
570.47        68.81602
570.90        69.10927
571.34        68.17379
571.77         68.8631
572.21        68.89008
572.64        68.91006
573.08        68.96659
573.51        68.28396
573.95         68.1714
574.38        68.53395
574.82        68.89734
575.25         68.4027
575.69        68.65329
576.12        68.75615
576.56        68.13236
576.99        68.04826
577.42        68.39746
577.86        68.35787
578.29        69.47169
578.73        69.13148
579.16        68.91148
579.60        68.19119
580.03        68.24887
580.47        68.20021
580.90         68.9836
581.33        69.17931
581.77        69.48026
582.20        69.04339
582.64        69.59921
583.07        69.31273
583.51        69.05879
583.94        68.57944
584.37        68.68465
584.81        68.78404
585.24        69.01801
585.68        69.07082
586.11        68.90734
586.54        69.06277
586.98        68.01317
587.41        67.71555
587.85        68.23583
588.28        68.43793
588.71        68.21978
589.15        68.05138
589.58        68.08806
590.01        67.89574
590.45        67.57564
590.88        68.83167
591.31        68.72658
591.75        67.75056
592.18        67.32113
592.61         67.5275
593.05        68.26607
593.48        68.82156
593.91        68.54813
594.35        68.55353
594.78         67.6376
595.21        67.45937
595.65        67.84254
596.08        69.08064
596.51        69.01911
596.94        68.34032
597.38        67.95908
597.81        68.07453
598.24        68.70656
598.68        68.27266
599.11        67.84628
599.54        69.02497
599.97        68.42077
600.41        68.42769
600.84        67.80389
601.27        68.32928
601.70        67.94248
602.14        68.17909
602.57        67.90776
603.00        67.71375
603.43        67.35226
603.87        68.31509
604.30        68.48674
604.73        68.43609
605.16        67.42373
605.60        67.58535
606.03        67.23608
606.46        67.05582
606.89        67.04772
607.32        67.49702
607.76        67.70586
608.19        67.75326
608.62        67.70881
609.05        67.68592
609.48        67.69072
609.92        68.63284
610.35        67.90206
610.78        67.87792
611.21        67.30406
611.64        67.60278
612.07        67.78276
612.50        67.70036
612.94        67.67387
613.37        67.52161
613.80        67.66432
614.23        66.86663
614.66        66.92317
615.09        67.38885
615.52        67.48301
615.96        67.13477
616.39         67.3115
616.82        67.42043
617.25        67.16995
617.68        67.12177
618.11        67.24708
618.54        67.66997
618.97        67.71404
619.40        67.37321
619.84         67.4264
620.27         67.2717
620.70        67.26751
621.13        67.20285
621.56        66.86053
621.99        66.29029
622.42        66.19307
622.85        66.65527
623.28         66.1524
623.71        66.19198
624.14        66.57169
624.57        66.91286
625.00        66.47999
625.43        66.88185
625.86        66.85365
626.29        67.00626
626.72        66.43667
627.15        66.87901
627.58        66.80936
628.01        66.60661
628.44         66.8571
628.87        66.52125
629.30        66.21361
629.73        66.24268
630.16         66.5808
630.59        66.40547
631.02        66.60561
631.45        66.84994
631.88         66.9944
632.31        66.99504
632.74        66.96037
633.17        66.80851
633.60        66.65923
634.03        66.51413
634.46        66.26823
634.89        66.13015
635.32        66.03759
635.75        66.05833
636.18        66.09575
636.61        66.14244
637.04        66.22147
637.47        66.31681
637.89        66.41206
638.32        66.45662
638.75        66.43792
639.18         66.3541
639.61        66.21062
640.04         66.0602
640.47        65.98783
640.90        66.01376
641.33        66.12226
641.76        66.25986
642.18        66.34139
642.61        66.32217
643.04        66.23284
643.47        66.13021
643.90        66.10857
644.33        66.18366
644.76        66.31967
645.18        66.45103
645.61        66.45647
646.04        66.32558
646.47        66.10982
646.90        65.87829
647.33        65.75523
647.75        65.75105
648.18         65.8098
648.61         65.9481
649.04        66.12976
649.47        66.18555
649.89        66.74469
650.32        66.07109
650.75         65.9426
651.18        65.93289
651.61        65.98358
652.03        66.07433
652.46        66.29633
652.89        66.61062
653.32        66.56931
653.74        66.19435
654.17        66.39257
654.60        66.49519
655.03        66.12637
655.46         65.2474
655.88        65.85564
656.31        68.83041
656.74        70.77546
657.16        70.63184
657.59        70.27135
658.02        67.54168
658.45        67.31482
658.87        66.51042
659.30        66.76086
659.73        66.23012
660.15        67.53497
660.58        66.56547
661.01        66.37641
661.44        65.99818
661.86        65.60834
662.29        65.23803
662.72        65.72345
663.14        65.74272
663.57        65.77557
664.00        65.54408
664.42        65.59954
664.85         65.9323
665.27        66.44218
665.70        66.51015
666.13        66.56705
666.55         66.4557
666.98        66.10049
667.41        65.60032
667.83        65.56507
668.26        65.36762
668.69        65.50617
669.11         65.7226
669.54        65.91984
669.96        66.06006
670.39        66.16595
670.82        66.25188
671.24        66.30906
671.67        66.33768
672.09         66.3201
672.52        66.27869
672.94        66.21172
673.37        66.13344
673.80        66.04272
674.22        65.97041
674.65        65.92729
675.07        65.93526
675.50        65.97846
675.92        66.03046
676.35        66.03414
676.77        65.97905
677.20        65.87729
677.62        65.76906
678.05        65.71849
678.47        65.73864
678.90        65.81774
679.32        65.90742
679.75         65.9435
680.17        65.90488
680.60        65.81408
681.02        65.72457
681.45        65.70229
681.87         65.7718
682.30        65.93683
682.72        66.14542
683.15        66.17651
683.57        66.06295
684.00        66.04209
684.42        66.13682
684.85        66.20221
685.27        66.23335
685.70        66.33506
686.12        66.46675
686.54        66.53291
686.97         66.5169
687.39        66.44643
687.82        66.34098
688.24        66.27354
688.66        66.24883
689.09         66.1978
689.51        66.13417
689.94        66.11476
690.36        66.13374
690.78        66.09727
691.21        66.03183
691.63        66.03377
692.06        66.11301
692.48        66.23431
692.90        66.33873
693.33        66.35432
693.75        66.26131
694.17        66.04762
694.60        65.83089
695.02        65.79829
695.44        65.95324
695.87        66.29229
696.29        66.66059
696.71        66.49983
697.14        65.93447
697.56        65.76807
697.98         66.0435
698.41        66.17759
698.83        66.15694
699.25        66.39533
699.68        66.74876
700.10        66.83068
700.52        66.57348
700.94        66.10892
701.37        65.63662
701.79         65.4827
702.21        65.71063
702.64        66.19353
703.06        66.75037
703.48        67.07017
703.90        67.06168
704.33        66.82469
704.75        66.46902
705.17        66.16232
705.59        65.97992
706.01        65.87441
706.44        65.84795
706.86        65.94167
707.28        66.13396
707.70        66.37055
708.12        66.62099
708.55        66.91922
708.97        67.19265
709.39        67.20403
709.81        66.98361
710.23        66.83887
710.66        66.80621
711.08        66.73509
711.50        66.61872
711.92        66.53566
712.34        66.49263
712.76        66.48862
713.19        66.49335
713.61        66.48666
714.03        66.45233
714.45        66.40855
714.87        66.40508
715.29        66.52033
715.71        66.75793
716.13        67.07166
716.56        67.37819
716.98        67.62838
717.40        67.75062
717.82        67.76834
718.24        67.67387
718.66         67.4593
719.08        67.15812
719.50        66.80145
719.92        66.47744
720.34        66.31592
720.76        66.34331
721.19        66.50423
721.61        66.77143
722.03        67.04037
722.45        67.25645
722.87        67.42839
723.29        67.51363
723.71        67.45138
724.13        67.24723
724.55        66.92983
724.97        66.57983
725.39         66.3423
725.81        66.26444
726.23        66.29182
726.65        66.39455
727.07        66.66484
727.49        66.83318
727.91        67.09611
728.33        67.34866
728.75        67.54134
729.17        67.65093
729.59        67.67701
730.01        67.63737
730.43        67.56837
730.85        67.48774
731.27         67.3924
731.69        67.29122
732.10        67.19309
732.52         67.1009
732.94        67.03368
733.36        67.01466
733.78        66.93697
734.20        66.78209
734.62        66.83985
735.04        67.18105
735.46        66.60405
735.88        67.11658
736.30        67.25665
736.72        67.57094
737.13        67.81096
737.55        67.90234
737.97        68.03337
738.39        68.14342
738.81        67.96684
739.23        67.59519
739.65        67.51125
740.06        67.70152
740.48        67.81918
740.90        67.83109
741.32        67.97688
741.74        68.21819
742.16        68.35052
742.57        68.34787
742.99        68.25372
743.41         68.1129
743.83        67.97799
744.25        67.87139
744.67        67.76598
745.08        67.70199
745.50        67.71756
745.92        67.82034
746.34         67.9992
746.75        68.17024
747.17           68.18
747.59        68.00949
748.01        67.70739
748.42        67.38668
748.84        67.23059
749.26        67.28088
749.68        67.47481
750.09        67.72372
750.51        67.88015
750.93        67.90047
751.35        67.85748
751.76        67.75311
752.18        67.58276
752.60        67.36052
753.01        67.11302
753.43        66.87759
753.85        66.74368
754.27        66.74314
754.68        66.87338
755.10        67.08546
755.52        67.28814
755.93        67.43926
756.35        67.53923
756.77        67.65308
757.18        67.78609
757.60        67.92903
758.02        68.28381
758.43        68.72282
758.85        68.21655
759.26         67.8922
759.68        67.48254
760.10        67.66128
760.51        67.66591
760.93        67.60094
761.34        67.73895
761.76        68.08507
762.18        68.35374
762.59        68.52207
763.01        68.49898
763.42        68.38991
763.84        68.28605
764.26        68.22909
764.67        68.26015
765.09         68.3224
765.50        67.92905
765.92        67.28457
766.33        67.17125
766.75        67.50573
767.16        67.61607
767.58        67.41824
768.00         67.3116
768.41        67.38282
768.83         67.6745
769.24        68.06247
769.66        68.15892
770.07        67.96863
770.49        67.74016
770.90        67.61863
771.32        67.91625
771.73        68.50936
772.15        68.72447
772.56        68.52302
772.97        68.26468
773.39        68.07137
773.80        67.99354
774.22        68.05099
774.63        68.27677
775.05        68.53775
775.46        68.69151
775.88        68.66615
776.29        68.52992
776.70         68.3689
777.12        68.34779
777.53        68.50809
777.95          68.745
778.36        68.98969
778.77        69.09062
779.19        69.03546
779.60        68.91097
780.02        68.71731
780.43        68.56104
780.84        68.50364
781.26        68.13957
781.67        67.69608
782.09        68.37914
782.50        69.81165
782.91         69.9614
783.33        68.90145
783.74        68.52041
784.15         68.8972
784.57        68.91292
784.98        68.60224
785.39        68.54707
785.81        68.77098
786.22        69.11358
786.63        69.48211
787.04        69.72686
787.46        69.81461
787.87        69.77431
788.28        69.67243
788.70         69.5864
789.11        69.52193
789.52        69.48809
789.93        69.45787
790.35        69.37938
790.76        69.25973
791.17         69.1143
791.58         69.0033
792.00        68.96154
792.41        69.01093
792.82        69.23466
793.23        69.52486
793.65        69.47501
794.06         69.2058
794.47        69.30552
794.88        69.65204
795.29        70.03419
795.71        69.56959
796.12        69.33409
796.53        69.18717
796.94        69.15962
797.35        69.28467
797.76        69.57835
798.18        69.91323
798.59        70.09995
799.00        70.06564
799.41        69.85286
799.82        69.58313
800.23        69.46821
800.64        69.55313
801.06        69.74064
801.47        69.94925
801.88        69.94769
802.29        69.68709
802.70        69.26076
803.11         68.7935
803.52        68.48049
803.93        68.40221
804.34        68.50426
804.75        68.75837
805.17        69.15408
805.58        69.68592
805.99        70.15589
806.40         70.5062
806.81        71.03792
807.22        71.52699
807.63        71.09542
808.04        69.97073
808.45        69.32934
808.86        69.31823
809.27        69.37432
809.68        69.39308
810.09        69.44153
810.50         69.4753
810.91        69.47948
811.32        69.53074
811.73        69.74613
812.14        70.13094
812.55        70.62846
812.96        71.07874
813.37         71.1973
813.78        70.92017
814.19        70.37138
814.60        69.73214
815.01        69.24065
815.42        68.95878
815.83        68.81921
816.24         68.8161
816.65        68.92733
817.05        69.13068
817.46        69.41633
817.87        69.70618
818.28        69.82741
818.69        69.74845
819.10        69.47836
819.51         69.1824
819.92        69.17432
820.33        69.52017
820.74        70.12112
821.14        70.73235
821.55        70.95419
821.96        70.70173
822.37        70.10465
822.78        69.39805
823.19        68.98003
823.60        68.97906
824.00        69.30659
824.41        69.76287
824.82        70.10838
825.23         70.2375
825.64         70.2237
826.04        70.13911
826.45        70.05611
826.86        70.02192
827.27        70.00693
827.68         69.9709
828.08        69.88973
828.49        69.70856
828.90        69.46329
829.31         69.2526
829.72        69.22709
830.12        69.43519
830.53        69.78296
830.94        70.10593
831.35        70.07372
831.75        69.64144
832.16        68.90871
832.57        68.14909
832.97        67.77244
833.38        67.87916
833.79        68.31066
834.20        68.91981
834.60        69.47243
835.01         69.8793
835.42        70.25208
835.82        70.53407
836.23        70.54709
836.64        70.31359
837.04        69.83413
837.45          69.396
837.86         69.5433
838.26        70.38783
838.67        71.73522
839.08        73.10154
839.48        73.56236
839.89        72.88416
840.29        71.41358
840.70        69.81049
841.11        68.83432
841.51        68.69426
841.92        69.14108
842.33        69.96556
842.73        70.79431
843.14        71.34383
843.54        71.76283
843.95        72.06417
844.35        72.32322
844.76        72.54144
845.17        72.66312
845.57         72.6391
845.98        72.39481
846.38        71.96683
846.79        71.40137
847.19        70.86503
847.60        70.58403
848.00        70.62029
848.41        70.89036
848.81        71.26585
849.22         71.4341
849.62        71.35419
850.03        71.10206
850.43          70.802
850.84        70.59264
851.24        70.56986
851.65        70.60779
852.05        70.79256
852.46        71.15353
852.86        71.65099
853.27        72.26006
853.67        72.72401
854.07         72.8055
854.48        72.45439
854.88        71.76515
855.29         70.9183
855.69        70.39549
856.10        70.28202
856.50        70.54199
856.90        70.94712
857.31        71.11977
857.71        70.99995
858.12         70.6276
858.52        70.20426
858.92        69.95052
859.33        69.91649
859.73        70.06398
860.13        70.21628
860.54        70.11489
860.94        69.74723
861.34        69.19733
861.75        68.64072
862.15         68.3976
862.55        68.52362
862.96        68.87827
863.36        69.35751
863.76        69.69638
864.17        69.79003
864.57        69.75423
864.97        69.56512
865.38        69.19625
865.78        68.70838
866.18        68.09359
866.58        67.54881
866.99         67.4277
867.39         67.8201
867.79         68.6064
868.19         69.5052
868.60        70.05595
869.00        70.16936
869.40        69.93172
869.80        69.51475
870.21        69.26369
870.61        69.36457
871.01        69.66243
871.41        69.96629
871.81        70.01476
872.22        69.74631
872.62        69.23351
873.02        68.69093
873.42        68.46267
873.82        68.63036
874.22        69.09235
874.63        69.53939
875.03        69.50573
875.43        68.89625
875.83        67.88218
876.23        66.84813
876.63        66.37445
877.03        66.60207
877.44        67.34472
877.84        68.28333
878.24        68.87482
878.64        68.90495
879.04        68.39606
879.44        67.73904
879.84        67.62576
880.24        68.15562
880.64        69.07835
881.04        69.92448
881.44        69.96024
881.84        69.04318
882.24        67.45166
882.65        65.78793
883.05        64.96775
883.45         65.2151
883.85        66.26312
884.25        67.61233
884.65        68.40625
885.05        68.39009
885.45        67.83408
885.85        67.10316
886.25        66.75226
886.65        66.92238
887.05        67.39832
887.45        67.96323
887.85        68.28534
888.25        68.24993
888.65        67.98617
889.04        67.59616
889.44        67.24352
889.84        66.98053
890.24         66.7646
890.64        66.58138
891.04        66.42348
891.44         66.2918
891.84        66.20624
892.24        66.19421
892.64        66.27613
893.04        66.45578
893.44        66.73769
893.83        67.07121
894.23         67.3214
894.63        67.47462
895.03        67.52563
895.43        67.59157
895.83        67.88187
896.23        68.40118
896.63        69.04443
897.02        69.56741
897.42        69.60889
897.82        69.11388
898.22         68.2716
898.62        67.29939
899.01        66.50503
899.41        66.01794
899.81        65.73521
900.21        65.70062
900.61        65.97896
901.00        66.51926
901.40        67.27725
901.80        68.00278
902.20        68.28252
902.59        68.04433
902.99        67.40231
903.39        66.59405
903.79        66.03458
904.18        65.84348
904.58        65.89161
904.98        66.13422
905.38        66.50108
905.77        66.93951
906.17         67.5189
906.57        68.02934
906.96        68.10834
907.36        67.69645
907.76        66.89749
908.15         66.1449
908.55        66.12856
908.95        66.97952
909.34         68.4716
909.74        70.05736
910.14        70.90831
910.53        70.75388
910.93        69.87784
911.33        68.59753
911.72        67.39612
912.12        66.54294
912.52        65.93861
912.91        65.56927
913.31        65.43001
913.70        65.49989
914.10        65.76956
914.49        66.30486
914.89         67.0923
915.29        68.08114
915.68        69.20743
916.08        70.13017
916.47         70.3947
916.87        69.93804
917.26        68.89384
917.66         67.7303
918.05        67.00623
918.45        66.87104
918.84        67.23292
919.24        67.79445
919.64        68.15252
920.03        68.18009
920.42        67.95448
920.82        67.73021
921.21        67.84201
921.61        68.33419
922.00        69.12332
922.40        69.85466
922.79        70.07379
923.19        69.65292
923.58        68.80202
923.98        67.90491
924.37        67.45326
924.77        67.56691
925.16        68.03133
925.55        68.65886
925.95        69.09516
926.34        69.22279
926.74        69.16026
927.13        68.85918
927.52        68.17497
927.92        67.21185
928.31        66.01511
928.70        64.97318
929.10        64.65765
929.49        65.14887
929.89        66.23952
930.28        67.61967
930.67        68.60328
931.07         68.9251
931.46        68.83455
931.85        68.40135
932.24        67.82764
932.64        67.27969
933.03        66.65527
933.42        66.21823
933.82        66.34819
934.21        67.07811
934.60         68.3653
934.99        69.77647
935.39        70.49485
935.78        70.34254
936.17        69.44543
936.56        68.28897
936.96        67.65985
937.35        67.75258
937.74        68.33347
938.13        68.98763
938.53        69.07335
938.92        68.45917
939.31        67.42583
939.70        66.32779
940.09        65.64584
940.49        65.46725
940.88        65.64008
941.27        66.04266
941.66        66.45139
942.05        66.76404
942.44        67.09078
942.84        67.34796
943.23        67.38012
943.62        67.18929
944.01        66.75237
944.40         66.3537
944.79        66.49699
945.18        67.24857
945.57        68.45121
945.97        69.57697
946.36        69.81812
946.75        68.96361
947.14        67.37178
947.53        65.59637
947.92        64.41906
948.31        64.05031
948.70        64.26465
949.09         64.8799
949.48        65.57468
949.87        66.18419
950.26        66.78367
950.65        67.31464
951.04        67.67496
951.43        67.83012
951.82        67.74731
952.21        67.46797
952.60        67.10505
952.99        66.74113
953.38        66.42701
953.77        66.19556
954.16        66.08094
954.55        66.07796
954.94        66.12411
955.33        66.30728
955.72        66.75966
956.11         67.4557
956.50        68.37078
956.89        69.05843
957.28        68.79067
957.66        67.48555
958.05        65.46621
958.44        63.50238
958.83        62.69908
959.22        63.25248
959.61        64.84689
960.00        66.83749
960.39        67.99022
960.78        67.88437
961.16         66.8888
961.55        65.56794
961.94        64.66001
962.33        64.38718
962.72        64.54107
963.11        64.91879
963.49        65.20353
963.88        65.18162
964.27         64.9648
964.66        64.79517
965.04        65.02816
965.43        65.66306
965.82        66.64368
966.21        67.45485
966.60        67.16855
966.98        65.62365
967.37        63.28725
967.76        61.07051
968.15        60.10357
968.53        60.57501
968.92        62.20594
969.31        64.34843
969.69         65.6589
970.08        65.57834
970.47        64.52238
970.86        63.26929
971.24        62.94652
971.63        63.79883
972.02        65.47473
972.40        67.38926
972.79        68.14355
973.17        67.39003
973.56        65.68509
973.95        63.76346
974.33        62.52553
974.72        62.18547
975.11         62.4227
975.49        63.07296
975.88        63.75808
976.26        64.32538
976.65        64.85798
977.04        65.23369
977.42        65.21326
977.81        64.75693
978.19        63.88299
978.58        63.00578
978.96        62.79457
979.35        63.37067
979.74        64.58427
980.12        66.03294
980.51        66.73399
980.89        66.53918
981.28        65.72375
981.66        64.75897
982.05        64.29354
982.43        64.50432
982.82        65.16116
983.20        66.18127
983.59         67.2939
983.97        68.41032
984.35        69.57078
984.74        70.48415
985.12        70.90622
985.51        70.72755
985.89        70.02241
986.28        69.20046
986.66        68.82995
987.04        69.10815
987.43        69.86574
987.81        70.81013
988.20        71.21964
988.58        70.89264
988.96         69.9625
989.35        68.80396
989.73        67.92997
990.12        67.44646
990.50        67.26581
990.88        67.03938
991.27        66.20974
991.65        64.75018
992.03         62.9496
992.42        61.42808
992.80        60.97387
993.18        61.72379
993.56        63.42863
993.95          65.456
994.33        66.75751
994.71         66.8195
995.10        66.05213
995.48        64.90118
995.86        64.13515
996.24        63.97059
996.63        64.00068
997.01         64.3715
997.39        65.03632
997.77        65.85666
998.15        66.95374
998.54        67.77888
998.92        67.36832
999.30        65.75885
999.68        63.27701
1000.06        60.99382
1000.45         60.4314
1000.83        61.99106
1001.21        65.39278
1001.59        69.64919
1001.97        72.30821
1002.35        72.38234
1002.73        70.61126
1003.12        68.38007
1003.50        67.42964
1003.88         68.2969
1004.26        70.36206
1004.64        73.11563
1005.02        75.44904
1005.40        76.69933
1005.78        77.24017
1006.16        76.91119
1006.54        75.43632
1006.92        73.06454
1007.30         70.0485
1007.69        67.21649
1008.07        65.53156
1008.45        65.32864
1008.83        66.36259
1009.21        68.36069
1009.59        70.41265
1009.97        71.82762
1010.35        72.72175
1010.73        72.75286
1011.11        71.55071
1011.49        69.38969
1011.86        66.57163
1012.24        63.95353
1012.62        62.61175
1013.00        62.73025
1013.38        64.06805
1013.76        66.26972
1014.14        68.25213
1014.52        69.33046
1014.90        69.67619
1015.28        69.42718
1015.66        68.86902
1016.04        68.18973
1016.41        67.33778
1016.79        66.41499
1017.17        65.79419
1017.55        65.57368
1017.93        65.59516
1018.31        65.96039
1018.69        66.77901
1019.06        68.05399
1019.44        69.92415
1019.82        71.57175
1020.20         71.2158
1020.58        68.49749
1020.95        64.09348
1021.33        60.09998
1021.71        58.78088
1022.09         60.4227
1022.46        64.79868
1022.84        70.34417
1023.22        72.97768
1023.60        71.01661
1023.97        65.62957
1024.35        60.08295
1024.73        58.09352
