SpectraSmart Spectrum 2.9.0.0
--------- Device Information -----------
Spectrum Name :  反射率_0
Saving Time :  2024/04/27 00:00:48
Spectro-Module Model Name : SE2030-DUVN
Spectro-Module Serial Number : OS361AC55029948
Wavelength Start : 200
Wavelength End : 1025
Wavelength Unit : Wavelength(nm)
Spectrum Unit : Reflectance(%)
-----------Spectrum Setting ------------
Integration Time : 20ms
Average : 10
Boxcar : 0
Background removal :  enabled
linearity correction :  enabled
SC :  disabled
Intensity correction :  disabled
DWT denoise :  enabled
savitzky-golay :  disabled
FFT :  disabled
Running average :  disabled
Kalman :  disabled
High pass :  disabled
---------------BEGIN--------------------
Wavelength(nm)             Reflectance(%)
200.29               0
200.75        37.72289
201.21        38.83678
201.67        40.31974
202.13        42.01397
202.58        43.88379
203.04        46.55209
203.50        49.77227
203.96        51.83025
204.42        51.45925
204.88        48.55973
205.34        44.09695
205.80        40.64397
206.26        39.13203
206.72        38.85667
207.18         39.0798
207.64        38.89973
208.10        38.03592
208.55        36.83186
209.01        34.57389
209.47        31.63717
209.93        29.64629
210.39        28.99357
210.85        29.22701
211.31        30.12168
211.77        31.97377
212.23        36.02417
212.69        47.63362
213.14         75.8538
213.60        88.91465
214.06        80.53429
214.52        70.24062
214.98        62.75351
215.44         56.2651
215.90        48.69733
216.36         41.8351
216.81        38.98349
217.27        41.62542
217.73        50.96317
218.19        65.04958
218.65        70.16485
219.11        61.43727
219.57        48.09261
220.02        39.26294
220.48        39.35389
220.94        47.61542
221.40        64.73525
221.86        89.42973
222.32        103.6796
222.77         93.6235
223.23        72.02627
223.69        52.51317
224.15        42.39513
224.61        39.59107
225.06        39.99445
225.52        41.62307
225.98         42.5492
226.44        42.46899
226.90        42.23951
227.36        41.78717
227.81        40.87785
228.27        39.72385
228.73        38.15006
229.19        36.92874
229.65        37.02772
230.10        38.39191
230.56         40.8087
231.02         43.0382
231.48        43.09022
231.93        40.81425
232.39        37.31813
232.85        34.21003
233.31        33.59979
233.77        35.60816
234.22        39.44635
234.68        43.75922
235.14        46.50706
235.60        47.06196
236.05        45.99445
236.51        43.96259
236.97        42.42665
237.43        42.12175
237.88        42.73051
238.34        43.95896
238.80        45.56342
239.26        47.52225
239.71        50.46037
240.17         54.4307
240.63        59.30797
241.08        64.77355
241.54        69.97702
242.00        74.96438
242.46        80.82497
242.91        89.19992
243.37        100.8772
243.83        116.5065
244.28        130.5851
244.74        133.2368
245.20        123.2931
245.66         110.533
246.11         104.236
246.57        105.0319
247.03        110.2117
247.48         114.139
247.94        108.1369
248.40        95.02608
248.85        81.19305
249.31        70.89427
249.77        65.45438
250.22        63.65134
250.68        64.15659
251.14        66.31291
251.59        68.04323
252.05        68.25953
252.51        68.22316
252.96        67.31726
253.42        65.33611
253.88          62.695
254.33         59.4241
254.79        57.83991
255.25        59.68665
255.70        64.49152
256.16        71.36454
256.62        77.27565
257.07        77.68374
257.53        73.80832
257.99        68.39792
258.44        63.70041
258.90        61.85078
259.35        61.83091
259.81        62.93489
260.27        63.83591
260.72        63.04814
261.18        60.89227
261.63        57.90188
262.09        55.29881
262.55        53.83487
263.00        53.33829
263.46        53.50435
263.91        53.52008
264.37        52.67154
264.83        50.92434
265.28        48.65147
265.74        46.56776
266.19        45.25565
266.65         44.8288
267.11        44.92693
267.56        45.17809
268.02        45.01072
268.47        44.27029
268.93        43.19792
269.38         41.9386
269.84        40.75808
270.30        39.73795
270.75        38.77282
271.21        37.94413
271.66        37.33063
272.12        36.92199
272.57        36.68304
273.03        36.43552
273.48         35.8724
273.94        34.99387
274.39         33.8737
274.85        32.77606
275.31        31.94212
275.76        31.39502
276.22        31.07644
276.67        30.82651
277.13        30.49857
277.58         30.0115
278.04        29.44817
278.49        28.83556
278.95        28.31857
279.40        27.87656
279.86        27.52225
280.31        27.14961
280.77        26.70784
281.22        26.16365
281.68        25.60901
282.13        25.09848
282.59         24.7743
283.04        24.62685
283.50        24.62809
283.95        24.69733
284.41        24.71678
284.86        24.65141
285.32        24.55519
285.77        24.46647
286.22        24.49811
286.68         24.6626
287.13        24.87959
287.59        25.10303
288.04        25.22464
288.50        25.23862
288.95        25.15942
289.41        25.03209
289.86        24.85788
290.32        24.69471
290.77        24.54812
291.22        24.47691
291.68        24.55102
292.13        24.78526
292.59        25.19035
293.04        25.75922
293.50         26.4885
293.95        27.35491
294.40        28.35555
294.86        29.45875
295.31        30.60824
295.77        31.79412
296.22        33.00924
296.68        34.28173
297.13        35.64737
297.58        37.12529
298.04        38.70984
298.49        40.37732
298.95        42.10526
299.40         43.8705
299.85        45.68085
300.31        47.54454
300.76        49.45597
301.21        51.41477
301.67        53.42138
302.12        55.42997
302.58        57.45947
303.03        59.46011
303.48        61.45459
303.94        63.45245
304.39        65.40436
304.84        67.33836
305.30        69.27925
305.75        71.21312
306.20        73.20673
306.66        75.27438
307.11        77.35139
307.57        79.39994
308.02        81.25749
308.47        82.91705
308.93        84.41589
309.38        85.81928
309.83        87.34791
310.29         89.0453
310.74        90.84963
311.19        92.57856
311.65        93.90454
312.10        94.74402
312.55        95.19946
313.00        95.55076
313.46        96.23431
313.91        97.32053
314.36        98.70718
314.82        100.1225
315.27         101.136
315.72        101.6154
316.18        101.7244
316.63        101.6748
317.08        101.8466
317.53        102.3434
317.99        103.0373
318.44        103.7854
318.89        104.3282
319.35        104.5868
319.80        104.6562
320.25        104.6535
320.70         104.756
321.16        105.0182
321.61        105.4308
322.06        105.8871
322.51        106.2297
322.97         106.402
323.42        106.4411
323.87        106.5216
324.32        106.9468
324.78        107.7272
325.23        108.8524
325.68        109.9128
326.13        110.2367
326.59        109.6909
327.04         108.522
327.49        107.2863
327.94        106.8897
328.39        107.5445
328.85        108.9537
329.30        110.7338
329.75        111.9136
330.20        112.1658
330.66        111.7432
331.11        111.0586
331.56        110.7037
332.01        110.8838
332.46        111.3836
332.92        112.0012
333.37        112.5787
333.82        112.9675
334.27        113.3041
334.72        113.6006
335.17        113.8337
335.63        114.0193
336.08         114.201
336.53        114.4885
336.98        115.1302
337.43        116.1573
337.88        117.4615
338.34        118.8284
338.79        120.0163
339.24          120.85
339.69        121.3911
340.14         121.628
340.59        121.5701
341.05         121.315
341.50        120.8918
341.95        120.5081
342.40        120.4756
342.85        120.8689
343.30        121.6079
343.75         122.558
344.20        123.4687
344.66        124.2304
345.11        124.8813
345.56        125.3758
346.01         125.663
346.46        125.7683
346.91         125.716
347.36        125.6136
347.81        125.6531
348.26        125.8707
348.72        126.1962
349.17        126.5833
349.62        126.9868
350.07        127.3613
350.52        127.7418
350.97        127.9522
351.42        127.7137
351.87        127.0217
352.32        125.9799
352.77        124.9616
353.22        124.5167
353.67        124.7353
354.13        125.4469
354.58        126.2806
355.03        126.5637
355.48        126.1176
355.93         125.145
356.38        124.0144
356.83         123.282
357.28        123.0665
357.73        123.1669
358.18        123.2954
358.63        123.0048
359.08        122.1821
359.53        121.0003
359.98        119.6835
360.43        118.5352
360.88        117.6378
361.33         116.904
361.78        116.2106
362.23        115.3759
362.68        114.3726
363.13         113.284
363.58        112.2431
364.03        111.4357
364.48          110.88
364.93         110.483
365.38        110.1043
365.83        109.5336
366.28        108.7182
366.73        107.7386
367.18        106.6708
367.63        105.6285
368.08        104.6628
368.53        103.7491
368.98        102.9158
369.43        102.2028
369.88        101.6098
370.33        101.1356
370.78         100.716
371.23        100.2423
371.68        99.67756
372.13        99.02184
372.58        98.33628
373.03         97.7294
373.48        97.21007
373.93        96.73583
374.38        96.19497
374.83        95.41946
375.28         94.3977
375.72        93.19671
376.17        92.02255
376.62        91.06136
377.07        90.37622
377.52         89.9304
377.97        89.63673
378.42        89.36183
378.87        89.05283
379.32        88.70418
379.77        88.40298
380.22         88.2795
380.67        88.32189
381.11        88.50081
381.56        88.51743
382.01        87.99161
382.46        86.90843
382.91        85.47837
383.36        84.09439
383.81        83.28246
384.26        83.11897
384.71        83.41561
385.15         83.9287
385.60        84.22356
386.05        84.14928
386.50        83.82651
386.95        83.30173
387.40        82.65707
387.85        81.96902
388.29        81.18225
388.74        80.49192
389.19        79.96587
389.64        79.61024
390.09         79.3904
390.54        79.25523
390.98        79.08968
391.43        78.89413
391.88        78.68446
392.33        78.44475
392.78        78.12675
393.23        77.73538
393.67        77.32342
394.12        77.00538
394.57        76.63363
395.02        76.29491
395.47          76.332
395.91        76.63322
396.36        76.62997
396.81        76.28849
397.26        75.89989
397.71        75.51736
398.15        75.14952
398.60        74.92956
399.05         74.6051
399.50        74.23708
399.95        74.42391
400.39        74.98891
400.84        74.61399
401.29        73.47161
401.74        73.32288
402.18        74.01883
402.63        73.63425
403.08        72.36816
403.53        71.90896
403.97        72.32759
404.42        72.78243
404.87        73.04067
405.32        73.05663
405.76        72.75372
406.21        72.21191
406.66        71.60598
407.11        71.21567
407.55        71.15189
408.00        71.27864
408.45        71.50317
408.90        71.77171
409.34         71.9022
409.79        71.54896
410.24        70.90004
410.68        70.56963
411.13        70.62717
411.58        70.75656
412.03        70.82342
412.47        70.74134
412.92        70.45272
413.37        70.03637
413.81        69.63032
414.26        69.49281
414.71        69.64085
415.15        70.02609
415.60        70.48851
416.05        70.82249
416.49        70.95416
416.94        70.92841
417.39        70.83022
417.83        70.78229
418.28        70.82542
418.73        70.91026
419.17        71.00344
419.62        71.06091
420.07         71.0584
420.51        70.99905
420.96        70.92294
421.41        70.80571
421.85        70.62949
422.30        70.53886
422.74        70.45731
423.19        70.22508
423.64        69.89522
424.08        69.85097
424.53        70.07497
424.98         70.2722
425.42        70.42866
425.87        70.69153
426.31        70.99652
426.76        71.12127
427.21         71.0563
427.65        70.85465
428.10        70.60172
428.54        70.53684
428.99        70.72756
429.44          70.823
429.88        70.88709
430.33         71.4754
430.77        72.28143
431.22         72.6189
431.66        72.40591
432.11        71.88403
432.56        71.29591
433.00        71.07967
433.45         71.4284
433.89        72.09493
434.34        72.41072
434.78        73.47688
435.23        72.50118
435.67        70.65887
436.12        71.83609
436.57         71.9622
437.01        72.17937
437.46        72.33572
437.90        72.51723
438.35        71.63513
438.79        72.01337
439.24        71.90659
439.68        71.96387
440.13        72.23398
440.57        72.68616
441.02        72.80707
441.46        72.62892
441.91        73.14609
442.35        73.99445
442.80         73.8802
443.24        72.99929
443.69        72.95157
444.13        73.65792
444.58        74.04411
445.02        73.73064
445.47        73.71777
445.91        73.96176
446.36        74.22377
446.80        74.47333
447.24         74.9252
447.69        75.21568
448.13        75.42727
448.58        75.46435
449.02        75.34809
449.47        75.16632
449.91        75.03383
450.36        75.01482
450.80        75.05404
451.25        75.14281
451.69        75.20613
452.13        75.23875
452.58        75.24752
453.02        75.25057
453.47        75.28489
453.91        75.34698
454.36        75.42645
454.80         75.4482
455.24        75.29442
455.69        74.97478
456.13        74.51826
456.58        74.09307
457.02        73.77495
457.46         73.6554
457.91        73.82482
458.35        74.07779
458.79        74.02237
459.24        73.67922
459.68        73.11765
460.13        72.55676
460.57        72.37496
461.01        72.70818
461.46        72.62124
461.90        73.07292
462.34        73.80983
462.79        73.36815
463.23        73.61838
463.68        73.89108
464.12        73.75959
464.56         73.2037
465.01        72.43746
465.45        71.63995
465.89        71.57191
466.34        71.79189
466.78         71.8748
467.22         71.7319
467.67        71.44376
468.11        71.72977
468.55        71.80473
468.99        71.82275
469.44        71.74242
469.88         71.5743
470.32        71.35609
470.77        71.14429
471.21        71.02241
471.65        71.00358
472.10        71.07525
472.54        71.18262
472.98        71.23009
473.42        71.18594
473.87        71.15337
474.31        71.08687
474.75        70.84595
475.20        70.52213
475.64        70.40636
476.08        70.51822
476.52        70.44645
476.97        70.14879
477.41        70.12501
477.85        70.49296
478.29        69.71642
478.74        70.32056
479.18        70.42448
479.62        70.68913
480.06        70.73316
480.50        70.52812
480.95        70.35586
481.39        70.27711
481.83         69.8131
482.27         69.8324
482.72        70.07979
483.16        70.10461
483.60        70.08682
484.04         70.0995
484.48        70.40851
484.93        70.70783
485.37        70.12296
485.81        69.59604
486.25        69.81418
486.69        71.27391
487.14        71.49832
487.58        69.87433
488.02        70.61948
488.46        69.33624
488.90        69.17107
489.34        70.54147
489.79        71.48539
490.23        70.67615
490.67        70.02402
491.11        69.42056
491.55        69.34403
491.99         69.7073
492.43         69.6878
492.88        69.28236
493.32        69.14487
493.76        69.30022
494.20        69.40161
494.64        69.42005
495.08        69.47643
495.52        69.55782
495.96         69.5645
496.41        69.51745
496.85        69.61827
497.29        69.70629
497.73        69.76037
498.17        68.98151
498.61        68.87755
499.05        69.18477
499.49        69.46494
499.93        69.38821
500.37         69.4559
500.82        69.55787
501.26        69.42398
501.70        69.14682
502.14         69.1363
502.58         69.3884
503.02        69.57041
503.46        69.67276
503.90        69.76321
504.34        70.06789
504.78        70.09421
505.22        69.89687
505.66        69.60004
506.10        69.32096
506.54        69.09274
506.98        68.92616
507.42        69.30371
507.86        69.28651
508.30        69.39531
508.74        69.46129
509.18        69.43942
509.62        69.37777
510.06        69.30494
510.50        69.24589
510.94        69.17718
511.38        69.12181
511.82        69.12388
512.26        69.18829
512.70         69.3058
513.14        69.44127
513.58        69.53334
514.02        69.56487
514.46        69.54928
514.90        69.51133
515.34        69.49518
515.78        69.50998
516.22        69.53577
516.66        69.55495
517.10        69.54079
517.54        69.48747
517.98        69.41309
518.42        69.32099
518.86        69.21308
519.30        69.09933
519.74        68.98256
520.18        68.89252
520.62         68.8741
521.06        68.93295
521.50        69.05589
521.93        69.20399
522.37         69.2899
522.81        69.30002
523.25        69.25225
523.69        69.18336
524.13          69.155
524.57        69.17899
525.01        69.22837
525.45        69.27578
525.89        69.27826
526.32        69.21748
526.76        69.13264
527.20        69.02671
527.64        68.90852
528.08        68.79046
528.52        68.67101
528.96        68.58334
529.40        68.57967
529.83        68.65944
530.27        68.80899
530.71        68.96654
531.15        69.03997
531.59        69.00807
532.03        68.89689
532.46        68.73936
532.90        68.63799
533.34        68.60614
533.78        68.57665
534.22        68.53822
534.66        68.55824
535.09        68.57948
535.53        68.45367
535.97        68.20589
536.41        68.05166
536.85        68.01226
537.28         67.9689
537.72        67.94743
538.16        68.04174
538.60        68.24641
539.04        68.52581
539.47         68.7893
539.91        68.94418
540.35        68.95206
540.79        68.84373
541.22         68.6804
541.66        68.58591
542.10        68.58353
542.54        68.63969
542.97        68.69681
543.41        68.69666
543.85        68.61651
544.29        68.49553
544.72        68.35934
545.16        68.28403
545.60         68.2749
546.04        68.31447
546.47        68.39638
546.91        68.51759
547.35        68.66205
547.79        68.79077
548.22        68.87813
548.66        68.95965
549.10        69.05307
549.53        68.94154
549.97        68.70401
550.41        68.45731
550.84         68.2952
551.28        68.48972
551.72        68.57156
552.15        68.74879
552.59        68.95287
553.03        68.43167
553.46        68.86948
553.90        68.78715
554.34        68.67888
554.77        68.58583
555.21        68.57797
555.65        68.51343
556.08         68.6962
556.52        68.81789
556.96        68.91465
557.39        69.02119
557.83        69.07911
558.27          68.879
558.70        68.31631
559.14        68.12247
559.57        68.23115
560.01        68.18859
560.45         68.0484
560.88        68.26925
561.32        68.75742
561.75        69.02972
562.19         69.0337
562.63        68.75158
563.06        68.36139
563.50        68.39814
563.93        68.74888
564.37        68.98152
564.80        69.01879
565.24        68.76502
565.68        68.17043
566.11         68.7382
566.55        68.05263
566.98        67.96979
567.42        67.88642
567.85        68.17451
568.29        68.73188
568.72         69.0763
569.16        69.27325
569.60        69.33002
570.03        69.46643
570.47        69.60909
570.90        69.89636
571.34        69.00587
571.77        69.62531
572.21        69.83607
572.64         69.4498
573.08          70.064
573.51        69.05151
573.95        69.07987
574.38        69.56645
574.82        69.67393
575.25        69.43388
575.69        69.41808
576.12        69.70526
576.56        69.02791
576.99        69.17193
577.42        69.18777
577.86        69.29224
578.29        70.29913
578.73         69.8735
579.16        69.76584
579.60        69.31655
580.03        69.48997
580.47        69.31183
580.90         70.0582
581.33        70.14087
581.77        70.28822
582.20        69.80997
582.64        70.17094
583.07        69.70456
583.51        69.42551
583.94        69.08802
584.37        69.41113
584.81        69.85766
585.24        69.84595
585.68        69.21356
586.11        69.58026
586.54        69.67972
586.98        68.76471
587.41        68.71532
587.85        69.43211
588.28        69.17363
588.71        69.06113
589.15        69.00296
589.58         69.1269
590.01        68.70431
590.45        68.77912
590.88        69.79692
591.31        69.69785
591.75         68.8671
592.18        68.32845
592.61        68.21114
593.05        68.85213
593.48        70.13392
593.91        69.75982
594.35        69.18772
594.78        68.54146
595.21        68.38828
595.65         68.8427
596.08        69.88464
596.51        69.69675
596.94        69.22987
597.38        68.90988
597.81        69.01107
598.24        69.88873
598.68        69.20377
599.11        69.28322
599.54        69.96214
599.97        69.41782
600.41         69.4345
600.84        68.86911
601.27        69.23933
601.70        69.21885
602.14        69.35149
602.57        69.16846
603.00        69.06767
603.43         68.2271
603.87         69.3073
604.30        69.46154
604.73        69.53571
605.16        68.79623
605.60        68.98697
606.03        68.63708
606.46          68.308
606.89        68.47379
607.32        68.93818
607.76        68.98167
608.19        69.03281
608.62        68.90923
609.05        68.91214
609.48        68.87227
609.92        69.64272
610.35        69.61278
610.78        68.79705
611.21        68.74284
611.64        68.87473
612.07        69.10877
612.50        68.90465
612.94        68.87751
613.37        68.89103
613.80        68.91029
614.23        68.34695
614.66        68.41917
615.09        68.89218
615.52        69.04066
615.96        68.77721
616.39        68.81295
616.82        69.24283
617.25        68.32799
617.68        68.54527
618.11        68.55219
618.54        68.99285
618.97        69.09249
619.40        68.82353
619.84        68.95863
620.27        68.83442
620.70        68.80951
621.13         68.6883
621.56        68.32133
621.99        67.76281
622.42        67.83022
622.85        67.94131
623.28        67.70282
623.71        68.01666
624.14        67.98104
624.57        68.52276
625.00        68.09651
625.43        68.47124
625.86        68.41525
626.29         68.3718
626.72        68.08053
627.15        68.57595
627.58        68.20944
628.01        68.62756
628.44        68.48539
628.87        68.22989
629.30        67.99052
629.73        67.85307
630.16        67.83035
630.59        67.92711
631.02        68.17873
631.45        68.49521
631.88         68.6944
632.31        68.72644
632.74        68.64014
633.17        68.47386
633.60        68.29628
634.03        68.14173
634.46        67.98606
634.89        67.84383
635.32        67.75768
635.75        67.73674
636.18        67.70457
636.61        67.67204
637.04        67.69324
637.47        67.76292
637.89        67.85236
638.32        67.90803
638.75        67.91265
639.18         67.8597
639.61        67.75816
640.04        67.64596
640.47        67.58485
640.90        67.59101
641.33        67.64994
641.76        67.73493
642.18        67.80771
642.61        67.83169
643.04        67.82531
643.47         67.8044
643.90        67.79536
644.33        67.80273
644.76        67.81648
645.18        67.81827
645.61        67.76238
646.04        67.65532
646.47        67.52065
646.90        67.39689
647.33        67.34417
647.75        67.34994
648.18        67.42224
648.61        67.57417
649.04        67.65441
649.47        67.55171
649.89        68.14939
650.32        67.64664
650.75        67.60907
651.18        67.58237
651.61        67.62309
652.03        67.76889
652.46        68.06244
652.89         68.3672
653.32        68.31478
653.74        68.12068
654.17         67.2401
654.60        68.34315
655.03        67.84919
655.46        67.24895
655.88        67.39657
656.31        70.32905
656.74        72.01198
657.16        71.03495
657.59        70.81393
658.02        69.09728
658.45        68.91381
658.87        68.01797
659.30        67.96572
659.73        67.82968
660.15        68.84563
660.58        68.04202
661.01         67.8885
661.44        67.67699
661.86        67.35908
662.29        66.95831
662.72        67.47554
663.14        67.52618
663.57          67.466
664.00         67.0522
664.42        67.08157
664.85        67.57821
665.27        68.09647
665.70        68.42958
666.13        68.51978
666.55        68.32895
666.98        67.80522
667.41        67.12026
667.83        66.99406
668.26        66.80212
668.69         67.0257
669.11         67.3536
669.54        67.58605
669.96        67.65958
670.39        67.70417
670.82        67.75376
671.24        67.66068
671.67        67.52046
672.09        67.66834
672.52        68.04248
672.94        68.19504
673.37        68.10263
673.80        68.00003
674.22        67.93972
674.65        67.86509
675.07        67.81188
675.50        67.78262
675.92        67.76875
676.35        67.74379
676.77        67.70426
677.20        67.65244
677.62        67.61281
678.05        67.62317
678.47        67.68446
678.90        67.78802
679.32        67.88413
679.75        67.91013
680.17        67.85003
680.60        67.72646
681.02        67.60015
681.45        67.56457
681.87        67.65341
682.30         67.8218
682.72         68.0203
683.15        68.14099
683.57        68.16084
684.00        68.05856
684.42        67.91424
684.85        67.90703
685.27        68.06591
685.70        68.28004
686.12        68.43503
686.54        68.54238
686.97        68.60338
687.39        68.02781
687.82        68.00336
688.24        67.77289
688.66        67.70696
689.09        67.73734
689.51        67.85175
689.94        67.96523
690.36        68.03188
690.78        68.11233
691.21        68.22678
691.63        68.24314
692.06        68.13082
692.48        68.52589
692.90        68.29543
693.33        68.26537
693.75        68.11079
694.17        67.85386
694.60        67.59487
695.02        67.53845
695.44        67.70158
695.87        67.98313
696.29        68.26397
696.71        68.25982
697.14        68.01796
697.56        67.84167
697.98        67.78788
698.41         67.9734
698.83        67.88306
699.25        68.10965
699.68        68.38215
700.10        68.48779
700.52         68.3625
700.94        68.09531
701.37         67.8162
701.79        67.72421
702.21        67.85978
702.64        68.14114
703.06        68.46407
703.48         68.6418
703.90        68.61971
704.33        68.45841
704.75        68.22666
705.17        68.02391
705.59        67.89906
706.01        67.82809
706.44        67.80912
706.86        67.87463
707.28         68.0102
707.70         68.1627
708.12        68.33092
708.55            68.6
708.97        68.90455
709.39        68.98592
709.81        68.85533
710.23         68.7888
710.66        68.80697
711.08        68.76775
711.50        68.65437
711.92        68.53423
712.34        68.41879
712.76        68.30897
713.19        68.21435
713.61        68.18434
714.03        68.21489
714.45        68.30298
714.87        68.44553
715.29        68.63802
715.71        68.86253
716.13         69.0935
716.56        69.28583
716.98        69.46152
717.40        69.57269
717.82        69.62659
718.24        69.58475
718.66        69.38887
719.08        69.06256
719.50        68.65668
719.92         68.2947
720.34         68.1599
720.76         68.2847
721.19        68.58593
721.61        68.99797
722.03        69.35183
722.45        69.57347
722.87        69.69686
723.29        69.69221
723.71        69.52153
724.13        69.20947
724.55        68.78003
724.97        68.35254
725.39        68.13206
725.81        68.16847
726.23        68.38678
726.65        68.68916
727.07        69.06065
727.49        69.19533
727.91        69.32656
728.33        69.40437
728.75        69.48092
729.17        69.56732
729.59        69.63626
730.01        69.67332
730.43         69.6624
730.85         69.6018
731.27         69.5031
731.69        69.39379
732.10        69.30808
732.52        69.25644
732.94         69.2515
733.36        69.28709
733.78        69.21548
734.20        69.01398
734.62        68.96828
735.04        69.20862
735.46        68.65217
735.88        69.34937
736.30        69.61381
736.72        69.97266
737.13        70.23791
737.55        70.31894
737.97        70.36982
738.39        70.35307
738.81        70.02583
739.23        69.52782
739.65        69.44993
740.06        69.74947
740.48        69.94283
740.90        69.98599
741.32        70.10622
741.74         70.4313
742.16        70.58406
742.57        70.58472
742.99        70.48006
743.41         70.3145
743.83        70.13914
744.25        69.98031
744.67        69.81582
745.08        69.70364
745.50        69.71146
745.92        69.85116
746.34        70.09748
746.75        70.35046
747.17        70.43194
747.59        70.31744
748.01        70.06113
748.42        69.76604
748.84        69.63945
749.26        69.73445
749.68        69.87213
750.09        70.00228
750.51        70.31574
750.93        70.64568
751.35        70.43634
751.76        69.81755
752.18        69.50668
752.60        69.54505
753.01        69.61925
753.43        69.67681
753.85        69.63137
754.27         69.4773
754.68        69.86344
755.10        69.63492
755.52        69.74006
755.93         69.8158
756.35        69.87435
756.77        69.96936
757.18        70.03671
757.60        70.07965
758.02        70.41029
758.43         70.9261
758.85        70.07664
759.26        70.39882
759.68         69.5408
760.10        69.72397
760.51        70.22205
760.93        70.21709
761.34         70.1553
761.76        69.86434
762.18         70.0463
762.59        70.66684
763.01        70.90406
763.42         70.7783
763.84        70.74363
764.26        70.82865
764.67        70.78962
765.09        70.65807
765.50        70.33661
765.92         69.9697
766.33        69.89895
766.75         70.0536
767.16        70.14021
767.58        70.07179
768.00        70.02938
768.41        70.09372
768.83        70.28178
769.24        70.52258
769.66        70.77362
770.07        70.92566
770.49        70.57531
770.90        69.96401
771.32        70.19473
771.73        71.13666
772.15        71.47805
772.56        71.15334
772.97        70.87531
773.39        70.77458
773.80        70.74562
774.22        70.79675
774.63        71.00108
775.05        71.20669
775.46        71.24633
775.88         71.0533
776.29        70.71095
776.70        70.34831
777.12        70.20005
777.53        70.33147
777.95        70.62308
778.36        70.98383
778.77        71.22775
779.19        71.32562
779.60        71.31272
780.02        71.17686
780.43        71.12598
780.84        71.24568
781.26        70.63788
781.67        70.44463
782.09        70.89056
782.50        71.95013
782.91        71.89278
783.33         70.8489
783.74        70.48104
784.15        70.85006
784.57        71.09663
784.98        71.14904
785.39        71.07181
785.81        70.96862
786.22        71.34021
786.63        72.03815
787.04        72.29862
787.46        72.08347
787.87        71.78374
788.28        71.54603
788.70        71.41963
789.11        71.42757
789.52        71.57323
789.93        71.79131
790.35        71.96066
790.76         72.0538
791.17        72.09481
791.58        72.10136
792.00        72.05595
792.41          71.981
792.82        71.95236
793.23        71.96655
793.65        71.80387
794.06        71.58201
794.47        71.81976
794.88        72.36246
795.29        72.51513
795.71         72.1942
796.12        71.85607
796.53        71.62082
796.94        71.37817
797.35        71.27145
797.76        71.70902
798.18        72.48494
798.59        72.90752
799.00        72.84727
799.41        72.63062
799.82        72.39323
800.23        72.24223
800.64        72.23442
801.06          72.297
801.47        72.39497
801.88        72.37945
802.29        72.21426
802.70        71.95723
803.11        71.67523
803.52        71.46708
803.93        71.38791
804.34        71.41843
804.75        71.54128
805.17        71.79299
805.58         72.1989
805.99        72.46934
806.40        72.61886
806.81        73.26624
807.22        74.10963
807.63        73.79234
808.04         72.5288
808.45        71.86482
808.86        71.95075
809.27        71.98618
809.68        71.86607
810.09        71.79577
810.50        71.75181
810.91        71.68114
811.32        71.68619
811.73        71.92379
812.14        72.40246
812.55        73.06618
812.96        73.70153
813.37         73.9132
813.78        73.60706
814.19        72.93919
814.60         72.1597
815.01        71.60757
815.42        71.36668
815.83         71.3409
816.24        71.48052
816.65        71.67854
817.05        71.87939
817.46         72.0972
817.87        72.29013
818.28        72.33585
818.69        72.22055
819.10         71.9432
819.51        71.64835
819.92        71.61666
820.33        71.90748
820.74         72.4325
821.14        72.98959
821.55        73.24184
821.96        73.11369
822.37        72.71697
822.78        72.21505
823.19        71.88579
823.60        71.82837
824.00        71.98481
824.41        72.24126
824.82        72.51694
825.23        72.74432
825.64        72.94241
826.04        73.09471
826.45        73.12559
826.86        73.04568
827.27        72.88695
827.68        72.65403
828.08        72.39761
828.49        72.10019
828.90        71.76984
829.31         71.5476
829.72        71.65588
830.12         72.1406
830.53        72.88323
830.94        73.59492
831.35        73.72639
831.75        73.17136
832.16        72.07923
832.57        70.85666
832.97        70.13404
833.38        70.08148
833.79        70.49617
834.20         71.1457
834.60        71.65321
835.01        71.89915
835.42        72.04868
835.82        72.14236
836.23        72.15744
836.64        72.14918
837.04        72.05115
837.45        72.02992
837.86        72.44952
838.26        73.36936
838.67        74.63908
839.08        75.84057
839.48        76.17446
839.89        75.45377
840.29        73.98208
840.70        72.39969
841.11        71.43634
841.51        71.28607
841.92        71.71339
842.33        72.49775
842.73        73.23644
843.14        73.64935
843.54        73.91344
843.95        74.06064
844.35        74.19833
844.76        74.34169
845.17        74.41784
845.57        74.42172
845.98         74.3474
846.38        74.21946
846.79        74.04688
847.19        73.86069
847.60        73.67197
848.00        73.50211
848.41        73.33353
848.81        73.18419
849.22        72.99137
849.62        72.79745
850.03        72.61777
850.43        72.49596
850.84        72.42634
851.24        72.45737
851.65        72.50925
852.05        72.69182
852.46        73.06934
852.86        73.60557
853.27        74.23212
853.67        74.69225
854.07        74.76298
854.48        74.39697
854.88         73.7133
855.29        72.84283
855.69        72.18088
856.10        71.80874
856.50        71.71471
856.90        71.82694
857.31        72.02718
857.71        72.30064
858.12        72.60748
858.52        72.91056
858.92        73.02139
859.33        72.88386
859.73        72.58443
860.13        72.15966
860.54        71.72205
860.94        71.37685
861.34        71.08617
861.75         70.9267
862.15        71.05643
862.55         71.4577
862.96         72.0513
863.36        72.68498
863.76        72.99916
864.17        72.88608
864.57        72.47124
864.97        71.87098
865.38        71.29308
865.78        70.84883
866.18        70.48214
866.58        70.24543
866.99        70.22124
867.39        70.43592
867.79        70.86996
868.19        71.39096
868.60        71.75766
869.00          71.937
869.40        71.93684
869.80        71.85701
870.21        71.90542
870.61        72.18717
871.01        72.57059
871.41        72.86042
871.81        72.78536
872.22        72.30599
872.62        71.52057
873.02        70.67773
873.42        70.19336
873.82        70.19099
874.22        70.55166
874.63        71.03603
875.03        71.27592
875.43        71.15259
875.83        70.77871
876.23        70.33054
876.63        70.07676
877.03        70.09171
877.44         70.2662
877.84        70.48335
878.24        70.56176
878.64        70.41189
879.04        69.97779
879.44        69.48848
879.84        69.37576
880.24        69.68176
880.64        70.24488
881.04        70.74187
881.44        70.67067
881.84        69.94136
882.24        68.74533
882.65        67.51189
883.05        66.89668
883.45        67.06541
883.85         67.8336
884.25        68.86382
884.65         69.5703
885.05        69.76653
885.45        69.62379
885.85        69.36658
886.25         69.3437
886.65        69.64097
887.05         70.1107
887.45        70.60259
887.85        70.89204
888.25        70.89936
888.65        70.70846
889.04        70.39608
889.44        70.09602
889.84        69.84782
890.24        69.62922
890.64        69.42416
891.04        69.21231
891.44        69.00452
891.84        68.83474
892.24        68.74884
892.64         68.7988
893.04         68.9892
893.44        69.29764
893.83         69.6827
894.23         70.0208
894.63        70.28896
895.03        70.48757
895.43         70.6456
895.83        70.82851
896.23         71.0322
896.63        71.20392
897.02        71.27899
897.42         71.1859
897.82        70.91943
898.22        70.55987
898.62        70.13414
899.01        69.65971
899.41        69.19397
899.81        68.72648
900.21         68.3952
900.61         68.4201
901.00        68.81384
901.40        69.48622
901.80        70.18541
902.20        70.50057
902.59        70.34738
902.99        69.84521
903.39        69.20506
903.79        68.78066
904.18         68.6765
904.58        68.78484
904.98        69.05439
905.38        69.41709
905.77         69.8255
906.17         70.3259
906.57          70.778
906.96        70.93953
907.36        70.75443
907.76        70.29012
908.15         69.8125
908.55         69.7378
908.95         70.1555
909.34        70.94048
909.74         71.7648
910.14        72.17616
910.53        72.02107
910.93        71.47571
911.33        70.70782
911.72        69.95806
912.12        69.40266
912.52        68.99245
912.91        68.73848
913.31        68.68102
913.70        68.80904
914.10        69.07605
914.49        69.52716
914.89        70.12816
915.29        70.84047
915.68        71.64064
916.08        72.23775
916.47        72.25109
916.87        71.65002
917.26        70.55306
917.66        69.42551
918.05        68.81171
918.45        68.84363
918.84        69.42982
919.24        70.21272
919.64        70.68695
920.03        70.69865
920.42          70.342
920.82        69.95619
921.21         70.0157
921.61        70.59722
922.00         71.5849
922.40        72.54031
922.79        72.86182
923.19         72.3786
923.58        71.35081
923.98        70.25391
924.37        69.70277
924.77        69.85255
925.16         70.4637
925.55        71.27441
925.95        71.80667
926.34        71.90593
926.74        71.70796
927.13        71.27745
927.52          70.645
927.92        69.93828
928.31        69.14828
928.70        68.46804
929.10        68.17424
929.49        68.29577
929.89         68.7017
930.28        69.35092
930.67        70.02081
931.07        70.57566
931.46        71.15245
931.85        71.49776
932.24        71.27153
932.64        70.51751
933.03        69.30997
933.42        68.24677
933.82        68.21161
934.21        69.34541
934.60        71.43295
934.99        73.76204
935.39        75.02288
935.78        74.86166
936.17        73.53946
936.56        71.74507
936.96        70.58587
937.35        70.37487
937.74        70.80785
938.13        71.37595
938.53        71.29314
938.92        70.40411
939.31        69.05837
939.70         67.7467
940.09        67.13252
940.49        67.32369
940.88        68.10543
941.27        69.15341
941.66        69.88636
942.05        70.10126
942.44        70.00697
942.84        69.75736
943.23        69.58563
943.62        69.58656
944.01        69.60835
944.40        69.74824
944.79        70.20426
945.18        70.94596
945.57        71.91783
945.97        72.68174
946.36        72.58709
946.75        71.49977
947.14        69.73962
947.53         67.8614
947.92        66.65125
948.31        66.30907
948.70        66.61575
949.09        67.37593
949.48        68.22776
949.87        68.99043
950.26        69.74825
950.65        70.41502
951.04        70.85416
951.43        71.02869
951.82        70.90112
952.21        70.59237
952.60        70.34897
952.99        70.26707
953.38        70.35461
953.77        70.51491
954.16        70.57241
954.55          70.487
954.94        70.27138
955.33        70.13966
955.72        70.45431
956.11         71.2523
956.50        72.40424
956.89        73.40365
957.28         73.4166
957.66        72.29138
958.05        70.39866
958.44        68.38821
958.83        67.17776
959.22        66.96337
959.61        67.47469
960.00        68.36262
960.39        68.96331
960.78        69.02346
961.16        68.75517
961.55        68.34416
961.94        67.97259
962.33        67.73508
962.72        67.55751
963.11        67.48653
963.49        67.68666
963.88        68.08292
964.27        68.60189
964.66        69.19749
965.04        69.84187
965.43        70.43845
965.82        71.03401
966.21        71.31036
966.60         70.7207
966.98        69.23615
967.37         67.2089
967.76        65.32365
968.15        64.40858
968.53        64.61088
968.92        65.75224
969.31        67.38544
969.69        68.56053
970.08        68.81815
970.47        68.38863
970.86        67.81735
971.24        67.93179
971.63        68.90202
972.02        70.48028
972.40        72.07941
972.79         72.3153
973.17        70.93845
973.56        68.52853
973.95        66.03214
974.33        64.61896
974.72        64.51958
975.11        65.37046
975.49        66.75092
975.88        67.74662
976.26        68.04627
976.65        67.88016
977.04        67.44386
977.42        67.01282
977.81        66.66448
978.19        66.23283
978.58        65.91657
978.96        66.03989
979.35        66.61042
979.74         67.6177
980.12        68.70726
980.51        68.97439
980.89        68.36237
981.28        67.13057
981.66         65.8903
982.05        65.50287
982.43        66.16207
982.82        67.59006
983.20        69.50618
983.59        71.22773
983.97        72.51269
984.35        73.47383
984.74        73.97208
985.12        74.06497
985.51        73.75431
985.89        73.03364
986.28        72.24524
986.66        71.85605
987.04        72.02582
987.43        72.61598
987.81        73.38223
988.20        73.66628
988.58        73.29028
988.96        72.37157
989.35          71.191
989.73        70.11391
990.12        69.24221
990.50        68.55322
990.88        67.86668
991.27        66.93452
991.65        65.78745
992.03        64.55685
992.42         63.7073
992.80        63.81892
993.18        64.98312
993.56         67.0603
993.95        69.30984
994.33        70.50075
994.71         70.1124
995.10        68.58258
995.48        66.77828
995.86         66.0961
996.24         66.8705
996.63        68.61868
997.01        70.89754
997.39        72.37104
997.77         72.4912
998.15        71.78599
998.54        70.60994
998.92        69.34684
999.30        68.26324
999.68        67.16018
1000.06        66.46778
1000.45        66.79007
1000.83        68.27172
1001.21        70.93231
1001.59        73.91746
1001.97        75.14874
1002.35         73.9848
1002.73        71.11546
1003.12        68.11563
1003.50        66.95713
1003.88        68.11621
1004.26        70.90344
1004.64        74.54697
1005.02        77.29825
1005.40        78.28116
1005.78        78.16499
1006.16        76.82745
1006.54        74.09146
1006.92         70.3985
1007.30         65.9589
1007.69        62.27851
1008.07        61.37529
1008.45        63.76108
1008.83        69.09943
1009.21        75.95612
1009.59        80.51445
1009.97        80.87115
1010.35        77.99651
1010.73         73.3428
1011.11        69.15749
1011.49        66.29001
1011.86        64.17055
1012.24        62.92989
1012.62        62.73141
1013.00        63.48532
1013.38        65.32516
1013.76        67.85681
1014.14        69.77859
1014.52        70.37596
1014.90        69.76705
1015.28        68.40398
1015.66        67.10048
1016.04        66.10543
1016.41        65.21798
1016.79        64.39957
1017.17        63.70813
1017.55        63.17208
1017.93         62.8628
1018.31        62.78993
1018.69        62.86969
1019.06        63.10208
1019.44        63.56733
1019.82         64.0749
1020.20        64.22542
1020.58        63.87549
1020.95        62.97664
1021.33        62.29652
1021.71        62.69019
1022.09        64.33236
1022.46         67.4016
1022.84        70.81639
1023.22         71.8945
1023.60        69.74059
1023.97        65.09498
1024.35        60.88836
1024.73        60.56508
